timestamp,value-0,is_anomaly
0,-2.2136073780850514,0.0
1,-1.76912452414842,0.0
2,-0.9152637477320886,0.0
3,-0.17604681985284065,0.0
4,0.30924423217603714,0.0
5,1.3009764154629844,0.0
6,2.3252673880736925,0.0
7,3.337393015712707,0.0
8,4.503239197808252,0.0
9,5.2539601671996845,0.0
10,4.511576030984207,0.0
11,4.333029038587097,0.0
12,3.061468234004931,0.0
13,1.6086863229487216,0.0
14,-0.5373343995245328,0.0
15,-2.298195157708383,0.0
16,-3.8243449491417394,0.0
17,-4.7404503282984205,0.0
18,-4.749303884960291,0.0
19,-5.0011886753178745,0.0
20,-4.0262632487644785,0.0
21,-2.867864872574826,0.0
22,-1.3918155544032311,0.0
23,-0.8718522135307551,0.0
24,-0.19126642633148228,0.0
25,-0.851609614890658,0.0
26,-0.6189470055332371,0.0
27,-1.2832588383323102,0.0
28,-2.468978403819911,0.0
29,-1.9333624578966675,0.0
30,-2.4920570862613967,0.0
31,-2.8183609534557172,0.0
32,-2.7840807665113614,0.0
33,-2.414048374190815,0.0
34,-2.0316400750117047,0.0
35,-1.3407508715096352,0.0
36,-1.4366868963857335,0.0
37,-1.223311108691112,0.0
38,-1.8522204155484832,0.0
39,-1.1639432224361344,0.0
40,-2.1742066255966197,0.0
41,-1.6813755142585247,0.0
42,-1.7890307884497594,0.0
43,-1.845613838119863,0.0
44,-1.450580802390905,0.0
45,-2.1868773243727673,0.0
46,-2.3811482348499986,0.0
47,-1.624865398345215,0.0
48,-1.5513764177335456,0.0
49,-1.8969824013621357,0.0
50,-1.9764136516887758,0.0
51,-1.9738432611144643,0.0
52,-0.9255114145777086,0.0
53,-1.596645785711313,0.0
54,-1.9098390734026203,0.0
55,-1.9455128944879365,0.0
56,-1.2556349184409403,0.0
57,-1.417585162239068,0.0
58,-1.7644906022058187,0.0
59,-1.3434601807122948,0.0
60,-1.881985927154976,0.0
61,-1.5662950285357,0.0
62,-1.6031101056552486,0.0
63,-1.5271493604056292,0.0
64,-1.3548470317397685,0.0
65,-1.7190677486986108,0.0
66,-1.888331728926955,0.0
67,-1.885128219145621,0.0
68,-1.742358646128629,0.0
69,-1.970870087946107,0.0
70,-1.8463346464116663,0.0
71,-1.7866264487195933,0.0
72,-1.8024360512825042,0.0
73,-1.5858278621754909,0.0
74,-1.9340884410700558,0.0
75,-1.7027031904398087,0.0
76,-1.412862311049512,0.0
77,-1.8950067076495543,0.0
78,-1.5605338920915606,0.0
79,-1.3161257413352965,0.0
80,-1.506708279956089,0.0
81,-1.2063351116039707,0.0
82,-1.5929599098850342,0.0
83,-1.3849507995565713,0.0
84,-1.775413826501152,0.0
85,-1.4524289692335428,0.0
86,-1.2129131379493272,0.0
87,-0.9776173081204741,0.0
88,-1.0815989387876028,0.0
89,-2.168032079640795,0.0
90,-1.226349302884518,0.0
91,-1.159970775226582,0.0
92,-1.8143324224160333,0.0
93,-1.3263258205709072,0.0
94,-1.341675947328699,0.0
95,-1.2523869248635688,0.0
96,-1.7236012828362821,0.0
97,-2.1380358123380563,0.0
98,-1.6200848232191702,0.0
99,-1.0641979770626677,0.0
100,-1.2263797363074571,0.0
101,-1.054325565968948,0.0
102,-0.8873771467512079,0.0
103,0.08339421741601849,0.0
104,1.2452706665491207,0.0
105,2.170717967566457,0.0
106,2.8077096111731636,0.0
107,3.669684056227663,0.0
108,5.079997679759568,0.0
109,6.253029313286773,0.0
110,4.913181449913296,0.0
111,5.082531276297939,0.0
112,3.4526535967780236,0.0
113,1.7265683744910616,0.0
114,-0.44903587635449016,0.0
115,-1.4699581465079974,0.0
116,-3.1425832786694423,0.0
117,-4.0155200142471,0.0
118,-4.530462922956586,0.0
119,-4.4629527864315595,0.0
120,-3.2159204842366007,0.0
121,-2.664849686549969,0.0
122,-1.19123853565825,0.0
123,-0.7533271394026156,0.0
124,0.03800388778852626,0.0
125,0.06956166455107815,0.0
126,-0.5301542123602709,0.0
127,-0.9225110443157978,0.0
128,-1.3655998603342216,0.0
129,-1.5937831512184963,0.0
130,-1.78142703634528,0.0
131,-2.177488359269165,0.0
132,-2.2166701700219154,0.0
133,-2.0194864194650832,0.0
134,-1.4146442318605799,0.0
135,-1.966882260576642,0.0
136,-1.3132115000134077,0.0
137,-1.1376674769450732,0.0
138,-1.2686978026994167,0.0
139,-0.9242561899924641,0.0
140,-1.122414582301526,0.0
141,-1.3310597840351228,0.0
142,-1.6957534790473758,0.0
143,-1.507725698206554,0.0
144,-1.6234823095408222,0.0
145,-1.3264879003629433,0.0
146,-1.427028374339773,0.0
147,-1.8775499429250906,0.0
148,-1.621502371918541,0.0
149,-1.5100991994964807,0.0
150,-0.8890403788717602,0.0
151,-0.9090445114000548,0.0
152,-1.325228377660351,0.0
153,-1.376202648164681,0.0
154,-1.271299361355336,0.0
155,-1.0891196395579115,0.0
156,-1.1362604883107197,0.0
157,-1.7028564280167855,0.0
158,-1.3599255279853113,0.0
159,-1.4942981115040457,0.0
160,-1.2891140945234014,0.0
161,-1.1392826157654508,0.0
162,-1.2023865121743562,0.0
163,-1.3124090016148662,0.0
164,-1.1895143420411136,0.0
165,-1.4329908731570442,0.0
166,-0.8899154626449085,0.0
167,-1.8641264620084659,0.0
168,-1.0096455695963342,0.0
169,-1.7733700738628595,0.0
170,-1.5984470678976703,0.0
171,-1.2612946814892545,0.0
172,-0.9244748894046131,0.0
173,-1.54888666135177,0.0
174,-1.4072614010403142,0.0
175,-1.1152578701815812,0.0
176,-1.3754217182383546,0.0
177,-0.936778473066558,0.0
178,-1.072703772526803,0.0
179,-1.0313224759165276,0.0
180,-1.0332640476396506,0.0
181,-1.137612290618291,0.0
182,-0.9330130594694604,0.0
183,-1.2411022999585501,0.0
184,-0.944764012778042,0.0
185,-0.8805808750099097,0.0
186,-0.9067654916241442,0.0
187,-1.25965198222362,0.0
188,-0.9591188614475787,0.0
189,-1.4889184941843139,0.0
190,-0.8050985846296739,0.0
191,-0.470492593154856,0.0
192,-1.3465818957560256,0.0
193,-1.3443618774657913,0.0
194,-0.6335541305569385,0.0
195,-1.014914676455159,0.0
196,-0.7327627084987408,0.0
197,-1.199924271480948,0.0
198,-1.060420109383337,0.0
199,-0.8104646421840277,0.0
200,-0.8403708690085697,0.0
201,-0.4857997656241516,0.0
202,-0.17178490435411164,0.0
203,0.25033919276144734,0.0
204,0.954644554173979,0.0
205,2.23288033935542,0.0
206,4.362035921752128,0.0
207,4.453134319673296,0.0
208,5.582970730655037,0.0
209,6.008888211506578,0.0
210,5.8878470620443695,0.0
211,4.740926148878626,0.0
212,3.8087323197740934,0.0
213,2.7682911387776334,0.0
214,0.3134135321086968,0.0
215,-0.9368175431950544,0.0
216,-2.808437821535122,0.0
217,-4.078158983845543,0.0
218,-3.559614586266544,0.0
219,-3.821534609490852,0.0
220,-2.9363215592853007,0.0
221,-2.478607566626227,0.0
222,-0.8410715323341327,0.0
223,-0.3103114613969711,0.0
224,0.9166825211570349,0.0
225,0.7636860563664749,0.0
226,0.027397061946340173,0.0
227,0.16602217543583897,0.0
228,-0.6511222311755575,0.0
229,-0.9621617811047439,0.0
230,-1.264373653465179,0.0
231,-2.174153192861764,0.0
232,-2.0705133524777146,0.0
233,-1.6342947343832355,0.0
234,-1.754131428055798,0.0
235,-1.0161786942601265,0.0
236,-0.8835039559858959,0.0
237,-0.5261488704649063,0.0
238,-0.9387278377291653,0.0
239,-0.7613556790072924,0.0
240,-0.6748065874303765,0.0
241,-0.8626380449702601,0.0
242,-0.6229987825661802,0.0
243,-1.4923868060635443,0.0
244,-0.8357197111759465,0.0
245,-1.096535816686638,0.0
246,-0.5914556580698521,0.0
247,-0.7976595091803371,0.0
248,-1.0156103871751427,0.0
249,-0.024793803748114407,0.0
250,-0.8846626031153784,0.0
251,-0.5196814425697226,0.0
252,-0.6057019190906211,0.0
253,-1.2628944425867827,0.0
254,-0.957206224463187,0.0
255,-0.855967827045167,0.0
256,-0.8873393548125864,0.0
257,-1.6792549010708446,0.0
258,-0.8719112912983922,0.0
259,-1.1211225841440184,0.0
260,-1.206041300558885,0.0
261,-0.9321957648658146,0.0
262,-0.5977692722574269,0.0
263,-0.15110853723207396,0.0
264,-0.4507992254446003,0.0
265,-0.7446428592114485,0.0
266,-0.44388523616360087,0.0
267,-0.6182719146265822,0.0
268,-0.4613491581175063,0.0
269,-0.4209038945597603,0.0
270,-0.30760607538007473,0.0
271,-0.6777125002533075,0.0
272,-0.8418779306138903,0.0
273,-0.1464607752045614,0.0
274,-1.3887593683879944,0.0
275,-0.6299824687400528,0.0
276,-0.3013167798047116,0.0
277,-0.7268858417752462,0.0
278,-0.4663262316808036,0.0
279,-0.7259957571409217,0.0
280,-0.8801654898902785,0.0
281,-0.8725647068769297,0.0
282,-0.6091662119154689,0.0
283,-0.9614931978591307,0.0
284,-0.7388547243661528,0.0
285,-0.8590935500745498,0.0
286,-0.5065680561610135,0.0
287,-0.4165921752825152,0.0
288,-0.038171436682355925,0.0
289,-1.0377844157180076,0.0
290,-1.0685855872295966,0.0
291,-0.6174076151414372,0.0
292,-0.3183206662258457,0.0
293,-0.5447074010974264,0.0
294,-0.7706691740333776,0.0
295,-0.6452771961952629,0.0
296,-0.36922619614229685,0.0
297,-0.7025108780682877,0.0
298,-0.8742803843773664,0.0
299,0.11582653235101703,0.0
300,-0.7830888871922732,0.0
301,-0.1204808998083835,0.0
302,-0.0007226927079670986,0.0
303,0.5764293865758421,0.0
304,1.6327768550846822,0.0
305,2.6190061174554082,0.0
306,3.5932580748222467,0.0
307,5.028069499171091,0.0
308,6.216447675232922,0.0
309,6.492843481037362,0.0
310,5.7769998459813205,0.0
311,5.353706042023745,0.0
312,4.340438333706894,0.0
313,3.093915339813829,0.0
314,1.079880772084233,0.0
315,-0.22182791297050208,0.0
316,-2.061082466116902,0.0
317,-3.713755094644135,0.0
318,-3.712764171811865,0.0
319,-3.1701460306351117,0.0
320,-3.012769099696797,0.0
321,-1.4285801185319347,0.0
322,-0.10331224976468979,0.0
323,0.5082167585106511,0.0
324,0.7491507173297749,0.0
325,1.2143531380479513,0.0
326,1.4242951310694192,0.0
327,0.06483730918286434,0.0
328,-0.2580154866937197,0.0
329,-0.9074499556449143,0.0
330,-1.2680431954815163,0.0
331,-1.506487533404794,0.0
332,-1.212656315753164,0.0
333,-1.307730924373153,0.0
334,-0.40465712710542323,0.0
335,-0.4565235068057663,0.0
336,0.07899120384079628,0.0
337,-0.339876659677794,0.0
338,-0.7032766618706513,0.0
339,0.22669035340391167,0.0
340,-0.4657539060841519,0.0
341,-0.6757643290536605,0.0
342,-0.5955741369299715,0.0
343,-0.5949647270630832,0.0
344,-0.7436389526032489,0.0
345,-0.5473989338894834,0.0
346,-0.3450412096918989,0.0
347,-0.16197815927814274,0.0
348,-0.151243065434407,0.0
349,-0.39239195107629576,0.0
350,-0.6892195851897954,0.0
351,-0.04369050115994744,0.0
352,-0.8454738075348011,0.0
353,-0.37492234732243035,0.0
354,-0.6413728586811268,0.0
355,-0.22991789884583866,0.0
356,-0.4286987430847037,0.0
357,-0.5907082912710689,0.0
358,-0.8245714787146283,0.0
359,0.13655854808137202,0.0
360,-0.34261939167208094,0.0
361,-0.29098345634038875,0.0
362,-0.3352340108321337,0.0
363,-0.24522634751539885,0.0
364,0.02597104877582688,0.0
365,-0.6057529663372012,0.0
366,-0.411432444722745,0.0
367,-0.26402166625826046,0.0
368,-0.4048277102541637,0.0
369,-0.09300198774740169,0.0
370,-0.2840929958805038,0.0
371,-0.4900954093164803,0.0
372,-0.3063093107016165,0.0
373,0.27756121499838293,0.0
374,0.0882635141251003,0.0
375,-0.4275377978862619,0.0
376,-0.29929392083002265,0.0
377,-0.3525654050429788,0.0
378,-0.44026646509017975,0.0
379,-0.15335361874617906,0.0
380,-0.5383500735542103,0.0
381,-0.1410334589441602,0.0
382,-0.08647943128612863,0.0
383,0.25717790782702,0.0
384,-0.9646695338498742,0.0
385,-0.209847576750939,0.0
386,-0.20412307889666945,0.0
387,-0.1978522266173378,0.0
388,-0.5198723293910903,0.0
389,-0.3126575080954996,0.0
390,-0.2961159309707525,0.0
391,-0.043629499274978625,0.0
392,-0.5280342322647815,0.0
393,0.0250498272385035,0.0
394,0.013877687307776998,0.0
395,-0.7309099878330777,0.0
396,-0.385536827507807,0.0
397,0.12826485904301865,0.0
398,-0.2648872272107078,0.0
399,-0.30546329171913844,0.0
400,0.26244911910597035,0.0
401,-0.1766365914014143,0.0
402,0.7342439575266797,0.0
403,1.3735248111646299,0.0
404,2.2428785256379986,0.0
405,3.046319154405586,0.0
406,3.756289772358607,0.0
407,5.569043863263885,0.0
408,6.286895458076048,0.0
409,6.604008568058106,0.0
410,6.205591984995604,0.0
411,6.250627363015616,0.0
412,5.3534387678875,0.0
413,3.80879245686996,0.0
414,1.4249462957219832,0.0
415,0.17976859638722198,0.0
416,-2.1926464881464187,0.0
417,-2.915271616179961,0.0
418,-2.9966561465918287,0.0
419,-3.285459481977176,0.0
420,-2.1564974520239453,0.0
421,-0.8757819839503758,0.0
422,0.1928480401768514,0.0
423,0.7530672960878086,0.0
424,1.3131161313185378,0.0
425,1.431403629347579,0.0
426,1.1364824063885894,0.0
427,0.8256002832571735,0.0
428,0.22685823068820565,0.0
429,-0.18717715103830218,0.0
430,-0.9204326557787357,0.0
431,-0.6090900283607004,0.0
432,-0.5182805999870299,0.0
433,-0.3128515459915997,0.0
434,-0.2616505163597401,0.0
435,0.40412601260378156,0.0
436,0.09241414648917204,0.0
437,0.25727554979089146,0.0
438,0.706851629112996,0.0
439,0.5295849272215012,0.0
440,0.23757016153599747,0.0
441,0.10077623958463255,0.0
442,-0.13926423893105697,0.0
443,-0.1386562633140792,0.0
444,0.2670266708963669,0.0
445,-0.25248537169649937,0.0
446,0.20688628063088466,0.0
447,0.1760667372219284,0.0
448,-0.021525864790995955,0.0
449,0.12024281814307089,0.0
450,0.22616973812736274,0.0
451,-0.044099579445229034,0.0
452,0.3366544404763797,0.0
453,0.045155398256197396,0.0
454,-0.13696134535945226,0.0
455,-0.20309565615551753,0.0
456,0.27125537906360964,0.0
457,-0.25240508607185946,0.0
458,0.7075381370386704,0.0
459,-0.4658264669338439,0.0
460,0.14947900701922312,0.0
461,-0.24166383268740166,0.0
462,-0.3281548289579736,0.0
463,-0.20401461628196368,0.0
464,-0.36592002999230794,0.0
465,-0.06641067057228757,0.0
466,0.20888419603757755,0.0
467,-0.14449879242143457,0.0
468,0.3453150810414465,0.0
469,-0.41924098208072724,0.0
470,0.06867174743876903,0.0
471,0.11156171803237179,0.0
472,0.28939395728768746,0.0
473,0.3366975604526834,0.0
474,-0.18961741416973443,0.0
475,0.4604476633751853,0.0
476,0.5162261082895713,0.0
477,-0.31976898560115435,0.0
478,-0.35429477087396255,0.0
479,0.3476077000767007,0.0
480,-0.06662440159459639,0.0
481,0.07811640517328161,0.0
482,-0.031711540650353566,0.0
483,-0.16953243194255146,0.0
484,-0.22446655621789854,0.0
485,0.08035581047998704,0.0
486,0.22636113793603893,0.0
487,-0.28401271085059043,0.0
488,0.26425998573196374,0.0
489,0.08760192096150198,0.0
490,-0.018583107208474992,0.0
491,0.7273928382303777,0.0
492,0.14590884715066182,0.0
493,0.16398103278702325,0.0
494,0.34134213490025495,0.0
495,-0.05550441974679849,0.0
496,0.1614365917920511,0.0
497,0.13875546270872313,0.0
498,0.29863315980106914,0.0
499,0.44471562883470617,0.0
500,-0.2649459582955681,0.0
501,0.5785959571053243,0.0
502,1.103688374391393,0.0
503,2.088118002150397,0.0
504,2.709642380934626,0.0
505,3.5501071968343885,0.0
506,4.998389995753552,0.0
507,5.8636759274242785,0.0
508,6.569613840638949,0.0
509,7.558324645136861,0.0
510,7.281019006948657,0.0
511,6.4398613508261375,0.0
512,5.057751910330411,0.0
513,3.8247290005073338,0.0
514,2.2319894320725897,0.0
515,0.09462500715570155,0.0
516,-1.4966494904092862,0.0
517,-2.1171773311536866,0.0
518,-2.761051419205157,0.0
519,-3.104072690220711,0.0
520,-2.2933233209178603,0.0
521,-1.5815365162127895,0.0
522,0.0755359863867432,0.0
523,1.3397438641386494,0.0
524,1.5760064677025536,0.0
525,2.0040359523288798,0.0
526,1.9269775913680265,0.0
527,1.2153402851124564,0.0
528,0.8053831513126095,0.0
529,-0.07424051726340591,0.0
530,-1.1073376168560807,0.0
531,-0.5508354388825333,0.0
532,-0.12949171915909374,0.0
533,0.377139308183047,0.0
534,-0.14357717257356684,0.0
535,0.4679459454107109,0.0
536,0.793588678555767,0.0
537,0.9396631037317542,0.0
538,0.7918404626848372,0.0
539,0.8935771572247343,0.0
540,0.5182415738059499,0.0
541,0.003468885018832274,0.0
542,0.5054463027442424,0.0
543,0.5888369889835705,0.0
544,0.5079694577029727,0.0
545,0.3500054474505192,0.0
546,0.36080232735159634,0.0
547,0.41455541079972363,0.0
548,0.6227705388120335,0.0
549,0.4617298808055851,0.0
550,0.5215692548298562,0.0
551,0.4296628833694142,0.0
552,-0.14021497688385046,0.0
553,0.33195281052848735,0.0
554,-0.027036460118039847,0.0
555,0.04704873150013343,0.0
556,0.6746011126201232,0.0
557,0.15469972692876793,0.0
558,0.5908368129580057,0.0
559,0.4643369235450568,0.0
560,0.3695806997884853,0.0
561,-0.0812349376700271,0.0
562,0.06432996212009953,0.0
563,0.49351730050969655,0.0
564,0.7637793992339608,0.0
565,0.7252535282601368,0.0
566,0.415456762035927,0.0
567,0.32032127570951174,0.0
568,0.2896859421538066,0.0
569,0.29857008882515745,0.0
570,0.5533889918713037,0.0
571,1.713242254641496,0.0
572,0.810965062654799,0.0
573,0.1727941306979976,0.0
574,0.6165953429206893,0.0
575,0.4865149588314458,0.0
576,0.4316281506144116,0.0
577,0.6907419143277731,0.0
578,0.6964968349030699,0.0
579,0.6727404320107495,0.0
580,0.741454331665273,0.0
581,0.6449754766321555,0.0
582,0.5503617811720904,0.0
583,0.26254524371058924,0.0
584,0.6406413888055432,0.0
585,0.8748946417357727,0.0
586,0.3292191260752831,0.0
587,0.33902726861332555,0.0
588,0.027675049611351643,0.0
589,0.8744070732750325,0.0
590,0.6389613753841699,0.0
591,1.0837049965748777,0.0
592,0.5584968804871755,0.0
593,0.2687822634867219,0.0
594,0.46972959856939667,0.0
595,0.11334074823071182,0.0
596,0.38288404985939223,0.0
597,0.405022011694438,0.0
598,0.43691332733992366,0.0
599,0.5094903569808745,0.0
600,0.6064035776533077,0.0
601,1.3351990945479848,0.0
602,1.6723461583304857,0.0
603,2.6708856278596773,0.0
604,3.009866500197291,0.0
605,3.802325151062752,0.0
606,4.319161720378327,0.0
607,5.881161629655595,0.0
608,7.624353310851799,0.0
609,8.396211963773604,0.0
610,7.492941825007763,0.0
611,7.361038472626385,0.0
612,5.779435305061431,0.0
613,4.071371684520127,0.0
614,2.376365070632237,0.0
615,0.7204091897951226,0.0
616,-0.9755265241294481,0.0
617,-1.9831215219616538,0.0
618,-2.308681152611079,0.0
619,-2.7961203732996984,0.0
620,-1.6264039417055982,0.0
621,-0.5053267766816434,0.0
622,0.8400704030353405,0.0
623,1.2343978245820708,0.0
624,2.068619108986634,0.0
625,1.3953389887663283,0.0
626,1.8975012554328194,0.0
627,0.883329552789225,0.0
628,0.8099157879300127,0.0
629,-0.016976824897626253,0.0
630,0.11520741951116487,0.0
631,0.17743720256012496,0.0
632,0.021328592305899896,0.0
633,0.40388081155535355,0.0
634,0.6113272403179872,0.0
635,0.7863085147682294,0.0
636,1.4712649855618039,0.0
637,0.7649463025931115,0.0
638,1.1155356421071583,0.0
639,0.8637401994575751,0.0
640,0.6089035207837761,0.0
641,0.8101664922417127,0.0
642,0.5467293857178884,0.0
643,1.2110160556166871,0.0
644,0.5516836795119334,0.0
645,0.4922064244525556,0.0
646,0.3109347726957927,0.0
647,0.975570517699155,0.0
648,0.7478346811399961,0.0
649,0.4818452399895935,0.0
650,0.865138812871179,0.0
651,1.4653432818640908,0.0
652,0.8252049062788509,0.0
653,0.20608385763648657,0.0
654,0.6446798617821179,0.0
655,0.9957229814157946,0.0
656,0.4362215876064979,0.0
657,0.9495809645142582,0.0
658,1.6435151585648005,0.0
659,0.936509062480034,0.0
660,0.6063144687504373,0.0
661,0.5725107021040624,0.0
662,0.39034929144270875,0.0
663,0.8659034535400322,0.0
664,0.6742933267561617,0.0
665,0.7887317465865249,0.0
666,0.38854021563153457,0.0
667,0.7631629024154278,0.0
668,0.9621828682731547,0.0
669,1.124289411296964,0.0
670,0.8751938891182434,0.0
671,0.8805290122543096,0.0
672,0.6685111063104571,0.0
673,1.2608460713460885,0.0
674,0.5147544571209811,0.0
675,0.7654939404717153,0.0
676,0.7161458459766977,0.0
677,1.3243380660612565,0.0
678,0.46922054935098145,0.0
679,0.9565428774031264,0.0
680,0.5149368422120638,0.0
681,1.2940605254165523,0.0
682,0.5875464984372859,0.0
683,0.8361768722005215,0.0
684,0.3592875362600402,0.0
685,0.6505638853902883,0.0
686,1.471258332491629,0.0
687,0.8523390173500985,0.0
688,0.47643900478361484,0.0
689,1.1927397877401902,0.0
690,0.8209398934134248,0.0
691,1.1554837926990529,0.0
692,1.1991803587774108,0.0
693,0.9891178061266296,0.0
694,0.4120927431915325,0.0
695,0.9719844875256433,0.0
696,1.1474669571620526,0.0
697,0.9051177811830945,0.0
698,0.8920212450531698,0.0
699,0.6234418926796483,0.0
700,1.2619168412725699,0.0
701,0.7601558214587476,0.0
702,2.3695684718470273,0.0
703,2.890003062404717,0.0
704,2.7770543984247285,0.0
705,4.518178175006204,0.0
706,5.663783394398211,0.0
707,5.881808405067999,0.0
708,7.379100804418953,0.0
709,7.914745668252784,0.0
710,7.711871641200405,0.0
711,7.2747624901155525,0.0
712,6.4546543479711245,0.0
713,4.736876270751432,0.0
714,2.9793712474513283,0.0
715,1.285060500953477,0.0
716,-0.5991465193926114,0.0
717,-2.1800784242977893,0.0
718,-1.5630395184176928,0.0
719,-1.988695627358941,0.0
720,-0.728292415719481,0.0
721,0.029605075880591913,0.0
722,0.7650079473065572,0.0
723,1.5630720732348145,0.0
724,2.235213716444023,0.0
725,2.6400410407941903,0.0
726,2.5732370554209893,0.0
727,1.8806650432768495,0.0
728,1.0296186130698075,0.0
729,0.6514724714474992,0.0
730,0.32087649738982094,0.0
731,0.2138076490663876,0.0
732,0.7089597884914227,0.0
733,0.41642203624960955,0.0
734,0.6902732005347592,0.0
735,0.8976373914993,0.0
736,1.8056376395797369,0.0
737,1.2637640707446032,0.0
738,1.2883491752542757,0.0
739,0.9441201783926929,0.0
740,0.7531240752045321,0.0
741,0.7886249702755287,0.0
742,1.2064600964285115,0.0
743,1.387236274503271,0.0
744,1.2648138529287414,0.0
745,0.884368310492587,0.0
746,1.385026654838346,0.0
747,1.1796350158785045,0.0
748,0.9701906847267987,0.0
749,1.401899266686146,0.0
750,1.418209284366362,0.0
751,1.4347011119767594,0.0
752,1.0041128808905624,0.0
753,1.2799453724969359,0.0
754,1.501064719053504,0.0
755,1.0770316377211109,0.0
756,1.042881979068108,0.0
757,1.444014172050527,0.0
758,1.0386435647415022,0.0
759,2.026992061313172,0.0
760,1.141695754745856,0.0
761,1.2301706423805945,0.0
762,0.7176633578580944,0.0
763,1.321022123531894,0.0
764,0.9841935194138768,0.0
765,0.9099321079651392,0.0
766,0.931642795103052,0.0
767,1.1692909022681617,0.0
768,1.0392979134813551,0.0
769,0.6743517299180058,0.0
770,1.39396234656954,0.0
771,1.099531082541022,0.0
772,0.8954769185732959,0.0
773,1.3144895395224252,0.0
774,1.8221009468356242,0.0
775,1.060932823796108,0.0
776,0.9897841649743474,0.0
777,1.2319517679152199,0.0
778,1.4470932964666203,0.0
779,1.0455395492340922,0.0
780,1.0016824748955326,0.0
781,1.201772438774625,0.0
782,1.4451915199595198,0.0
783,1.3225672960244284,0.0
784,1.1530506691216005,0.0
785,1.4948119141209755,0.0
786,1.654367992802461,0.0
787,1.1229742231240474,0.0
788,1.1776150544099728,0.0
789,1.0131000524985767,0.0
790,1.2573463080481968,0.0
791,1.0922875845619746,0.0
792,1.5450025292681575,0.0
793,0.897833447283773,0.0
794,1.270419586777984,0.0
795,1.0673382014638997,0.0
796,0.9541126558628469,0.0
797,1.1188445762553882,0.0
798,1.3880848848545824,0.0
799,1.4124621489756708,0.0
800,1.4338939388540015,0.0
801,1.6616837522041947,0.0
802,1.9525240088491513,0.0
803,2.7546046050996487,0.0
804,3.984706871059959,0.0
805,3.9744263878921613,0.0
806,5.195290593176258,0.0
807,6.726986632277028,0.0
808,7.391895774904484,0.0
809,8.771638812533581,0.0
810,8.392060620358627,0.0
811,7.987320991834897,0.0
812,6.892461609323043,0.0
813,5.496490678222974,0.0
814,2.7990774477636986,0.0
815,1.8318453610988292,0.0
816,-0.3593399809660798,0.0
817,-1.2467876105283484,0.0
818,-1.8459816175537815,0.0
819,-1.0891314161224506,0.0
820,-1.3506483710735067,0.0
821,0.17084550702996304,0.0
822,0.8983848352351195,0.0
823,2.40746612617452,0.0
824,2.7041310409966517,0.0
825,2.8695233653799055,0.0
826,3.0683038408440755,0.0
827,2.0631923083609056,0.0
828,1.4768531514023533,0.0
829,0.9848300503409199,0.0
830,1.2075427213930976,0.0
831,1.3320330528240345,0.0
832,1.1630256938659471,0.0
833,0.9900502502226056,0.0
834,1.6161063752188602,0.0
835,1.9511434704004178,0.0
836,1.6390424987163388,0.0
837,1.3714645935819847,0.0
838,1.6814486899970431,0.0
839,1.659927336512777,0.0
840,1.2789526856583002,0.0
841,1.5689170110786514,0.0
842,1.4072474415500849,0.0
843,1.6016937609439792,0.0
844,1.3624777573804558,0.0
845,1.3574164861466353,0.0
846,1.6350411033905674,0.0
847,1.5039848855585147,0.0
848,1.7278056856460111,0.0
849,1.7353618652353697,0.0
850,0.7303018191586925,0.0
851,1.4815212246697336,0.0
852,1.587672433412633,0.0
853,1.182512643004993,0.0
854,1.5736006409216647,0.0
855,1.0539076377544532,0.0
856,1.7833431501683603,0.0
857,0.9313531892083323,0.0
858,1.5604729778154878,0.0
859,1.9017722976577554,0.0
860,1.4394382448974847,0.0
861,1.2943165481713887,0.0
862,1.402852608914129,0.0
863,1.364910170726633,0.0
864,1.5416010056955287,0.0
865,1.5000756973350888,0.0
866,1.3138193420295534,0.0
867,1.670111593765436,0.0
868,1.154869415556148,0.0
869,1.486994840756024,0.0
870,1.4463972815914767,0.0
871,1.5308705305504635,0.0
872,1.6543241095196581,0.0
873,1.5617434911712087,0.0
874,1.6135523716930835,0.0
875,1.845144167242014,0.0
876,2.1443534226752083,0.0
877,1.7866470860386505,0.0
878,1.6450279519764452,0.0
879,1.629126229068623,0.0
880,1.3924962082717731,0.0
881,1.7636462032874887,0.0
882,1.7994244493621931,0.0
883,2.1391932332179993,0.0
884,1.6412412003956098,0.0
885,1.384773394502239,0.0
886,1.7497649538768731,0.0
887,1.8612919009350302,0.0
888,1.5210222020995916,0.0
889,1.4310140161531282,0.0
890,1.9467334383622434,0.0
891,1.8447894450115163,0.0
892,1.9920135597779576,0.0
893,1.2853051475789712,0.0
894,1.5769235843249088,0.0
895,1.2026901183927416,0.0
896,1.5686058056983185,0.0
897,1.756576783769458,0.0
898,1.7986651265310252,0.0
899,1.7778207629134142,0.0
900,2.344638002533482,0.0
901,1.943479223430488,0.0
902,1.9643411665656543,0.0
903,3.246058306642019,0.0
904,3.8943122591131516,0.0
905,4.863599116361641,0.0
906,5.963170358085458,0.0
907,7.140914538986558,0.0
908,8.132262278129843,0.0
909,8.690223745585417,0.0
910,8.969418171136097,0.0
911,7.796652285533768,0.0
912,6.965721044153888,0.0
913,5.624535490236033,0.0
914,3.8314877050128935,0.0
915,1.100955586744657,0.0
916,0.42930559587014905,0.0
917,-1.1204140276542924,0.0
918,-1.0109424965087084,0.0
919,-1.0078910997072443,0.0
920,-0.5039744269876127,0.0
921,0.2693753967529253,0.0
922,2.218662273809136,0.0
923,2.9479653572324773,0.0
924,2.9348772327847548,0.0
925,3.4544109549568196,0.0
926,3.3057431444527228,0.0
927,2.379821330336712,0.0
928,1.947656997695765,0.0
929,1.8608831725180373,0.0
930,0.7712615439790291,0.0
931,0.7994998773831872,0.0
932,0.9786176941661692,0.0
933,1.570670183897096,0.0
934,0.8990794744801976,0.0
935,2.1544107546086853,0.0
936,2.038315749391958,0.0
937,2.545152601037626,0.0
938,1.8628647098904714,0.0
939,1.9573461144660782,0.0
940,3.1159742562196984,0.0
941,1.9546801456750265,0.0
942,1.4936418976211236,0.0
943,1.8432509537629493,0.0
944,1.9899695105204804,0.0
945,1.9015734657950811,0.0
946,2.0223072197676695,0.0
947,1.676704093953118,0.0
948,1.9376024937887633,0.0
949,1.9247126781116286,0.0
950,1.4589697107794897,0.0
951,2.166883630788658,0.0
952,2.209532856224172,0.0
953,2.004982918770832,0.0
954,1.8927208234246495,0.0
955,2.1300287654602252,0.0
956,2.337405590234826,0.0
957,1.890619994004647,0.0
958,1.5052807594580868,0.0
959,2.148281172004608,0.0
960,1.4231597079632263,0.0
961,2.222341797659859,0.0
962,1.6410082788200095,0.0
963,2.0133005271315163,0.0
964,1.6201687677676622,0.0
965,2.0565612491389818,0.0
966,1.8891188899540408,0.0
967,1.9149495239637186,0.0
968,1.890582079250987,0.0
969,1.8042038323803846,0.0
970,1.896749068401623,0.0
971,1.9714176769355554,0.0
972,1.9994448429493612,0.0
973,1.6930129633253022,0.0
974,1.7353870639365392,0.0
975,2.171804104861383,0.0
976,1.7463763678114168,0.0
977,1.568036029112711,0.0
978,2.2585531059849364,0.0
979,1.9760438966661429,0.0
980,1.8000844531408524,0.0
981,1.7557887809119925,0.0
982,2.0965685294930605,0.0
983,2.327086098760188,0.0
984,2.0538876925006364,0.0
985,1.6322342640805028,0.0
986,1.7865529479264723,0.0
987,1.8609215342302585,0.0
988,1.6785991765589166,0.0
989,2.1131115237564435,0.0
990,1.6968670576905354,0.0
991,2.018236937531735,0.0
992,2.0277368679637884,0.0
993,1.9926672646425339,0.0
994,2.189420915590323,0.0
995,2.1364168624961053,0.0
996,1.8543354538784944,0.0
997,1.3101951928638627,0.0
998,2.0494139150695916,0.0
999,1.947523495684305,0.0
1000,2.2345650654486766,0.0
1001,2.1892368828156514,0.0
1002,3.1858348262623006,0.0
1003,3.4239038683280363,0.0
1004,4.080770936834661,0.0
1005,5.430359149845751,0.0
1006,6.76738927542036,0.0
1007,7.554496083867012,0.0
1008,8.304145971917011,0.0
1009,9.082061979529087,0.0
1010,8.84764399142682,0.0
1011,8.151014126139984,0.0
1012,7.343087909792152,0.0
1013,5.582190117371581,0.0
1014,4.371468571280653,0.0
1015,1.9893863684820885,0.0
1016,1.1006219444735923,0.0
1017,-0.6355554934339973,0.0
1018,-0.894660556641218,0.0
1019,-0.7640388546705021,0.0
1020,-0.28169170099648455,0.0
1021,1.0621329951009333,0.0
1022,2.410602695249266,0.0
1023,3.240420015778386,0.0
1024,3.421697546667434,0.0
1025,3.6519368243240464,0.0
1026,2.9911844539512455,0.0
1027,2.734425068730439,0.0
1028,2.0082843715620546,0.0
1029,1.417616075412091,0.0
1030,1.5357459900106414,0.0
1031,1.3920486031963721,0.0
1032,1.3699648982949753,0.0
1033,1.5568117458239028,0.0
1034,1.836843987434114,0.0
1035,1.905752755536943,0.0
1036,2.318644734761969,0.0
1037,2.8582317424164967,0.0
1038,2.6124661383598684,0.0
1039,2.0013014151526125,0.0
1040,2.5202289938197295,0.0
1041,2.3402931472561463,0.0
1042,1.7327698620935188,0.0
1043,2.2913571577153724,0.0
1044,1.540554286788382,0.0
1045,1.9988316186537078,0.0
1046,1.9409762663751724,0.0
1047,2.133030894057655,0.0
1048,2.7058695738733234,0.0
1049,2.2994019618606103,0.0
1050,2.345205609795632,0.0
1051,1.9819155255027754,0.0
1052,1.8556424750835716,0.0
1053,2.6099694337707557,0.0
1054,2.095855555851578,0.0
1055,1.9433933566048252,0.0
1056,1.8009405895431794,0.0
1057,1.7916775492741777,0.0
1058,1.906931063344705,0.0
1059,2.070839111083827,0.0
1060,2.002421658470148,0.0
1061,2.809267275240746,0.0
1062,1.923365213980922,0.0
1063,1.7590660887895888,0.0
1064,2.185774989265084,0.0
1065,1.8205709751531318,0.0
1066,1.8048895301454513,0.0
1067,2.427336971164115,0.0
1068,2.2807839885263284,0.0
1069,2.0782588961381228,0.0
1070,1.8951719487101517,0.0
1071,2.2096412095774896,0.0
1072,1.710233654389051,0.0
1073,2.3374551842610822,0.0
1074,1.4351280044983532,0.0
1075,1.9699903766930007,0.0
1076,2.2017913880162947,0.0
1077,2.3744616854488116,0.0
1078,2.244455153053674,0.0
1079,2.0787990968093095,0.0
1080,2.0070460728135777,0.0
1081,2.2849073407589486,0.0
1082,2.048603087781414,0.0
1083,2.177129929936485,0.0
1084,2.401372563704814,0.0
1085,2.3715356142280637,0.0
1086,2.4108400818909193,0.0
1087,1.6781506464549716,0.0
1088,1.9464087848375813,0.0
1089,2.0663363278950815,0.0
1090,2.708285133047165,0.0
1091,2.583208965291821,0.0
1092,1.966874830075812,0.0
1093,2.9343805708938024,0.0
1094,2.09806239454803,0.0
1095,3.0094139171447765,0.0
1096,2.293004617768789,0.0
1097,2.330591972609524,0.0
1098,2.668165250328253,0.0
1099,2.5300707811952043,0.0
1100,2.250438938523584,0.0
1101,2.811035984223833,0.0
1102,3.4480369928309296,0.0
1103,4.449464488807857,0.0
1104,4.62465225553089,0.0
1105,5.269375761478125,0.0
1106,6.330050828984795,0.0
1107,8.092471574053237,0.0
1108,8.223007730185456,0.0
1109,9.24475892545416,0.0
1110,9.890027159202969,0.0
1111,8.490556985756882,0.0
1112,7.273553532799667,0.0
1113,6.150157926222424,0.0
1114,4.909600386269984,0.0
1115,2.921315749491304,0.0
1116,1.4003705139147926,0.0
1117,-0.2812963635650867,0.0
1118,-0.5039131362671543,0.0
1119,-0.26309751005966575,0.0
1120,0.6629461712585591,0.0
1121,0.8596051166104688,0.0
1122,2.4410226302396265,0.0
1123,3.1477295816545814,0.0
1124,3.9029253040643574,0.0
1125,3.673507009695891,0.0
1126,3.344229151764967,0.0
1127,2.8556403352528994,0.0
1128,2.247156239951987,0.0
1129,2.151572990448246,0.0
1130,1.5254993330170241,0.0
1131,1.3942402108355982,0.0
1132,1.7273955858868666,0.0
1133,1.4386196360688575,0.0
1134,1.862155360621224,0.0
1135,1.8994859056446423,0.0
1136,2.5197584059478104,0.0
1137,2.9225991688098474,0.0
1138,2.573099813035994,0.0
1139,2.6140738069424208,0.0
1140,2.3490107515173295,0.0
1141,2.062520610947373,0.0
1142,1.998946101133781,0.0
1143,2.5129287068650044,0.0
1144,2.028935474387096,0.0
1145,2.107694345717108,0.0
1146,2.0066621680032615,0.0
1147,2.280054785803087,0.0
1148,2.3693009811695185,0.0
1149,2.405074103928996,0.0
1150,2.3641185321882237,0.0
1151,1.91748775283696,0.0
1152,3.0580426657952415,0.0
1153,2.361009908471204,0.0
1154,2.1328643301551864,0.0
1155,3.1263507040426948,0.0
1156,2.3799097978092814,0.0
1157,2.5718922280872736,0.0
1158,2.649880770048472,0.0
1159,2.3120133634025293,0.0
1160,2.7615165132503328,0.0
1161,2.7281360605295317,0.0
1162,1.9281232034091218,0.0
1163,2.335352500788122,0.0
1164,3.052932428791777,0.0
1165,2.9562379049034933,0.0
1166,2.8527968503074215,0.0
1167,2.5286801425290397,0.0
1168,2.624207909132381,0.0
1169,2.2620074114061923,0.0
1170,2.263463211620379,0.0
1171,2.8623990120053366,0.0
1172,2.768547717090766,0.0
1173,2.624495492945359,0.0
1174,2.7539606088112483,0.0
1175,2.594100191666389,0.0
1176,2.7433009755577547,0.0
1177,2.4848405562063967,0.0
1178,2.4635305928907973,0.0
1179,2.740572895250527,0.0
1180,2.905997430066379,0.0
1181,3.0754085876737918,0.0
1182,2.647684723736106,0.0
1183,2.844739298935484,0.0
1184,2.074292241345755,0.0
1185,1.9878596041547543,0.0
1186,2.6100423827843593,0.0
1187,2.514936146681502,0.0
1188,2.67002294959774,0.0
1189,2.1180574903721796,0.0
1190,2.5420086216894986,0.0
1191,2.2989924289450605,0.0
1192,1.9464182734001905,0.0
1193,2.3066720578088202,0.0
1194,2.9152933506428047,0.0
1195,2.7751488582163706,0.0
1196,2.5546182423885035,0.0
1197,2.7277453467585087,0.0
1198,2.6200808313174506,0.0
1199,2.4391842933153938,0.0
1200,3.2046707281417053,0.0
1201,2.8872506260906947,0.0
1202,2.9953824770041946,0.0
1203,3.6958543421402483,0.0
1204,4.563337978246411,0.0
1205,5.825174034580941,0.0
1206,7.152030319318408,0.0
1207,7.7110029549825345,0.0
1208,9.158671435635934,0.0
1209,9.51845548853349,0.0
1210,9.611071976961778,0.0
1211,8.715972624776278,0.0
1212,7.4289883629017694,0.0
1213,6.049807814613159,0.0
1214,4.482900945879939,0.0
1215,2.834420237370505,0.0
1216,1.1719661344506114,0.0
1217,0.23682690199909606,0.0
1218,-0.5788513028116373,0.0
1219,-0.20670471769076082,0.0
1220,0.7063256937016775,0.0
1221,2.006288097632254,0.0
1222,2.706868883836375,0.0
1223,3.641643190478819,0.0
1224,4.310141899969133,0.0
1225,4.337095223962775,0.0
1226,4.030819044878866,0.0
1227,3.170488554390799,0.0
1228,3.4753221458386356,0.0
1229,1.849395487416859,0.0
1230,1.7522418630680439,0.0
1231,2.0216640794602623,0.0
1232,1.7502633363126183,0.0
1233,2.1279616955848004,0.0
1234,2.7506803281402243,0.0
1235,2.1035075514070862,0.0
1236,2.3073235769782983,0.0
1237,2.7873476557449863,0.0
1238,2.9659482757243625,0.0
1239,2.9076855896401796,0.0
1240,2.813599118051644,0.0
1241,2.8392869824714557,0.0
1242,2.822898762698704,0.0
1243,2.5301536988405045,0.0
1244,2.348909715635487,0.0
1245,3.0195810312597002,0.0
1246,2.589936537710947,0.0
1247,3.4013773702089645,0.0
1248,2.387233834190343,0.0
1249,2.9400934906836276,0.0
1250,3.211969758691319,0.0
1251,2.7562551572951133,0.0
1252,3.8194504588041824,0.0
1253,2.7352157553851684,0.0
1254,3.374223393033355,0.0
1255,2.596309090918079,0.0
1256,2.57023704310565,0.0
1257,2.580812225136968,0.0
1258,2.7534099076079546,0.0
1259,2.429655353247523,0.0
1260,2.718202298840664,0.0
1261,2.8387271702626253,0.0
1262,2.846404069198112,0.0
1263,2.496003976514492,0.0
1264,2.646183610186329,0.0
1265,3.0251759757421826,0.0
1266,3.3057103641816687,0.0
1267,2.6974194938301297,0.0
1268,2.4725400597707416,0.0
1269,2.19977791401347,0.0
1270,2.9646326751687373,0.0
1271,2.90176733342328,0.0
1272,2.1579405332217627,0.0
1273,2.71670395475525,0.0
1274,2.930402231331498,0.0
1275,3.1585610690728942,0.0
1276,2.6826386472825683,0.0
1277,2.766659917574781,0.0
1278,3.174458270111323,0.0
1279,2.68265055893635,0.0
1280,2.725903634740407,0.0
1281,2.697084021380435,0.0
1282,2.9625513542125477,0.0
1283,2.9007430937028795,0.0
1284,2.792207083323746,0.0
1285,2.807369231950071,0.0
1286,2.0148034369974206,0.0
1287,3.042572577497366,0.0
1288,2.789203704560072,0.0
1289,3.040313847097058,0.0
1290,2.8593259368013224,0.0
1291,2.75890131521205,0.0
1292,2.0796945434455583,0.0
1293,3.1002487995629893,0.0
1294,2.7835315623933985,0.0
1295,3.0676159543947237,0.0
1296,2.8856157456121228,0.0
1297,2.9740895326421914,0.0
1298,2.8336013999904535,0.0
1299,3.2494032249503335,0.0
1300,2.9875999282178523,0.0
1301,3.89043798816574,0.0
1302,3.8987838988263013,0.0
1303,4.270173800791781,0.0
1304,5.158518663315732,0.0
1305,5.980553315050133,0.0
1306,7.194076011249969,0.0
1307,8.447029735179012,0.0
1308,9.409823602028663,0.0
1309,9.858780221430028,0.0
1310,9.965200211481829,0.0
1311,9.685075833699175,0.0
1312,8.44785826445505,0.0
1313,7.339021812488617,0.0
1314,5.561496771617714,0.0
1315,3.5631057302383558,0.0
1316,1.439279709812655,0.0
1317,0.9433341252740246,0.0
1318,-0.46175703506624544,0.0
1319,-0.0486188051541836,0.0
1320,1.0506245059967059,0.0
1321,1.227314811481287,0.0
1322,3.0652282548053735,0.0
1323,3.809929397265011,0.0
1324,4.524725942715937,0.0
1325,4.9937663485001575,0.0
1326,4.568791541181091,0.0
1327,4.583894766340746,0.0
1328,3.525163784708287,0.0
1329,3.107943510366534,0.0
1330,2.091097618303366,0.0
1331,2.0415900210115527,0.0
1332,2.4817991584176085,0.0
1333,2.271956703931556,0.0
1334,2.941500035879024,0.0
1335,2.9276647421145148,0.0
1336,3.1393327387106527,0.0
1337,3.4443810515070394,0.0
1338,3.6295835921867328,0.0
1339,2.950064595801516,0.0
1340,2.766943237228185,0.0
1341,2.9069208178832096,0.0
1342,2.917551260135231,0.0
1343,3.093521822513465,0.0
1344,2.7135003155477735,0.0
1345,3.152832368715593,0.0
1346,3.154129428103867,0.0
1347,3.107303234246617,0.0
1348,2.2684247253853314,0.0
1349,3.1022160288179297,0.0
1350,3.1246796996248203,0.0
1351,3.059354898969096,0.0
1352,2.815915492647866,0.0
1353,3.2295073161980494,0.0
1354,3.249553377453505,0.0
1355,3.4179552499340904,0.0
1356,2.151471754664114,0.0
1357,3.2955761164762802,0.0
1358,3.117693750407087,0.0
1359,3.160187203793706,0.0
1360,3.8522691456636204,0.0
1361,2.7799568789533207,0.0
1362,2.639453373919154,0.0
1363,3.585641850305299,0.0
1364,3.0258969844132357,0.0
1365,3.0402726767385095,0.0
1366,3.471041414785602,0.0
1367,3.0846829223306,0.0
1368,3.268904264830106,0.0
1369,3.0329471618774986,0.0
1370,2.651554984861795,0.0
1371,3.25448056281174,0.0
1372,3.454871438989723,0.0
1373,2.606443198166678,0.0
1374,2.8669825365560393,0.0
1375,3.0015786637038833,0.0
1376,3.308103718215602,0.0
1377,3.1316077999509697,0.0
1378,2.3050547717712817,0.0
1379,3.6856670363503112,0.0
1380,3.688091183681573,0.0
1381,3.3241576329305706,0.0
1382,3.4508200712673234,0.0
1383,2.920155346479428,0.0
1384,2.9727016875026475,0.0
1385,3.198077443528546,0.0
1386,2.8835548300584644,0.0
1387,3.202102109628525,0.0
1388,3.247871590185466,0.0
1389,3.01075620844399,0.0
1390,2.881622708892072,0.0
1391,3.355906503274368,0.0
1392,3.2214234223224403,0.0
1393,2.8673065056516847,0.0
1394,2.930343380744022,0.0
1395,3.057218231626264,0.0
1396,3.301379682956111,0.0
1397,3.1409304220428202,0.0
1398,3.2286763432446506,0.0
1399,3.797464151938709,0.0
1400,3.516052390112446,0.0
1401,4.020085119920331,0.0
1402,3.5948390116983515,0.0
1403,4.446625271650251,0.0
1404,5.1737575003584375,0.0
1405,5.815232077481503,0.0
1406,7.301766415332224,0.0
1407,8.247192671684152,0.0
1408,9.459462069832277,0.0
1409,10.248208299893319,0.0
1410,10.714652194885648,0.0
1411,9.444005983657515,0.0
1412,8.509272332201167,0.0
1413,7.079147400628425,0.0
1414,5.937696172456705,0.0
1415,3.3980664692124574,0.0
1416,2.0252872559239843,0.0
1417,0.7569585590518169,0.0
1418,-0.12992831003430805,0.0
1419,0.3910790388025811,0.0
1420,1.2577157770420238,0.0
1421,0.587805513579557,0.0
1422,2.927571048004459,0.0
1423,3.7848566088187905,0.0
1424,4.977156562209986,0.0
1425,5.239149329277097,0.0
1426,4.516372063528764,0.0
1427,3.87508527427089,0.0
1428,3.871488755566441,0.0
1429,3.239267417746844,0.0
1430,2.526681163227517,0.0
1431,2.008096270435714,0.0
1432,2.67607146207442,0.0
1433,2.579989951855601,0.0
1434,3.2061480565002776,0.0
1435,3.841095639207549,0.0
1436,3.5568178474891075,0.0
1437,3.5395891837166005,0.0
1438,3.5877356993577494,0.0
1439,3.7363925335717143,0.0
1440,3.262053717891814,0.0
1441,3.3398452166833112,0.0
1442,3.056243913325281,0.0
1443,3.5270046760233043,0.0
1444,3.0691848914613944,0.0
1445,2.459683249226951,0.0
1446,3.8701454500425583,0.0
1447,3.1608134865757638,0.0
1448,3.0447787793263528,0.0
1449,3.233257009089319,0.0
1450,2.837666800291141,0.0
1451,3.592249339685989,0.0
1452,3.14158660186327,0.0
1453,2.776867504804175,0.0
1454,3.845129977843792,0.0
1455,3.354825563981213,0.0
1456,3.3560186646845183,0.0
1457,3.3052369490766482,0.0
1458,3.4640893016391785,0.0
1459,3.8023900741688186,0.0
1460,3.389927685576052,0.0
1461,3.2189695078170466,0.0
1462,3.03806912819702,0.0
1463,3.441000051279739,0.0
1464,3.041772705648777,0.0
1465,2.79209462065139,0.0
1466,3.488683919214542,0.0
1467,3.301350023391437,0.0
1468,3.644306445907103,0.0
1469,2.7116493639299497,0.0
1470,3.350506466541191,0.0
1471,3.4616360998193505,0.0
1472,2.6331879561938183,0.0
1473,3.773368456380607,0.0
1474,3.514819069375504,0.0
1475,4.0411492069727855,0.0
1476,3.700087772289923,0.0
1477,3.140770057465594,0.0
1478,2.96254274078789,0.0
1479,3.120504628667012,0.0
1480,3.2404286381667333,0.0
1481,3.588123568241858,0.0
1482,3.2407300987180534,0.0
1483,3.8763127341102983,0.0
1484,3.8232536827050025,0.0
1485,2.835476620867676,0.0
1486,3.2100033107932053,0.0
1487,3.4297092942482506,0.0
1488,4.081085231356709,0.0
1489,3.1791397830386137,0.0
1490,3.899925809745487,0.0
1491,3.1374706862097845,0.0
1492,3.85318430929685,0.0
1493,2.806711228670226,0.0
1494,3.0446639340012127,0.0
1495,3.026849174468971,0.0
1496,3.6515178327566646,0.0
1497,3.4568327591458026,0.0
1498,3.219842983152791,0.0
1499,3.296570184371471,0.0
1500,3.7167985750769255,0.0
1501,4.054369160850613,0.0
1502,3.8440366961953356,0.0
1503,4.3981988928024895,0.0
1504,5.801864414018637,0.0
1505,7.204154916904482,0.0
1506,7.399545925566647,0.0
1507,8.49511195319908,0.0
1508,9.769202258210758,0.0
1509,10.273187485911135,0.0
1510,10.464657532452165,0.0
1511,9.964589429218279,0.0
1512,9.2788320249619,0.0
1513,7.195382852448413,0.0
1514,5.35680832909212,0.0
1515,3.697603364426617,0.0
1516,2.0808202887130665,0.0
1517,0.8435142790983878,0.0
1518,0.7990494365191516,0.0
1519,0.8415226559000848,0.0
1520,1.2842217135651963,0.0
1521,2.1670651150253706,0.0
1522,3.166835092794546,0.0
1523,4.390117442784927,0.0
1524,4.924325661106982,0.0
1525,5.133242743393004,0.0
1526,4.868011214641568,0.0
1527,4.579744609158634,0.0
1528,4.084471921107256,0.0
1529,3.323908174859463,0.0
1530,2.6117430514311306,0.0
1531,2.4108151057168974,0.0
1532,2.3897267828369104,0.0
1533,2.7351204888577083,0.0
1534,3.7118736672742436,0.0
1535,3.3017389876207495,0.0
1536,3.708973410416692,0.0
1537,3.2406564304286105,0.0
1538,4.086957231269919,0.0
1539,3.6539719319015083,0.0
1540,3.5216235823419204,0.0
1541,3.299236313807801,0.0
1542,3.663395270700456,0.0
1543,3.3175185170426005,0.0
1544,3.238948389558608,0.0
1545,3.4253930132773416,0.0
1546,4.009720756023362,0.0
1547,4.068663031630787,0.0
1548,3.7168545221067637,0.0
1549,4.167583155383879,0.0
1550,3.483993507024528,0.0
1551,3.450801590442336,0.0
1552,3.683227468505043,0.0
1553,2.8603983475188057,0.0
1554,3.369122060939724,0.0
1555,3.4774453806412122,0.0
1556,3.4378368344063372,0.0
1557,3.4308479834958705,0.0
1558,3.297313257314537,0.0
1559,3.6302208819778854,0.0
1560,3.046110727737691,0.0
1561,3.5141786949016276,0.0
1562,2.8258923332446733,0.0
1563,3.34913249495506,0.0
1564,3.3867267229300735,0.0
1565,3.49138655933811,0.0
1566,3.2925621604865114,0.0
1567,3.3118584764649475,0.0
1568,3.17567991867259,0.0
1569,3.248355888010582,0.0
1570,3.171738930688891,0.0
1571,3.564727023881771,0.0
1572,3.2138871845142116,0.0
1573,3.637496364055531,0.0
1574,3.6950583471293945,0.0
1575,3.6700631484676545,0.0
1576,3.7298096943209176,0.0
1577,3.6292973962685977,0.0
1578,3.6474321419048445,0.0
1579,3.5110652661784947,0.0
1580,3.5740844304857053,0.0
1581,3.514614014430353,0.0
1582,4.175651653557637,0.0
1583,3.976283478034335,0.0
1584,3.750727289025711,0.0
1585,4.12947926685071,0.0
1586,3.7932680729809274,0.0
1587,3.3861594067248277,0.0
1588,3.788704792905107,0.0
1589,3.734957312947335,0.0
1590,3.2494390867009337,0.0
1591,3.7139488162141805,0.0
1592,3.5258356662023465,0.0
1593,3.5698540854966696,0.0
1594,3.1320062085609663,0.0
1595,3.216388741039307,0.0
1596,3.644830046582974,0.0
1597,3.343537305477497,0.0
1598,3.654907857344327,0.0
1599,3.5766464029741973,0.0
1600,3.8570919329257327,0.0
1601,3.882169440538265,0.0
1602,4.448348724000907,0.0
1603,5.257804073981085,0.0
1604,6.2093092939399135,0.0
1605,6.142148645267621,0.0
1606,8.065124853918105,0.0
1607,9.299406449002653,0.0
1608,9.676874503843768,0.0
1609,10.241928141041566,0.0
1610,11.327098841425336,0.0
1611,9.698124846555265,0.0
1612,9.082439645949126,0.0
1613,8.078162313611704,0.0
1614,6.77133275447865,0.0
1615,4.372623651483967,0.0
1616,2.9913122427623176,0.0
1617,1.6774626380754643,0.0
1618,1.0271527183820357,0.0
1619,0.6728268026027187,0.0
1620,1.6221472378430652,0.0
1621,2.72254260148562,0.0
1622,3.467621614831041,0.0
1623,4.2362424651226345,0.0
1624,5.16848916447928,0.0
1625,5.125513690531038,0.0
1626,5.382265437109496,0.0
1627,5.0211119487789775,0.0
1628,4.404013038996908,0.0
1629,3.7668865963104596,0.0
1630,2.895348628140151,0.0
1631,3.0549026104843824,0.0
1632,2.9751510901446645,0.0
1633,3.1656845898766965,0.0
1634,3.811335348775625,0.0
1635,4.085158670935123,0.0
1636,4.04861145219281,0.0
1637,3.841097444286825,0.0
1638,4.1128621014228575,0.0
1639,3.990865881536016,0.0
1640,3.8844106084606254,0.0
1641,3.8772317255480333,0.0
1642,3.2955437788763073,0.0
1643,3.8348396821867623,0.0
1644,3.2788837792613448,0.0
1645,3.102685995128952,0.0
1646,3.3449379331017206,0.0
1647,3.6425373866357935,0.0
1648,3.251405442692819,0.0
1649,3.843745991600435,0.0
1650,4.113323743438436,0.0
1651,3.8014021412782064,0.0
1652,3.945959560766705,0.0
1653,3.625995898028659,0.0
1654,3.5544699368393977,0.0
1655,3.8703516847182042,0.0
1656,3.6909696784044974,0.0
1657,3.512832085847456,0.0
1658,3.3481354291286944,0.0
1659,3.73907787649374,0.0
1660,3.5354351487255125,0.0
1661,3.301943101933768,0.0
1662,3.839702358994865,0.0
1663,3.8097273345377007,0.0
1664,3.7922481584968017,0.0
1665,4.066219871761563,0.0
1666,3.6825001516770035,0.0
1667,3.8800341000892296,0.0
1668,3.8179498668365532,0.0
1669,3.4354814581191984,0.0
1670,3.3676723168475737,0.0
1671,4.255983847677583,0.0
1672,3.826063167032401,0.0
1673,4.07235023320454,0.0
1674,3.970382711630846,0.0
1675,3.6522407278185685,0.0
1676,4.480497526352142,0.0
1677,3.9779102351183924,0.0
1678,4.1119055300086815,0.0
1679,3.80704780642476,0.0
1680,3.5412003361630062,0.0
1681,3.977328210085822,0.0
1682,4.037849148752719,0.0
1683,3.9758733943631888,0.0
1684,3.8911537931441718,0.0
1685,3.9504809214544254,0.0
1686,4.112213762173765,0.0
1687,4.051925639340317,0.0
1688,4.3097991253733525,0.0
1689,3.906958445064277,0.0
1690,4.06622975769002,0.0
1691,3.7662536884599893,0.0
1692,3.632729538406629,0.0
1693,3.8949148185212903,0.0
1694,3.767160409622832,0.0
1695,4.203734469054894,0.0
1696,4.012689186646045,0.0
1697,4.158138799776755,0.0
1698,4.047438756242597,0.0
1699,4.17297565727981,0.0
1700,4.305560597606165,0.0
1701,4.711078774580217,0.0
1702,4.710369827197343,0.0
1703,5.753109834550033,0.0
1704,6.31400534475469,0.0
1705,7.06138915377657,0.0
1706,8.203489289554605,0.0
1707,9.030221767571009,0.0
1708,10.20223920183284,0.0
1709,10.797247088437578,0.0
1710,10.909756280385668,0.0
1711,11.218572725740952,0.0
1712,9.810172351348532,0.0
1713,7.639698401298746,0.0
1714,6.43918214902194,0.0
1715,4.885279111095043,0.0
1716,2.72212854541879,0.0
1717,1.3142032881301215,0.0
1718,1.060354558624665,0.0
1719,0.401211480423199,0.0
1720,1.7378599480903616,0.0
1721,3.067255822548586,0.0
1722,3.5462896954647416,0.0
1723,5.117313055961767,0.0
1724,5.6403007258279985,0.0
1725,5.907702015284323,0.0
1726,4.805323427308502,0.0
1727,5.4968428727159235,0.0
1728,4.348044947263937,0.0
1729,4.44174403151212,0.0
1730,3.6869515523827507,0.0
1731,3.2691651680616545,0.0
1732,4.1386901758014405,0.0
1733,3.799876044092221,0.0
1734,3.4194208325280786,0.0
1735,3.67773268617703,0.0
1736,4.320678640553072,0.0
1737,4.2862209026024205,0.0
1738,4.419208454546869,0.0
1739,4.316572867730175,0.0
1740,4.074158762046779,0.0
1741,4.29776894230732,0.0
1742,4.046458524313057,0.0
1743,3.6350255398217426,0.0
1744,3.634922469728326,0.0
1745,3.9037922914176915,0.0
1746,4.422321564080712,0.0
1747,4.589096441737264,0.0
1748,3.5908715526129478,0.0
1749,3.774691816082918,0.0
1750,4.1390522681706186,0.0
1751,4.095309095137123,0.0
1752,4.175006415795786,0.0
1753,4.107531103427206,0.0
1754,3.763716821942608,0.0
1755,4.351487411579268,0.0
1756,3.932966184065789,0.0
1757,4.927667351697285,0.0
1758,3.7908204194571855,0.0
1759,4.1405065777138415,0.0
1760,4.645399592962184,0.0
1761,3.879019641190887,0.0
1762,4.619857156807001,0.0
1763,4.162433658962217,0.0
1764,4.375306059097017,0.0
1765,4.233249239644889,0.0
1766,4.387949364983361,0.0
1767,4.061180550306369,0.0
1768,3.701256600578761,0.0
1769,4.819640759331219,0.0
1770,3.8626534701821766,0.0
1771,4.011259093334858,0.0
1772,4.716267897889518,0.0
1773,3.9071856749218066,0.0
1774,3.891317700520123,0.0
1775,4.0342872107807,0.0
1776,3.7788303207049347,0.0
1777,4.641300256094292,0.0
1778,3.8137677648231327,0.0
1779,3.406269081983202,0.0
1780,4.007743746183015,0.0
1781,4.134097602033769,0.0
1782,3.911506022072533,0.0
1783,4.46952924602687,0.0
1784,3.641071829419617,0.0
1785,4.042167954208699,0.0
1786,3.8706507710358737,0.0
1787,4.511682641652178,0.0
1788,4.230804579788327,0.0
1789,3.8373226140274923,0.0
1790,3.9180044451810065,0.0
1791,3.9588411463767357,0.0
1792,4.268953314516478,0.0
1793,4.161427216656318,0.0
1794,4.729480559384472,0.0
1795,4.397539489609657,0.0
1796,4.498649665783909,0.0
1797,4.653237419398563,0.0
1798,4.7706431909251545,0.0
1799,4.480710343758689,0.0
1800,4.530300345597885,0.0
1801,4.841746483021841,0.0
1802,5.240082430769377,0.0
1803,5.550282045493079,0.0
1804,6.401448922128905,0.0
1805,7.2994954987323135,0.0
1806,8.880110608717764,0.0
1807,9.847122089314674,0.0
1808,10.326784777785152,0.0
1809,10.892238431739436,0.0
1810,11.261477854972249,0.0
1811,10.87489026333171,0.0
1812,9.409478849539418,0.0
1813,8.510336557929477,0.0
1814,6.273079097457605,0.0
1815,4.775035120529792,0.0
1816,2.647838362953812,0.0
1817,1.949509502779172,0.0
1818,1.069031882351867,0.0
1819,1.3228143848473835,0.0
1820,1.9090588354793532,0.0
1821,2.9391251550529356,0.0
1822,4.306104511005136,0.0
1823,5.3441547537862455,0.0
1824,5.920585063866043,0.0
1825,6.293772967343151,0.0
1826,6.137441833070809,0.0
1827,4.9760185006076325,0.0
1828,4.570821208960191,0.0
1829,4.347149734632483,0.0
1830,3.613228366864508,0.0
1831,3.541398215154815,0.0
1832,3.9498504137376202,0.0
1833,3.7800692959279045,0.0
1834,3.686017589417949,0.0
1835,3.574910002952076,0.0
1836,4.078599189512974,0.0
1837,4.41227826655882,0.0
1838,4.615740290413965,0.0
1839,4.628527225206184,0.0
1840,4.056176018253828,0.0
1841,4.7282342102673605,0.0
1842,3.960780633643278,0.0
1843,4.224523732923228,0.0
1844,4.4223711759772835,0.0
1845,4.366146996470847,0.0
1846,3.8746525170940735,0.0
1847,3.924018378213755,0.0
1848,4.384395495040751,0.0
1849,4.142632947404972,0.0
1850,4.148050128373111,0.0
1851,4.175718132125655,0.0
1852,4.0286437626107,0.0
1853,4.207830026896455,0.0
1854,3.6365838423435326,0.0
1855,4.12493220284539,0.0
1856,4.407544389973718,0.0
1857,4.6319323460900375,0.0
1858,4.204500352340146,0.0
1859,4.773341836722739,0.0
1860,4.418544502151104,0.0
1861,4.198264557309115,0.0
1862,4.451552172718182,0.0
1863,4.783032971237913,0.0
1864,4.574093398185982,0.0
1865,4.876861465319345,0.0
1866,4.196586351708883,0.0
1867,4.550389583458691,0.0
1868,4.1598576703391466,0.0
1869,4.33663040311624,0.0
1870,4.384313272627928,0.0
1871,4.559210625410428,0.0
1872,4.281057786774339,0.0
1873,4.288021114001265,0.0
1874,4.629487505844393,0.0
1875,3.474259242573458,0.0
1876,3.922350900018065,0.0
1877,3.7065101753341714,0.0
1878,4.748512621507606,0.0
1879,4.954598438059674,0.0
1880,4.3300179887225205,0.0
1881,4.747613025747127,0.0
1882,4.198185259944049,0.0
1883,3.544816382828264,0.0
1884,4.622343374012129,0.0
1885,4.918321627327452,0.0
1886,4.833815080285867,0.0
1887,4.174903438403478,0.0
1888,4.303701629013298,0.0
1889,4.933039582565672,0.0
1890,4.936109889716753,0.0
1891,4.73809809995242,0.0
1892,4.309818928987475,0.0
1893,4.769234917799479,0.0
1894,5.010594672297652,0.0
1895,4.667028416787121,0.0
1896,4.146366136635331,0.0
1897,4.055853407801925,0.0
1898,4.2806357636615395,0.0
1899,4.523991771691279,0.0
1900,4.278641979262248,0.0
1901,5.232521228820327,0.0
1902,4.837704095541479,0.0
1903,6.135658837772777,0.0
1904,6.44684952746633,0.0
1905,7.159149974512532,0.0
1906,8.605638323596871,0.0
1907,9.257767394471092,0.0
1908,10.410955378205236,0.0
1909,10.97633881740179,0.0
1910,11.536899808574336,0.0
1911,11.281214849965762,0.0
1912,10.187488143217909,0.0
1913,8.296008877192094,0.0
1914,6.999982236973084,0.0
1915,5.142028612029482,0.0
1916,3.262005137258847,0.0
1917,2.504697187427229,0.0
1918,1.3179076598281885,0.0
1919,1.6323322948924797,0.0
1920,1.9731676624646144,0.0
1921,3.132533829632056,0.0
1922,4.185549239348238,0.0
1923,5.406018038359331,0.0
1924,6.240757953245344,0.0
1925,6.116204721901561,0.0
1926,6.370095886128324,0.0
1927,5.575976281606936,0.0
1928,4.692526892429087,0.0
1929,3.916144742264514,0.0
1930,3.955198521742733,0.0
1931,3.6613266857588025,0.0
1932,2.9489401429524467,0.0
1933,3.418408403728062,0.0
1934,4.319397464724105,0.0
1935,4.619313807830674,0.0
1936,4.511190240960077,0.0
1937,5.147312723229369,0.0
1938,4.6772447785033995,0.0
1939,4.871850552561683,0.0
1940,4.7194469225883395,0.0
1941,4.447462882261267,0.0
1942,4.305665510602924,0.0
1943,4.790938223812074,0.0
1944,4.401168065359556,0.0
1945,4.2454533871175455,0.0
1946,4.030198938607107,0.0
1947,4.683762415989025,0.0
1948,4.3119461736952855,0.0
1949,4.453850234852632,0.0
1950,4.517133407336956,0.0
1951,4.6729638990662306,0.0
1952,4.176204578398851,0.0
1953,4.308550270484596,0.0
1954,4.443609493410915,0.0
1955,4.517363866882633,0.0
1956,4.674014970901474,0.0
1957,3.9334140791244994,0.0
1958,4.042490768649486,0.0
1959,4.267138852057956,0.0
1960,4.453092346263277,0.0
1961,4.177387443312736,0.0
1962,3.926983977397176,0.0
1963,4.841095005165615,0.0
1964,4.619202975893951,0.0
1965,4.795553200181089,0.0
1966,4.220715907793076,0.0
1967,4.767326314377376,0.0
1968,5.041956241731724,0.0
1969,4.683784556129334,0.0
1970,4.664050505764975,0.0
1971,4.2835134785217654,0.0
1972,4.898100909568411,0.0
1973,4.577435485044613,0.0
1974,4.253937480488459,0.0
1975,4.053957458637526,0.0
1976,4.622206236368016,0.0
1977,4.951255061657378,0.0
1978,4.3319392440792415,0.0
1979,4.686773730648827,0.0
1980,4.275210364976944,0.0
1981,3.7988372046051513,0.0
1982,4.301165635529629,0.0
1983,4.679429405577933,0.0
1984,5.09320034099611,0.0
1985,4.410735793398572,0.0
1986,4.892543380634287,0.0
1987,4.106506381780309,0.0
1988,4.820440860628973,0.0
1989,5.048997792537114,0.0
1990,4.329920797887115,0.0
1991,4.321656723588785,0.0
1992,4.930482599477367,0.0
1993,4.869016979734113,0.0
1994,4.572604911245998,0.0
1995,4.32461982987577,0.0
1996,4.827281206718419,0.0
1997,4.958055073761113,0.0
1998,4.274172249969169,0.0
1999,4.201784283162027,0.0
2000,4.546944395558468,0.0
2001,5.028266595410422,0.0
2002,5.070400866296255,0.0
2003,5.834307637454689,0.0
2004,6.657957024797284,0.0
2005,7.097074472870913,0.0
2006,9.258005527052527,0.0
2007,10.253795500837914,0.0
2008,10.768484553417624,0.0
2009,11.207202534135867,0.0
2010,12.149815907467795,0.0
2011,10.707388147937259,0.0
2012,10.119185944656252,0.0
2013,8.314372445256868,0.0
2014,6.679640644645307,0.0
2015,5.751448081040293,0.0
2016,3.1971097448621397,0.0
2017,2.3997953817391076,0.0
2018,1.9768809251173782,0.0
2019,1.4226312633998388,0.0
2020,1.9017042422456374,0.0
2021,2.8328406116714078,0.0
2022,4.267166244577658,0.0
2023,5.214139693566629,0.0
2024,5.834615645564362,0.0
2025,6.48581678621982,0.0
2026,5.38085954679567,0.0
2027,5.3502474084428036,0.0
2028,4.541508780166102,0.0
2029,4.4743366902109445,0.0
2030,4.094036605155176,0.0
2031,3.780426814216982,0.0
2032,4.088212260126547,0.0
2033,4.424606120725975,0.0
2034,4.340626918017623,0.0
2035,4.517620304734876,0.0
2036,5.52045214642427,0.0
2037,4.146507566514484,0.0
2038,4.846342345225036,0.0
2039,4.631210086859881,0.0
2040,5.00094483402717,0.0
2041,4.831326907772668,0.0
2042,4.335804302604954,0.0
2043,4.117789938901959,0.0
2044,4.304422636521189,0.0
2045,4.232272072901139,0.0
2046,4.6072891932987545,0.0
2047,5.001091039743867,0.0
2048,4.335958616529835,0.0
2049,4.711843644848865,0.0
2050,4.980660118324448,0.0
2051,4.9154251827445155,0.0
2052,4.696750528210601,0.0
2053,4.8241844351883305,0.0
2054,4.677740385251071,0.0
2055,4.747166072991323,0.0
2056,4.994993542010501,0.0
2057,4.854238489528803,0.0
2058,4.935189598729265,0.0
2059,4.530928528527404,0.0
2060,4.896003515944582,0.0
2061,4.674346070196792,0.0
2062,4.166367800970772,0.0
2063,4.475754577552499,0.0
2064,4.570111598708222,0.0
2065,4.452091889950159,0.0
2066,4.547180254156298,0.0
2067,4.747098840903893,0.0
2068,4.627591496607346,0.0
2069,5.3498040204550925,0.0
2070,5.225934617315393,0.0
2071,4.9448781422058925,0.0
2072,4.501079857136697,0.0
2073,4.846332314879263,0.0
2074,4.690891272336078,0.0
2075,5.448832809933553,0.0
2076,4.360920296810816,0.0
2077,4.497672865329718,0.0
2078,5.114467963655932,0.0
2079,5.0181943243913745,0.0
2080,4.592031654324996,0.0
2081,4.823054153141238,0.0
2082,5.028088543893398,0.0
2083,4.658600515459614,0.0
2084,4.101136121225447,0.0
2085,5.059007505825862,0.0
2086,4.411096635590963,0.0
2087,4.387685685862283,0.0
2088,4.9123302971772285,0.0
2089,4.4908557123102675,0.0
2090,4.992312438036533,0.0
2091,4.559765889592903,0.0
2092,4.7306186096054095,0.0
2093,5.052813215265774,0.0
2094,5.093456713352733,0.0
2095,5.155063700609126,0.0
2096,4.247706887551279,0.0
2097,5.314266744686412,0.0
2098,4.672236967819021,0.0
2099,5.136500223939595,0.0
2100,5.182191030285616,0.0
2101,5.57822676392546,0.0
2102,5.584167180769333,0.0
2103,6.597083551905269,0.0
2104,6.781012293190161,0.0
2105,7.716167450086543,0.0
2106,9.20991624812055,0.0
2107,10.058528811898611,0.0
2108,10.618122368798137,0.0
2109,12.018729885413727,0.0
2110,11.548640823273011,0.0
2111,11.316159511937425,0.0
2112,10.750746749706767,0.0
2113,8.697480034591631,0.0
2114,7.273859313062433,0.0
2115,5.5127513063148035,0.0
2116,3.1483390550113937,0.0
2117,2.3282081714241207,0.0
2118,2.605668988616136,0.0
2119,2.168000907603198,0.0
2120,2.3258171066467854,0.0
2121,3.2926764542019855,0.0
2122,4.449014020547314,0.0
2123,5.464042291292503,0.0
2124,6.082381106643337,0.0
2125,6.574374552852362,0.0
2126,7.160272764106657,0.0
2127,5.951417834517084,0.0
2128,5.2868190237129005,0.0
2129,4.433429045612516,0.0
2130,4.034297463803554,0.0
2131,4.225916257282986,0.0
2132,4.447417563428257,0.0
2133,4.101950773690417,0.0
2134,4.794226640710046,0.0
2135,4.662379102978097,0.0
2136,4.950291923646432,0.0
2137,4.796016499634298,0.0
2138,5.368946520638312,0.0
2139,5.040299694341154,0.0
2140,5.06942475068363,0.0
2141,5.454114011702166,0.0
2142,3.796308839124798,0.0
2143,4.401383786837374,0.0
2144,5.077713655154761,0.0
2145,4.9434297332487676,0.0
2146,5.338239569937046,0.0
2147,5.147446129643375,0.0
2148,4.984497736062114,0.0
2149,4.771298035178295,0.0
2150,4.623518867729661,0.0
2151,4.601363625717527,0.0
2152,4.594576260165847,0.0
2153,4.642006194810417,0.0
2154,4.624742181327907,0.0
2155,5.076106020103129,0.0
2156,4.740410978993635,0.0
2157,4.639845748604756,0.0
2158,5.104607136914542,0.0
2159,4.93295570000707,0.0
2160,5.426380972912236,0.0
2161,4.837218168097021,0.0
2162,4.710282416415232,0.0
2163,4.941158308842845,0.0
2164,4.79730312950225,0.0
2165,4.7643797452700865,0.0
2166,5.405485511169784,0.0
2167,4.9577106876325905,0.0
2168,4.547992834515546,0.0
2169,4.769330317833467,0.0
2170,5.278046847471976,0.0
2171,4.516212459637773,0.0
2172,4.462243241100619,0.0
2173,5.314993460622421,0.0
2174,5.04222105504716,0.0
2175,4.55542875546003,0.0
2176,5.018233363530629,0.0
2177,5.337098485686794,0.0
2178,5.435728720993745,0.0
2179,4.971523844615454,0.0
2180,5.0294176193454705,0.0
2181,4.944582137171697,0.0
2182,5.061425975466314,0.0
2183,5.066001592002013,0.0
2184,4.635893276441212,0.0
2185,5.150111840193226,0.0
2186,5.5041311675579205,0.0
2187,4.450068315330929,0.0
2188,5.17279698614943,0.0
2189,5.4314833005182965,0.0
2190,4.3971967514926344,0.0
2191,5.231061677023784,0.0
2192,5.2486133603267975,0.0
2193,5.141037928861216,0.0
2194,4.707259195162736,0.0
2195,5.018547186683101,0.0
2196,5.454724965126741,0.0
2197,4.608870827568929,0.0
2198,4.840241062533087,0.0
2199,5.329061040533757,0.0
2200,5.405174873065145,0.0
2201,5.1260221531151995,0.0
2202,5.76045545058628,0.0
2203,6.168021546777954,0.0
2204,6.925333655466136,0.0
2205,7.546126141251545,0.0
2206,9.093038340872488,0.0
2207,10.027413964969057,0.0
2208,10.64647188541689,0.0
2209,11.229178707485957,0.0
2210,11.685085036930278,0.0
2211,11.478543567222188,0.0
2212,10.656949964322113,0.0
2213,8.699376020793153,0.0
2214,7.411116597986416,0.0
2215,5.883589135467642,0.0
2216,3.8905662443558193,0.0
2217,2.0380278346953618,0.0
2218,2.2039301170435928,0.0
2219,2.45525316711923,0.0
2220,2.5604086509651363,0.0
2221,3.3847708084797183,0.0
2222,4.633315816031216,0.0
2223,5.892706922035609,0.0
2224,6.09489092232919,0.0
2225,6.68258873364471,0.0
2226,6.695663181525399,0.0
2227,6.214765161579544,0.0
2228,5.608495181567068,0.0
2229,4.489823078187554,0.0
2230,4.3320533597362765,0.0
2231,4.55500280180438,0.0
2232,4.837045922030473,0.0
2233,4.493223860456693,0.0
2234,4.67996460323754,0.0
2235,5.62405709005578,0.0
2236,5.907435482195226,0.0
2237,5.726121056255487,0.0
2238,5.360751393422018,0.0
2239,5.211278449496746,0.0
2240,5.2124377408748686,0.0
2241,5.257515088668034,0.0
2242,4.819910207604694,0.0
2243,5.3387814075031725,0.0
2244,4.66207922105289,0.0
2245,4.947842345130848,0.0
2246,4.731250860052612,0.0
2247,5.571963058577894,0.0
2248,4.837450157942489,0.0
2249,5.189211152541449,0.0
2250,4.9887782634717395,0.0
2251,4.9087902941669865,0.0
2252,5.282350787573487,0.0
2253,4.905051039018893,0.0
2254,4.980554045064769,0.0
2255,5.5250368072478375,0.0
2256,5.545350600512089,0.0
2257,5.489134022255418,0.0
2258,4.682585686476244,0.0
2259,5.308867672859299,0.0
2260,4.963078371384695,0.0
2261,5.085539882064352,0.0
2262,5.187382469805071,0.0
2263,5.065188416071876,0.0
2264,4.998269447458057,0.0
2265,4.705757370339689,0.0
2266,5.198753037499785,0.0
2267,4.952103324999905,0.0
2268,4.9177326168740905,0.0
2269,4.74922610166384,0.0
2270,5.034197735604508,0.0
2271,5.492637847170036,0.0
2272,5.354701946701361,0.0
2273,4.6436840062019495,0.0
2274,5.066807377922731,0.0
2275,5.141329447916561,0.0
2276,5.461536212344701,0.0
2277,4.926373711461128,0.0
2278,5.164188682698287,0.0
2279,5.48974033961917,0.0
2280,5.247201681468527,0.0
2281,4.903884832369701,0.0
2282,5.298483565160468,0.0
2283,4.749018545019057,0.0
2284,4.896955299719593,0.0
2285,5.207614864303043,0.0
2286,6.032501481308217,0.0
2287,5.5587428120722455,0.0
2288,5.269903683963382,0.0
2289,4.62866687914422,0.0
2290,5.351602088749252,0.0
2291,4.68025242878893,0.0
2292,5.481756520398571,0.0
2293,5.430574036773202,0.0
2294,5.4345217445859015,0.0
2295,4.976615813819403,0.0
2296,4.899930660825826,0.0
2297,4.940498776661295,0.0
2298,5.217795788691642,0.0
2299,5.374088374200595,0.0
2300,5.435814918144036,0.0
2301,5.524048316958955,0.0
2302,5.9559065104117455,0.0
2303,6.038896259557575,0.0
2304,7.1425437566110705,0.0
2305,7.890118431321518,0.0
2306,9.139898125175515,0.0
2307,9.994388022899749,0.0
2308,11.312504762070885,0.0
2309,11.680087035986983,0.0
2310,12.11073896935514,0.0
2311,11.815047019458188,0.0
2312,11.273746135822282,0.0
2313,9.517963898316196,0.0
2314,7.28417430931596,0.0
2315,6.390713425897802,0.0
2316,4.316138219484017,0.0
2317,2.9896575592823376,0.0
2318,2.3440812832738986,0.0
2319,2.3988137841900206,0.0
2320,2.879416695619453,0.0
2321,3.8427529599491113,0.0
2322,4.1911030752667,0.0
2323,5.116456999446168,0.0
2324,6.678682883138697,0.0
2325,6.973858537749359,0.0
2326,6.31468323230556,0.0
2327,6.064692665784968,0.0
2328,5.933797749950384,0.0
2329,5.207281724238985,0.0
2330,4.745280938579133,0.0
2331,4.4190012737459385,0.0
2332,4.551615645495871,0.0
2333,4.618583760085662,0.0
2334,5.020872754988072,0.0
2335,5.48153990444371,0.0
2336,4.947436391617348,0.0
2337,5.694862400935267,0.0
2338,5.771130754828744,0.0
2339,5.371983936375665,0.0
2340,5.73759345731185,0.0
2341,5.364714044167059,0.0
2342,5.430809074510499,0.0
2343,5.4860133891525615,0.0
2344,5.388366305315337,0.0
2345,4.653598412268814,0.0
2346,5.535968409020079,0.0
2347,5.874118329370698,0.0
2348,4.999492969802608,0.0
2349,5.437748620818114,0.0
2350,5.344456795646368,0.0
2351,5.754978932830325,0.0
2352,5.777622497473553,0.0
2353,5.350153094836495,0.0
2354,4.974996008870628,0.0
2355,6.112144962735702,0.0
2356,4.713762518462397,0.0
2357,5.356948930221472,0.0
2358,5.573731735001298,0.0
2359,5.212078263545806,0.0
2360,5.043912446888051,0.0
2361,5.327461772944197,0.0
2362,5.071996149351512,0.0
2363,5.113993463939512,0.0
2364,5.310906073721099,0.0
2365,5.3239879047454055,0.0
2366,5.1271681834795535,0.0
2367,5.341540889819703,0.0
2368,5.784397027449311,0.0
2369,5.402220034072009,0.0
2370,5.252966107969418,0.0
2371,5.291083781845418,0.0
2372,5.059696315764567,0.0
2373,4.98020804420008,0.0
2374,5.25661157081073,0.0
2375,5.2830170631854685,0.0
2376,5.441553187710593,0.0
2377,5.587822538415402,0.0
2378,5.596633879235746,0.0
2379,5.5670600862462,0.0
2380,5.698324951505735,0.0
2381,5.648564594124175,0.0
2382,5.177379749600592,0.0
2383,4.987545663784689,0.0
2384,4.783361486353127,0.0
2385,5.518041154153371,0.0
2386,5.159744635512093,0.0
2387,5.712700456460574,0.0
2388,4.774238400933156,0.0
2389,5.646572709880802,0.0
2390,5.635149451448022,0.0
2391,6.1684127312002985,0.0
2392,5.59742342755165,0.0
2393,5.788967070563965,0.0
2394,5.093883065649665,0.0
2395,5.508224332396611,0.0
2396,5.467820283038944,0.0
2397,5.0564053939215725,0.0
2398,5.166039044819889,0.0
2399,5.330748983132587,0.0
2400,5.362034074525422,0.0
2401,5.750113194891398,0.0
2402,5.928566469484523,0.0
2403,6.94605477594693,0.0
2404,7.7871153829375155,0.0
2405,8.366991108813307,0.0
2406,9.761740215316882,0.0
2407,10.827589140420107,0.0
2408,11.102864253468148,0.0
2409,12.179186191369093,0.0
2410,12.411636949974678,0.0
2411,11.89985550423038,0.0
2412,11.432168090700127,0.0
2413,9.413421101129176,0.0
2414,7.855961517804829,0.0
2415,6.369576039294829,0.0
2416,3.9727515019913087,0.0
2417,2.946201415930596,0.0
2418,2.5797053551489264,0.0
2419,2.5066932885614057,0.0
2420,2.9224447428784712,0.0
2421,3.271107851951495,0.0
2422,5.015049942831269,0.0
2423,6.200595040310889,0.0
2424,7.067499373943188,0.0
2425,6.884369142307298,0.0
2426,6.88506406796076,0.0
2427,6.028987378572149,0.0
2428,5.695806213140493,0.0
2429,5.101627067731209,0.0
2430,5.147554577749586,0.0
2431,4.759122879609769,0.0
2432,4.919856053824152,0.0
2433,4.406056405360502,0.0
2434,5.194732855172637,0.0
2435,5.378927481572087,0.0
2436,5.185904394758608,0.0
2437,5.904233698740021,0.0
2438,6.143912903154465,0.0
2439,5.606782200230332,0.0
2440,5.161009476550554,0.0
2441,5.204761535909652,0.0
2442,5.358668899656896,0.0
2443,5.990026988189663,0.0
2444,5.187166413656258,0.0
2445,5.9154787340489,0.0
2446,5.3476339511912165,0.0
2447,5.512543114686751,0.0
2448,5.155714397083003,0.0
2449,5.800770524252076,0.0
2450,5.004106973451197,0.0
2451,5.33140529378288,0.0
2452,5.642226714737586,0.0
2453,5.150610235335787,0.0
2454,6.007912982952304,0.0
2455,5.489459123865429,0.0
2456,5.105055370365582,0.0
2457,5.88021295967287,0.0
2458,5.067539210326358,0.0
2459,5.783655368919047,0.0
2460,5.632913497863844,0.0
2461,4.887026771283497,0.0
2462,6.148217782841681,0.0
2463,5.410270776333889,0.0
2464,5.643543344776229,0.0
2465,5.418000234912586,0.0
2466,5.196251743082994,0.0
2467,5.420329430018557,0.0
2468,5.416000857705166,0.0
2469,5.069064904314814,0.0
2470,5.197206344458134,0.0
2471,5.475913752954711,0.0
2472,5.789432010796219,0.0
2473,4.9674693265157615,0.0
2474,5.4813501615494395,0.0
2475,5.466350168535603,0.0
2476,5.435463582347639,0.0
2477,5.5001519223051565,0.0
2478,4.903515617095308,0.0
2479,5.417474235100248,0.0
2480,5.764929721765114,0.0
2481,5.650739103417439,0.0
2482,5.2896527655133365,0.0
2483,5.074741649460354,0.0
2484,5.211493056794529,0.0
2485,5.21553557311972,0.0
2486,5.507984603178958,0.0
2487,5.292500331186085,0.0
2488,5.3918772814339215,0.0
2489,4.983554890691541,0.0
2490,5.364199807662916,0.0
2491,5.41016841051276,0.0
2492,5.087739786709433,0.0
2493,5.310264005328491,0.0
2494,5.492808086752966,0.0
2495,5.319380208771501,0.0
2496,6.095214801545713,0.0
2497,5.154442998836629,0.0
2498,5.150291181878522,0.0
2499,5.278225285334905,0.0
2500,5.622736106407257,0.0
2501,6.431758124717876,0.0
2502,6.294298770978285,0.0
2503,6.427399292350309,0.0
2504,7.438432633190389,0.0
2505,7.973923257253162,0.0
2506,9.419210210811746,0.0
2507,10.958695228973273,0.0
2508,11.970975607195488,0.0
2509,11.60927688600902,0.0
2510,12.836332148416055,0.0
2511,12.600241894131832,0.0
2512,10.653220015843644,0.0
2513,10.058080660299861,0.0
2514,8.497018765961084,0.0
2515,6.746760655345762,0.0
2516,4.800332361149098,0.0
2517,3.2974874362115982,0.0
2518,2.449311866047251,0.0
2519,2.9721473608546627,0.0
2520,2.8346146824629157,0.0
2521,3.9007838205367067,0.0
2522,5.01491010044579,0.0
2523,6.236574679806701,0.0
2524,6.88103553236658,0.0
2525,7.1063131922569776,0.0
2526,6.868818881540781,0.0
2527,6.596131983429385,0.0
2528,5.509823113070168,0.0
2529,5.606900169857457,0.0
2530,4.768633408880511,0.0
2531,4.771101676358423,0.0
2532,5.626234980006952,0.0
2533,5.37958432514388,0.0
2534,5.024284139764315,0.0
2535,5.440550547377139,0.0
2536,5.416506855216246,0.0
2537,5.406348103484601,0.0
2538,5.576434122590291,0.0
2539,5.448087980719112,0.0
2540,5.714056619967999,0.0
2541,5.5580515542381566,0.0
2542,5.309612991881836,0.0
2543,5.902656340883897,0.0
2544,5.03830409059133,0.0
2545,5.319681780243475,0.0
2546,5.680987660092013,0.0
2547,5.298522714728702,0.0
2548,5.533809297445825,0.0
2549,5.802176475336059,0.0
2550,6.143959134687602,0.0
2551,5.781964700500901,0.0
2552,5.707437660943124,0.0
2553,6.299761066444935,0.0
2554,5.98165179501124,0.0
2555,5.6112309901368675,0.0
2556,5.534693051943755,0.0
2557,6.036529764514784,0.0
2558,6.030978705526694,0.0
2559,5.350378453131529,0.0
2560,5.648677038692451,0.0
2561,5.011797024137459,0.0
2562,5.395294095445613,0.0
2563,5.84911937058991,0.0
2564,5.796953761734838,0.0
2565,5.89864305041899,0.0
2566,5.326868633439104,0.0
2567,5.854358043542299,0.0
2568,5.790183832363054,0.0
2569,5.393219762532419,0.0
2570,5.934315443758041,0.0
2571,5.570966973561844,0.0
2572,5.02109453350802,0.0
2573,5.784188193217869,0.0
2574,6.162474668199013,0.0
2575,5.656047861650408,0.0
2576,5.50103735511666,0.0
2577,5.774812116761632,0.0
2578,5.658998550413573,0.0
2579,5.821395956333764,0.0
2580,5.713446776272919,0.0
2581,5.603546929471758,0.0
2582,5.771734071007788,0.0
2583,6.298103434254069,0.0
2584,5.877083439233283,0.0
2585,5.399621019160529,0.0
2586,5.731649461882579,0.0
2587,5.348978265063631,0.0
2588,5.413426529833382,0.0
2589,5.59738235791605,0.0
2590,5.362659500004975,0.0
2591,5.978420889633308,0.0
2592,5.517088384449264,0.0
2593,4.940181319663333,0.0
2594,5.579474916201619,0.0
2595,6.216264218836661,0.0
2596,6.005755481948186,0.0
2597,5.962359138062869,0.0
2598,5.5040472035380095,0.0
2599,5.484632803044129,0.0
2600,5.21462771444315,0.0
2601,5.743539898969642,0.0
2602,6.812226993136205,0.0
2603,7.122353234291057,0.0
2604,8.126559084494982,0.0
2605,8.708442967018609,0.0
2606,9.318099643326313,0.0
2607,11.130125430448224,0.0
2608,11.98376298545637,0.0
2609,11.72035288535014,0.0
2610,11.964337469937323,0.0
2611,12.152734976204837,0.0
2612,11.373545164737692,0.0
2613,9.92859705993264,0.0
2614,8.405981490710593,0.0
2615,6.763637264738717,0.0
2616,4.849888929327291,0.0
2617,3.4130302181828434,0.0
2618,3.191478566897249,0.0
2619,2.2625353958998216,0.0
2620,3.3471742215556874,0.0
2621,4.441007845920801,0.0
2622,4.4353875422453966,0.0
2623,6.680737383746317,0.0
2624,6.85909530682234,0.0
2625,6.732978156941654,0.0
2626,7.733177907717707,0.0
2627,7.066627957442837,0.0
2628,6.182823900261346,0.0
2629,5.763662110460198,0.0
2630,4.638912298799084,0.0
2631,5.3175967933678665,0.0
2632,4.705221087807322,0.0
2633,4.704078127649456,0.0
2634,5.645135158843884,0.0
2635,5.531397443369364,0.0
2636,5.910741633877751,0.0
2637,5.978606984328192,0.0
2638,6.618902013458534,0.0
2639,5.9465694239884375,0.0
2640,5.679634951612495,0.0
2641,6.234927243524584,0.0
2642,5.613844584660442,0.0
2643,5.496951025086579,0.0
2644,5.461498046566573,0.0
2645,5.761931953076068,0.0
2646,6.078071892949397,0.0
2647,5.743391130835761,0.0
2648,6.347546010189213,0.0
2649,6.045661484824452,0.0
2650,5.766725549735878,0.0
2651,4.998543820998198,0.0
2652,5.745415753551151,0.0
2653,5.749761219049144,0.0
2654,6.171639354424335,0.0
2655,6.014324444383722,0.0
2656,6.171717866613511,0.0
2657,5.840061648793852,0.0
2658,5.621680866591189,0.0
2659,5.69403759332207,0.0
2660,6.022167559573425,0.0
2661,5.958302280767043,0.0
2662,5.384312474056365,0.0
2663,5.959689571597577,0.0
2664,6.249184468782169,0.0
2665,5.6775289474258415,0.0
2666,5.711011872163032,0.0
2667,5.793984489325335,0.0
2668,5.671709496362921,0.0
2669,5.593667778909735,0.0
2670,5.995993702409192,0.0
2671,6.151990355540956,0.0
2672,5.5517142308516485,0.0
2673,5.499399577397518,0.0
2674,5.962269379699047,0.0
2675,6.084655986858848,0.0
2676,6.006248658640288,0.0
2677,6.159960726479388,0.0
2678,5.665597691430887,0.0
2679,5.723792898871232,0.0
2680,5.558840951890627,0.0
2681,6.148983393019346,0.0
2682,5.679682456373052,0.0
2683,5.622058783878482,0.0
2684,6.007496308965375,0.0
2685,5.588223731778024,0.0
2686,5.311947018135826,0.0
2687,5.946235741363027,0.0
2688,5.899149287081522,0.0
2689,6.017880878953095,0.0
2690,6.020329559856473,0.0
2691,5.799271938960734,0.0
2692,5.756931534557715,0.0
2693,5.066592919081037,0.0
2694,5.507882448741841,0.0
2695,6.005396754919671,0.0
2696,5.9020513510276595,0.0
2697,6.1689575762467035,0.0
2698,5.94133923549073,0.0
2699,5.553698392676891,0.0
2700,6.052970021946417,0.0
2701,6.098137749422052,0.0
2702,6.905907769741823,0.0
2703,6.743591908039365,0.0
2704,7.491556529056765,0.0
2705,8.467028799622224,0.0
2706,9.529847852455013,0.0
2707,10.243382814237268,0.0
2708,12.232101137184607,0.0
2709,12.862014510503581,0.0
2710,12.665152514098228,0.0
2711,12.404060567469628,0.0
2712,11.816515196060251,0.0
2713,10.388172345402575,0.0
2714,8.383358104863447,0.0
2715,6.745043277463014,0.0
2716,5.08177089569247,0.0
2717,3.956006979901912,0.0
2718,2.693266245714694,0.0
2719,2.7300366525712314,0.0
2720,3.294486720688789,0.0
2721,4.676644634738582,0.0
2722,5.250181698857938,0.0
2723,6.299224022622046,0.0
2724,7.5908667650551225,0.0
2725,7.691388886551359,0.0
2726,7.050093692413162,0.0
2727,7.382934146176352,0.0
2728,6.7176936836783465,0.0
2729,5.732197225704652,0.0
2730,5.197084200053784,0.0
2731,5.06398796473662,0.0
2732,4.663979335440091,0.0
2733,5.3078186015601965,0.0
2734,4.710248575957436,0.0
2735,5.365744274858578,0.0
2736,5.9275245278199105,0.0
2737,6.388287105285579,0.0
2738,6.383569157894295,0.0
2739,5.921892061043091,0.0
2740,6.132231008243915,0.0
2741,5.874732638677145,0.0
2742,5.812442913926961,0.0
2743,5.313825091286247,0.0
2744,5.815367133260563,0.0
2745,6.140119388110252,0.0
2746,5.846941845547578,0.0
2747,5.887066085808763,0.0
2748,5.592215994616373,0.0
2749,6.644064619075588,0.0
2750,5.989308247226832,0.0
2751,5.791911461718985,0.0
2752,5.853265579932065,0.0
2753,6.534124366455893,0.0
2754,6.137119136215492,0.0
2755,6.080403797764327,0.0
2756,5.87746171977287,0.0
2757,6.126080584546482,0.0
2758,5.740549145072632,0.0
2759,5.88299212722853,0.0
2760,5.146625946358675,0.0
2761,5.7223076038850165,0.0
2762,5.491497134153518,0.0
2763,5.305362926548453,0.0
2764,6.020900531151411,0.0
2765,6.038817973944952,0.0
2766,6.095646784418985,0.0
2767,5.978695863992294,0.0
2768,6.055245590575228,0.0
2769,5.931772641380499,0.0
2770,5.5617298760469,0.0
2771,5.821933170944351,0.0
2772,5.788851643070341,0.0
2773,5.933941145252982,0.0
2774,5.898497361218984,0.0
2775,5.638209292028198,0.0
2776,5.94591753025285,0.0
2777,6.072364858100923,0.0
2778,5.624785212783965,0.0
2779,5.507969716203411,0.0
2780,6.332194671285213,0.0
2781,5.927818424967476,0.0
2782,6.305732702305351,0.0
2783,6.4681958831471915,0.0
2784,6.0918097221000025,0.0
2785,5.862997294399246,0.0
2786,5.675696506255896,0.0
2787,5.9543008461453155,0.0
2788,5.910340402873103,0.0
2789,5.7046392978036256,0.0
2790,5.945230910339951,0.0
2791,5.764548148905396,0.0
2792,5.931517067865248,0.0
2793,5.517347820230201,0.0
2794,5.918478185173323,0.0
2795,6.400052672543152,0.0
2796,5.79172654048878,0.0
2797,5.950709880129633,0.0
2798,5.923312227466308,0.0
2799,5.600608994975278,0.0
2800,6.476877521801077,0.0
2801,6.639941071059442,0.0
2802,6.60903757047897,0.0
2803,7.4905770917276175,0.0
2804,7.846421335398626,0.0
2805,8.544207474294838,0.0
2806,9.161021448340618,0.0
2807,11.05166991479266,0.0
2808,12.434482175116058,0.0
2809,12.711031541205607,0.0
2810,13.134605778193023,0.0
2811,12.543898577132298,0.0
2812,11.168574406246574,0.0
2813,10.411941996552164,0.0
2814,8.65091523737794,0.0
2815,6.852399085838574,0.0
2816,4.92332721609232,0.0
2817,4.278692326436845,0.0
2818,3.088097534067443,0.0
2819,2.499420798721229,0.0
2820,3.14125036924052,0.0
2821,4.021343271824378,0.0
2822,5.49414837747515,0.0
2823,6.777348103609445,0.0
2824,7.590980907667966,0.0
2825,7.637213342642443,0.0
2826,7.601799109700078,0.0
2827,6.913870159246058,0.0
2828,6.5529861134519,0.0
2829,6.156769707887461,0.0
2830,5.645961478328779,0.0
2831,5.831271548621075,0.0
2832,5.300869750181494,0.0
2833,5.021483391717581,0.0
2834,6.1957863136427225,0.0
2835,5.549463383501008,0.0
2836,6.367668908886208,0.0
2837,5.7195192291521515,0.0
2838,6.312148927202197,0.0
2839,6.5358028104786765,0.0
2840,5.991575803568637,0.0
2841,5.809557056474538,0.0
2842,6.163608107447509,0.0
2843,5.706029622014557,0.0
2844,5.5964068564623055,0.0
2845,6.051399370595714,0.0
2846,6.087577406279412,0.0
2847,5.578595156831792,0.0
2848,5.3061229845618385,0.0
2849,5.956436084957877,0.0
2850,5.8388260028415715,0.0
2851,5.826589942613168,0.0
2852,6.1601890986035,0.0
2853,6.078518849193291,0.0
2854,5.8485076911885425,0.0
2855,5.6369884520697315,0.0
2856,6.5796762376680595,0.0
2857,6.310511137441294,0.0
2858,6.027827066657942,0.0
2859,5.9480036858668495,0.0
2860,5.841402343401193,0.0
2861,6.11964074323976,0.0
2862,6.095362740882537,0.0
2863,5.878062829833431,0.0
2864,6.400673318619087,0.0
2865,5.980696079542498,0.0
2866,5.931462724183141,0.0
2867,5.668054002856435,0.0
2868,5.8430699157265185,0.0
2869,5.822002978276251,0.0
2870,5.7437565713476495,0.0
2871,6.55664765472248,0.0
2872,6.072700926879951,0.0
2873,6.304230179052463,0.0
2874,6.104573010595233,0.0
2875,5.828126878345208,0.0
2876,6.4330187594892445,0.0
2877,6.190753267060597,0.0
2878,5.549787099598259,0.0
2879,6.438943645154197,0.0
2880,5.911822264417822,0.0
2881,6.108785138474024,0.0
2882,5.551233728315073,0.0
2883,6.107345834618686,0.0
2884,6.0786224813565495,0.0
2885,6.026794982292055,0.0
2886,5.934341004905584,0.0
2887,5.8194556837434055,0.0
2888,5.659675691060158,0.0
2889,6.097142721637348,0.0
2890,5.919208418096251,0.0
2891,5.841906650960164,0.0
2892,6.120901618729977,0.0
2893,5.447641644523641,0.0
2894,5.370021251936032,0.0
2895,6.36941077682766,0.0
2896,6.467698955182213,0.0
2897,5.826606002275502,0.0
2898,5.928532027021352,0.0
2899,5.707668904333682,0.0
2900,6.144452606437912,0.0
2901,6.766325055835962,0.0
2902,6.485087283944227,0.0
2903,6.6566332803531685,0.0
2904,7.969372088141026,0.0
2905,8.511149500846855,0.0
2906,9.646686633621805,0.0
2907,10.927002528375297,0.0
2908,12.151900994232353,0.0
2909,12.372029572062402,0.0
2910,13.29859813674161,0.0
2911,12.7859978468058,0.0
2912,11.671295007256578,0.0
2913,10.510532226697812,0.0
2914,9.211476898737821,0.0
2915,6.795531362855744,0.0
2916,5.8791111803894704,0.0
2917,4.414973946594399,0.0
2918,4.051734189724611,0.0
2919,3.1944041873269566,0.0
2920,3.051191938504408,0.0
2921,4.085119526501748,0.0
2922,4.819940695708455,0.0
2923,6.739662689028265,0.0
2924,7.408697040565404,0.0
2925,7.31430856056652,0.0
2926,8.174424237242677,0.0
2927,7.356692577685823,0.0
2928,7.115736152139931,0.0
2929,6.545703912314249,0.0
2930,5.69663741932272,0.0
2931,5.199302796017782,0.0
2932,5.996081144320312,0.0
2933,5.372109517921659,0.0
2934,5.405838804281989,0.0
2935,5.951066834454217,0.0
2936,6.006318535437212,0.0
2937,6.9389756467048445,0.0
2938,7.01307634890918,0.0
2939,6.118411295859853,0.0
2940,6.507602755778833,0.0
2941,6.006258078128506,0.0
2942,6.380627399823327,0.0
2943,6.341368027518616,0.0
2944,6.100034002591989,0.0
2945,6.602467279179605,0.0
2946,6.119716648970695,0.0
2947,6.535810254902268,0.0
2948,6.476119024291294,0.0
2949,6.288529601360319,0.0
2950,6.693178284586773,0.0
2951,5.995849231872119,0.0
2952,6.7544277650273985,0.0
2953,6.773235100170504,0.0
2954,6.29552215052989,0.0
2955,6.178667281658601,0.0
2956,6.278945786883522,0.0
2957,6.473482015129438,0.0
2958,6.081354196919019,0.0
2959,6.3031243053016786,0.0
2960,5.452624803211056,0.0
2961,6.225951566117401,0.0
2962,6.064388177950364,0.0
2963,5.833625659518573,0.0
2964,6.319580326081542,0.0
2965,6.927944981524496,0.0
2966,6.468120374003473,0.0
2967,5.7922581324178894,0.0
2968,5.736959231065704,0.0
2969,6.20075478625301,0.0
2970,6.74073611540931,0.0
2971,6.414329791910648,0.0
2972,5.777236996284619,0.0
2973,6.060627402074509,0.0
2974,5.7163525126425805,0.0
2975,6.053950749440199,0.0
2976,5.817723871117231,0.0
2977,6.173546510877473,0.0
2978,6.751400539043044,0.0
2979,6.476341417418499,0.0
2980,6.1826680010418835,0.0
2981,5.702066004112044,0.0
2982,6.024705102320557,0.0
2983,6.237875802052525,0.0
2984,5.914586154931474,0.0
2985,6.538844585763298,0.0
2986,6.337004806654537,0.0
2987,5.530781362310901,0.0
2988,6.584168482563205,0.0
2989,5.99973661499903,0.0
2990,6.233305239419529,0.0
2991,6.429525316262073,0.0
2992,6.371638250490888,0.0
2993,6.963826732672322,0.0
2994,6.576800987861732,0.0
2995,6.451902387782344,0.0
2996,5.964954436698079,0.0
2997,6.104056292976277,0.0
2998,6.202179225772994,0.0
2999,6.3978786479296605,0.0
3000,6.622903911330438,0.0
3001,6.427091051348761,0.0
3002,7.066989621452221,0.0
3003,7.349123616373233,0.0
3004,8.281161785504338,0.0
3005,9.006289591146546,0.0
3006,10.255055150890689,0.0
3007,11.171381003640931,0.0
3008,12.475839245227341,0.0
3009,12.215683385006756,0.0
3010,13.063744771741383,0.0
3011,13.255244456221003,0.0
3012,12.483351468328781,0.0
3013,10.456811383887729,0.0
3014,8.919111449145277,0.0
3015,6.8963086503470645,0.0
3016,5.262371399626312,0.0
3017,4.119270536847948,0.0
3018,2.928557017100586,0.0
3019,3.0898186331484534,0.0
3020,3.6911585018219455,0.0
3021,4.595950947495774,0.0
3022,5.512118148705298,0.0
3023,6.30760350988008,0.0
3024,7.580740075850656,0.0
3025,8.227371729542787,0.0
3026,7.773609146656459,0.0
3027,6.445843910570453,0.0
3028,6.7494224503764615,0.0
3029,6.452615762345593,0.0
3030,5.69214574865247,0.0
3031,5.538648829437522,0.0
3032,5.316644435541608,0.0
3033,5.835375863214938,0.0
3034,5.935105186487543,0.0
3035,5.914902209716984,0.0
3036,6.340468293090339,0.0
3037,6.017702134493045,0.0
3038,6.457274757329124,0.0
3039,6.6086431308064695,0.0
3040,6.292988590936774,0.0
3041,6.092437511882351,0.0
3042,5.912284599463893,0.0
3043,5.872232681554069,0.0
3044,5.8806431284064145,0.0
3045,6.4491154092478995,0.0
3046,6.188895171401071,0.0
3047,6.603520155526102,0.0
3048,6.022799883978787,0.0
3049,5.759907943850484,0.0
3050,6.465562094374381,0.0
3051,6.309960529059892,0.0
3052,6.597371453283769,0.0
3053,5.787358205864507,0.0
3054,6.105457209811397,0.0
3055,5.774628546623852,0.0
3056,6.978800750143177,0.0
3057,6.303900537692712,0.0
3058,6.102228186916785,0.0
3059,6.101405558590508,0.0
3060,6.693597182033392,0.0
3061,6.294467313940744,0.0
3062,5.975189596468862,0.0
3063,6.600151268187932,0.0
3064,6.502956315276795,0.0
3065,6.074024611707051,0.0
3066,6.100538596964746,0.0
3067,6.305067445126635,0.0
3068,6.103156872201463,0.0
3069,6.42346551274162,0.0
3070,6.376514861936402,0.0
3071,6.023179672935322,0.0
3072,6.267565940120459,0.0
3073,6.171405999896098,0.0
3074,5.733655968882697,0.0
3075,6.547476215848969,0.0
3076,6.82922144238302,0.0
3077,5.820632757204222,0.0
3078,6.3815305973348995,0.0
3079,6.452690179657287,0.0
3080,5.910791236002717,0.0
3081,6.610929705891961,0.0
3082,6.058650425374902,0.0
3083,6.067741741306294,0.0
3084,6.963260842102896,0.0
3085,7.287430331819292,0.0
3086,5.668335574296205,0.0
3087,6.83122154106627,0.0
3088,6.676038010029644,0.0
3089,5.939849980278297,0.0
3090,6.137799405528722,0.0
3091,6.106009170616811,0.0
3092,6.429175242903111,0.0
3093,6.074633284860265,0.0
3094,6.341245548237338,0.0
3095,6.2905863147276,0.0
3096,6.894843783287138,0.0
3097,6.425765590016456,0.0
3098,6.592073792786126,0.0
3099,6.497781119317443,0.0
3100,6.139789393831283,0.0
3101,6.388309451760141,0.0
3102,6.821531473229545,0.0
3103,8.249016202517833,0.0
3104,8.028523333233002,0.0
3105,8.865116856270921,0.0
3106,10.387126300162576,0.0
3107,11.490305803413321,0.0
3108,12.100606010382286,0.0
3109,12.606714740403612,0.0
3110,13.567685211272625,0.0
3111,13.616246042701318,0.0
3112,12.423602580824609,0.0
3113,11.228903410895954,0.0
3114,9.059951656485023,0.0
3115,7.817309043775957,0.0
3116,5.626669533163459,0.0
3117,3.7315849833183306,0.0
3118,3.182142060729254,0.0
3119,3.866331070266594,0.0
3120,3.4575294788086115,0.0
3121,4.749103013868686,0.0
3122,5.448492093684961,0.0
3123,6.534009644542772,0.0
3124,7.288413887945682,0.0
3125,7.783775598839928,0.0
3126,8.017497738125854,0.0
3127,7.621475883006057,0.0
3128,7.00560931386885,0.0
3129,6.5592858764964825,0.0
3130,5.815578278954766,0.0
3131,5.830760647355973,0.0
3132,5.285048528206345,0.0
3133,5.690757362878804,0.0
3134,6.218936419632923,0.0
3135,6.366020930883358,0.0
3136,6.572595599433793,0.0
3137,6.636357772363768,0.0
3138,6.2013632433142725,0.0
3139,6.563634795735132,0.0
3140,6.374007561650338,0.0
3141,6.717317379261716,0.0
3142,5.6629723500293645,0.0
3143,5.628033482705586,0.0
3144,6.9560908455015475,0.0
3145,6.329015618106515,0.0
3146,6.243153898264629,0.0
3147,6.455105840346092,0.0
3148,6.412122039668582,0.0
3149,6.0624686762922995,0.0
3150,6.310191582565267,0.0
3151,6.877724443272552,0.0
3152,6.949991000918962,0.0
3153,6.416099947466308,0.0
3154,6.550633851192915,0.0
3155,6.293815908822509,0.0
3156,6.432246598640958,0.0
3157,6.29627094902044,0.0
3158,6.336623149489664,0.0
3159,6.579489109593944,0.0
3160,6.562095579686521,0.0
3161,6.635598491179496,0.0
3162,6.366905511796333,0.0
3163,6.298398603247757,0.0
3164,6.157908255893675,0.0
3165,6.2866365558706105,0.0
3166,6.701442637104347,0.0
3167,6.407868133137101,0.0
3168,6.701587368582773,0.0
3169,6.072049520211136,0.0
3170,6.2747399136910476,0.0
3171,6.137713215320635,0.0
3172,6.59475210622806,0.0
3173,6.890546328740178,0.0
3174,6.1225082306568845,0.0
3175,6.308132388069135,0.0
3176,6.692629919685962,0.0
3177,6.206611991658227,0.0
3178,6.309330585060839,0.0
3179,5.8596416856748075,0.0
3180,6.7079017559530225,0.0
3181,6.474549419688938,0.0
3182,6.694319173047776,0.0
3183,6.350320890178284,0.0
3184,6.630490289213168,0.0
3185,6.567677420454162,0.0
3186,5.982431820666466,0.0
3187,6.420530204820177,0.0
3188,6.452447524841202,0.0
3189,6.121222222590475,0.0
3190,5.852038815411014,0.0
3191,6.331370555931164,0.0
3192,6.59330720745107,0.0
3193,6.330659119475428,0.0
3194,6.687033695288174,0.0
3195,6.699110391185949,0.0
3196,5.756675708737556,0.0
3197,6.378082741754175,0.0
3198,6.457617929060939,0.0
3199,6.402960679638042,0.0
3200,6.1899005316685916,0.0
3201,7.000907733748192,0.0
3202,7.327780571212244,0.0
3203,7.964046851521372,0.0
3204,8.251774098898562,0.0
3205,9.150190655672592,0.0
3206,10.138250139701308,0.0
3207,11.049164857343818,0.0
3208,12.030840520529917,0.0
3209,13.493708212676808,0.0
3210,13.657847788485068,0.0
3211,13.139254734796797,0.0
3212,11.946900141207191,0.0
3213,10.948943832301616,0.0
3214,9.62073086137884,0.0
3215,7.416267066913068,0.0
3216,5.630145483620308,0.0
3217,4.048143742760532,0.0
3218,3.150906587591006,0.0
3219,3.262618594845476,0.0
3220,3.8672241268381238,0.0
3221,4.9444382748999836,0.0
3222,5.64978651397161,0.0
3223,6.860109544864674,0.0
3224,7.668692544394544,0.0
3225,7.868742778776787,0.0
3226,7.7906513676035765,0.0
3227,7.244609206981691,0.0
3228,7.337149126475967,0.0
3229,6.318612227738902,0.0
3230,6.204406526042023,0.0
3231,6.0637026418095745,0.0
3232,5.469232360209551,0.0
3233,5.635662551911539,0.0
3234,5.578359847727817,0.0
3235,6.686690036355915,0.0
3236,6.318516316158068,0.0
3237,7.008640461350878,0.0
3238,6.625757693015394,0.0
3239,6.839619685194697,0.0
3240,6.457408627226976,0.0
3241,6.755079090951474,0.0
3242,6.4468379716645545,0.0
3243,6.309320026177824,0.0
3244,6.927939553665307,0.0
3245,7.102145672426666,0.0
3246,6.968231741368349,0.0
3247,6.422884797160196,0.0
3248,7.146006626118266,0.0
3249,6.971630269325035,0.0
3250,6.711292132129718,0.0
3251,6.424275262625891,0.0
3252,6.243976250359512,0.0
3253,6.987638863425752,0.0
3254,6.3882988663491815,0.0
3255,6.706839932815381,0.0
3256,6.4325841380746125,0.0
3257,6.321968433967192,0.0
3258,6.342994581156445,0.0
3259,6.641798377852836,0.0
3260,6.66424419053964,0.0
3261,6.348155067819335,0.0
3262,6.746219616304425,0.0
3263,6.467446020924252,0.0
3264,6.420163339264116,0.0
3265,7.048849635551314,0.0
3266,7.221487176276634,0.0
3267,6.724226819521039,0.0
3268,6.550228261783123,0.0
3269,6.378041542794346,0.0
3270,6.548805939394432,0.0
3271,6.275475552229813,0.0
3272,6.016108812420453,0.0
3273,6.618099817886351,0.0
3274,6.0568048793142,0.0
3275,6.959895698038633,0.0
3276,6.108192864105023,0.0
3277,5.988845272796053,0.0
3278,5.991426621920256,0.0
3279,6.507927423669063,0.0
3280,7.016324359143606,0.0
3281,7.05037553393796,0.0
3282,6.774817808073133,0.0
3283,6.201612223850695,0.0
3284,6.90619344542718,0.0
3285,6.2319202991983556,0.0
3286,6.633025020429843,0.0
3287,6.045200963786709,0.0
3288,6.9500898792887,0.0
3289,6.837253853687815,0.0
3290,6.631196011765083,0.0
3291,6.2136062163669,0.0
3292,6.856606217482589,0.0
3293,6.788178262921937,0.0
3294,6.184086181244367,0.0
3295,6.320104121750466,0.0
3296,6.949571126160527,0.0
3297,6.278874115758994,0.0
3298,6.315027036581907,0.0
3299,6.435411009411997,0.0
3300,6.33513793246105,0.0
3301,6.589558087254806,0.0
3302,7.268747016289248,0.0
3303,7.714940649887125,0.0
3304,8.336647347731034,0.0
3305,9.011420944978365,0.0
3306,10.202688452431637,0.0
3307,11.103068213508717,0.0
3308,12.492977709903752,0.0
3309,13.33139203400355,0.0
3310,13.588858867698349,0.0
3311,13.585590500943537,0.0
3312,12.291841660432727,0.0
3313,11.061033830870695,0.0
3314,9.634615005889081,0.0
3315,7.748880549310073,0.0
3316,6.054462893745134,0.0
3317,4.64193813769613,0.0
3318,3.733467314380308,0.0
3319,3.638378223659882,0.0
3320,3.9798332162350367,0.0
3321,5.01591972940353,0.0
3322,5.7067006986749345,0.0
3323,7.067877297998769,0.0
3324,8.098553012720311,0.0
3325,7.955493387549984,0.0
3326,8.161020430126463,0.0
3327,7.256003774591866,0.0
3328,7.393449862017263,0.0
3329,6.642527514951635,0.0
3330,6.181919633818877,0.0
3331,5.898700919633491,0.0
3332,5.330982636983975,0.0
3333,6.044755910307023,0.0
3334,6.55786685110894,0.0
3335,6.187517298771441,0.0
3336,6.618747829666546,0.0
3337,6.920823932152281,0.0
3338,6.800591199000887,0.0
3339,6.896652724149389,0.0
3340,6.89357905591366,0.0
3341,6.707985693682677,0.0
3342,6.316098643999152,0.0
3343,6.345419787204181,0.0
3344,6.074203712532583,0.0
3345,6.44071349842494,0.0
3346,6.418896214449572,0.0
3347,6.1511756102353745,0.0
3348,6.876145866033326,0.0
3349,6.981506009662529,0.0
3350,6.2995307483933045,0.0
3351,6.372544510232585,0.0
3352,6.9041973025037215,0.0
3353,7.017227338424602,0.0
3354,6.822506508655363,0.0
3355,6.559716853697075,0.0
3356,6.477894057246619,0.0
3357,6.2116727578311615,0.0
3358,6.2408429184639385,0.0
3359,6.909550120691238,0.0
3360,6.6300106656416,0.0
3361,6.8344522798783816,0.0
3362,6.280188129997025,0.0
3363,6.632337826686633,0.0
3364,6.874052329261346,0.0
3365,6.437815150476552,0.0
3366,6.018690267369339,0.0
3367,6.628910195852833,0.0
3368,6.746448260892357,0.0
3369,6.530092245729839,0.0
3370,7.054524585787219,0.0
3371,6.126043189903083,0.0
3372,6.950997136522577,0.0
3373,6.364648992626015,0.0
3374,6.576253569340677,0.0
3375,6.733647191651592,0.0
3376,6.152871230324105,0.0
3377,7.0400677619301435,0.0
3378,6.54202727680554,0.0
3379,7.041062449942477,0.0
3380,6.580249248741695,0.0
3381,6.550296099706232,0.0
3382,6.154667070609485,0.0
3383,6.173122307906133,0.0
3384,6.4952037991688085,0.0
3385,6.75918871366445,0.0
3386,6.743519570527119,0.0
3387,6.913938674015819,0.0
3388,6.791730573992016,0.0
3389,6.5606119147944835,0.0
3390,7.118143073741209,0.0
3391,6.2145210381388765,0.0
3392,6.488957668857401,0.0
3393,6.575166975669518,0.0
3394,7.088726408928698,0.0
3395,6.434976388725485,0.0
3396,6.578265848023063,0.0
3397,7.207146882852761,0.0
3398,6.507177184524667,0.0
3399,6.909447568706967,0.0
3400,6.541672884964099,0.0
3401,6.989367583527436,0.0
3402,7.052834795232754,0.0
3403,7.644903155198632,0.0
3404,8.204079792214978,0.0
3405,9.686110297814558,0.0
3406,10.750795126541101,0.0
3407,11.19777965133288,0.0
3408,11.945156957166468,0.0
3409,13.37095836477814,0.0
3410,13.574440145825918,0.0
3411,14.152220067788662,0.0
3412,12.692366698476436,0.0
3413,11.643726413177976,0.0
3414,9.168619947093472,0.0
3415,7.841111824018969,0.0
3416,6.055785814355227,0.0
3417,3.994676641871213,0.0
3418,3.6738387231710488,0.0
3419,4.087505855446713,0.0
3420,4.069273007959525,0.0
3421,4.452980532611032,0.0
3422,5.838254774050099,0.0
3423,6.7878574157111,0.0
3424,8.165358327857929,0.0
3425,8.344379198994186,0.0
3426,7.815234749316742,0.0
3427,7.741519459129044,0.0
3428,7.3219009010955265,0.0
3429,6.713998069074867,0.0
3430,6.152661729214827,0.0
3431,6.532990426828048,0.0
3432,5.707468207953527,0.0
3433,6.060541293510713,0.0
3434,7.137420714971511,0.0
3435,7.177364076095845,0.0
3436,6.919482560027505,0.0
3437,6.899345708606939,0.0
3438,6.904865302152379,0.0
3439,6.7479702406721,0.0
3440,7.099564330454752,0.0
3441,7.132597183803699,0.0
3442,7.56261206908786,0.0
3443,7.026531666683703,0.0
3444,6.538936983722358,0.0
3445,6.74306151466848,0.0
3446,6.484810963298055,0.0
3447,6.598524325603898,0.0
3448,6.1996250549161696,0.0
3449,7.26892075608033,0.0
3450,6.242367609250281,0.0
3451,6.979605658752819,0.0
3452,6.763991993311808,0.0
3453,7.080507161068274,0.0
3454,6.520438600893434,0.0
3455,6.625624097223926,0.0
3456,5.729508939796022,0.0
3457,6.721290821927944,0.0
3458,6.821344778069348,0.0
3459,6.61604753413429,0.0
3460,6.293822134417689,0.0
3461,6.508827015738537,0.0
3462,6.913007339393702,0.0
3463,7.007929006028395,0.0
3464,6.876163547733657,0.0
3465,7.0844771689357335,0.0
3466,7.024847480470227,0.0
3467,6.400786666949752,0.0
3468,7.582511977908552,0.0
3469,6.851891990553086,0.0
3470,6.787450391752351,0.0
3471,6.560486688947237,0.0
3472,6.9749283939972955,0.0
3473,6.767759723780483,0.0
3474,6.812478789775354,0.0
3475,6.729140495755505,0.0
3476,6.7365010425162195,0.0
3477,6.5769102569917,0.0
3478,6.675131201325707,0.0
3479,7.21387801775456,0.0
3480,6.747708479529182,0.0
3481,7.040728506754462,0.0
3482,7.1758410780236686,0.0
3483,7.184686378620146,0.0
3484,6.820841737728426,0.0
3485,7.223832737321398,0.0
3486,7.127458796478226,0.0
3487,6.828606786265827,0.0
3488,6.4344370797326,0.0
3489,6.87294761614924,0.0
3490,7.229692913313273,0.0
3491,6.828931183626633,0.0
3492,6.379239080488282,0.0
3493,6.722296448332488,0.0
3494,7.0592818411329,0.0
3495,7.282202167923391,0.0
3496,7.040282878396277,0.0
3497,7.09718644149338,0.0
3498,6.323627997442205,0.0
3499,6.584880674761788,0.0
3500,6.966497187951885,0.0
3501,7.578381360220752,0.0
3502,7.42295696049839,0.0
3503,7.900935162238323,0.0
3504,9.082587975198061,0.0
3505,9.595056709460277,0.0
3506,10.774526867138322,0.0
3507,11.309212609723662,0.0
3508,12.235650900099456,0.0
3509,13.59678306937115,0.0
3510,13.706492095214728,0.0
3511,13.263551887953128,0.0
3512,12.72522088600283,0.0
3513,11.222793566626379,0.0
3514,9.872103235425211,0.0
3515,8.279711244716253,0.0
3516,6.588991930306387,0.0
3517,4.271141149023861,0.0
3518,4.103050455915476,0.0
3519,3.638726796262879,0.0
3520,4.251118976357867,0.0
3521,5.181432624373319,0.0
3522,5.990277297524127,0.0
3523,7.874679542249672,0.0
3524,8.318123329643138,0.0
3525,7.975465462315383,0.0
3526,8.237314545785456,0.0
3527,7.821714387775442,0.0
3528,7.221598288833418,0.0
3529,6.46208580480835,0.0
3530,6.378683664610621,0.0
3531,5.854357595137622,0.0
3532,6.5478397921072,0.0
3533,5.669127605031442,0.0
3534,6.232805547194495,0.0
3535,6.722458388941592,0.0
3536,6.709168875411692,0.0
3537,7.370430094607261,0.0
3538,7.328492923641253,0.0
3539,7.011771342074537,0.0
3540,6.807926026928834,0.0
3541,7.095213277260371,0.0
3542,6.752631192204888,0.0
3543,6.5483579448415306,0.0
3544,7.151045436181497,0.0
3545,6.693220303020894,0.0
3546,6.6042981354349335,0.0
3547,6.909050480639751,0.0
3548,6.267322531971803,0.0
3549,6.995294524285508,0.0
3550,6.597686188143152,0.0
3551,6.7551763683232515,0.0
3552,6.5800139205245785,0.0
3553,6.647746696159787,0.0
3554,7.193301846517866,0.0
3555,6.877861589717077,0.0
3556,7.114721875087461,0.0
3557,6.853857763155876,0.0
3558,6.839887011913642,0.0
3559,7.301042913421998,0.0
3560,6.41229868902551,0.0
3561,6.6743782200295465,0.0
3562,7.34815104591986,0.0
3563,6.497377548234407,0.0
3564,7.261294634759826,0.0
3565,7.037181237412434,0.0
3566,6.997516132934076,0.0
3567,6.971416001905211,0.0
3568,6.89125504805364,0.0
3569,7.4297818661683,0.0
3570,6.147588523857128,0.0
3571,6.462262962296575,0.0
3572,7.188041145166541,0.0
3573,6.576943586736709,0.0
3574,6.452082953686553,0.0
3575,6.820486698492032,0.0
3576,6.812506691694199,0.0
3577,6.98968052915162,0.0
3578,6.646850022403778,0.0
3579,6.683520164755362,0.0
3580,6.82190198359629,0.0
3581,7.113743289767612,0.0
3582,7.084835178714064,0.0
3583,6.650173990768777,0.0
3584,7.01824754337775,0.0
3585,7.017880371272288,0.0
3586,7.203574048142118,0.0
3587,7.051145011167494,0.0
3588,6.286558838763116,0.0
3589,7.129429589784517,0.0
3590,6.830725412587969,0.0
3591,6.773623533435535,0.0
3592,7.16578874172735,0.0
3593,6.813727286743218,0.0
3594,6.884758298213139,0.0
3595,7.105735875948477,0.0
3596,6.876253001133185,0.0
3597,7.156302938281074,0.0
3598,7.423681199339412,0.0
3599,6.724770694113423,0.0
3600,7.477183288600105,0.0
3601,7.31944561439043,0.0
3602,7.640277752473776,0.0
3603,7.797036121021366,0.0
3604,8.968281821580836,0.0
3605,9.312863989247248,0.0
3606,10.627433068241334,0.0
3607,11.532096406006186,0.0
3608,12.730015062934516,0.0
3609,13.596031149606494,0.0
3610,13.569656200794258,0.0
3611,13.772991981628715,0.0
3612,12.90847957637952,0.0
3613,11.897708992861325,0.0
3614,9.717230950442818,0.0
3615,7.762965247667652,0.0
3616,6.414886821412811,0.0
3617,4.6614005445134215,0.0
3618,4.07932855686779,0.0
3619,3.7748432942616117,0.0
3620,4.216022741739533,0.0
3621,5.096939879357016,0.0
3622,6.191963309884568,0.0
3623,6.851832210270729,0.0
3624,8.097234055041941,0.0
3625,8.521999634351898,0.0
3626,8.594360424725167,0.0
3627,8.168882274652814,0.0
3628,7.771938338885623,0.0
3629,6.7345161022495,0.0
3630,6.563958776150274,0.0
3631,6.438980595937474,0.0
3632,6.41448126546073,0.0
3633,5.950232620729196,0.0
3634,6.945333382447755,0.0
3635,7.158410831886662,0.0
3636,7.199675793885309,0.0
3637,6.371504384028363,0.0
3638,7.285201715206085,0.0
3639,7.007411624775112,0.0
3640,7.066403463654699,0.0
3641,6.815000531611796,0.0
3642,7.016001429550909,0.0
3643,6.759797599913899,0.0
3644,7.328036444217848,0.0
3645,6.72854008033669,0.0
3646,6.564455510523369,0.0
3647,6.981287267055167,0.0
3648,7.290876910731296,0.0
3649,7.165294227358995,0.0
3650,6.841387554189779,0.0
3651,7.021119380509223,0.0
3652,7.266263393161375,0.0
3653,7.2566272652867205,0.0
3654,6.4234341634809935,0.0
3655,6.832238282375928,0.0
3656,6.59750620044001,0.0
3657,6.777762286485573,0.0
3658,6.986455085855833,0.0
3659,7.142860529830075,0.0
3660,7.176517975645003,0.0
3661,6.816225222252271,0.0
3662,7.2874856240136925,0.0
3663,6.612965854792161,0.0
3664,6.920465087293666,0.0
3665,7.226905863699137,0.0
3666,6.77570356246969,0.0
3667,7.023628012821294,0.0
3668,6.6174186931685846,0.0
3669,6.898786717744326,0.0
3670,6.911474022278308,0.0
3671,7.039155750379238,0.0
3672,6.65685768383574,0.0
3673,7.331756271914489,0.0
3674,7.254085556693877,0.0
3675,7.005091009508957,0.0
3676,6.847688943237719,0.0
3677,7.216962658238329,0.0
3678,7.011811341296532,0.0
3679,6.715102827439489,0.0
3680,6.754946242450788,0.0
3681,7.476741182401035,0.0
3682,6.982433620400618,0.0
3683,7.073097999189244,0.0
3684,6.636923325915639,0.0
3685,7.5725155518756395,0.0
3686,7.137988507646075,0.0
3687,6.627608717757633,0.0
3688,6.808171223680357,0.0
3689,6.752398522458227,0.0
3690,7.30742545095993,0.0
3691,6.689806066460166,0.0
3692,7.225024608887275,0.0
3693,7.013753347586082,0.0
3694,6.998212239943978,0.0
3695,6.638625108140233,0.0
3696,7.031012124299837,0.0
3697,6.749822804318247,0.0
3698,7.362271027388794,0.0
3699,7.239216931718653,0.0
3700,7.557088061856795,0.0
3701,7.270794917812702,0.0
3702,7.204702082912854,0.0
3703,8.244249629737642,0.0
3704,8.86329073668837,0.0
3705,9.768221639788239,0.0
3706,10.476837724300976,0.0
3707,11.101541977492992,0.0
3708,12.547880095474438,0.0
3709,14.100234746576017,0.0
3710,13.532279219025668,0.0
3711,13.881985535998854,0.0
3712,12.705021561648287,0.0
3713,11.344638016286012,0.0
3714,9.81295152353195,0.0
3715,8.257982493068406,0.0
3716,6.604464271928021,0.0
3717,5.072684337056032,0.0
3718,4.313205145011635,0.0
3719,3.7490866941924446,0.0
3720,4.1275786558845855,0.0
3721,6.268784309991228,0.0
3722,6.612391386343647,0.0
3723,7.356544043053268,0.0
3724,7.9182668388093775,0.0
3725,8.82088407713443,0.0
3726,8.72811175337203,0.0
3727,8.380028485913165,0.0
3728,7.954906514656691,0.0
3729,6.958876874973993,0.0
3730,6.875256299937637,0.0
3731,6.274641110827148,0.0
3732,6.878729052228188,0.0
3733,6.320112985323534,0.0
3734,6.440156490188798,0.0
3735,7.027170146464897,0.0
3736,6.822097890921063,0.0
3737,7.38038058997066,0.0
3738,7.567018546947035,0.0
3739,7.026042030574626,0.0
3740,7.195559101780977,0.0
3741,7.136286049547765,0.0
3742,6.985477509054024,0.0
3743,7.184938527663578,0.0
3744,7.03684634720779,0.0
3745,6.779878108899894,0.0
3746,6.531255628733395,0.0
3747,7.407861627944022,0.0
3748,7.02298877525598,0.0
3749,6.919321462968011,0.0
3750,7.168671484486583,0.0
3751,7.667921494319975,0.0
3752,6.962831080379666,0.0
3753,6.971061615566547,0.0
3754,7.046358304643797,0.0
3755,6.699268618595528,0.0
3756,6.717616086168725,0.0
3757,7.251932474492614,0.0
3758,7.009844163976016,0.0
3759,7.143515204404549,0.0
3760,6.922770209135517,0.0
3761,6.870942693958759,0.0
3762,7.253908029637876,0.0
3763,7.1305571061333515,0.0
3764,7.184465792852795,0.0
3765,6.952694863695552,0.0
3766,6.722876276587532,0.0
3767,7.324923795063783,0.0
3768,6.509138279312771,0.0
3769,6.779050081139191,0.0
3770,6.899386366844186,0.0
3771,6.862386045716815,0.0
3772,6.847308893027993,0.0
3773,6.609146431670552,0.0
3774,6.46447167655088,0.0
3775,7.229681220158487,0.0
3776,6.585165630872031,0.0
3777,7.013941289223783,0.0
3778,6.769237855724398,0.0
3779,6.840085515270244,0.0
3780,7.0051763076167815,0.0
3781,7.443347193896913,0.0
3782,6.9728447762160295,0.0
3783,7.365100248872327,0.0
3784,7.068856177389972,0.0
3785,7.481228903010344,0.0
3786,7.172040405377697,0.0
3787,7.09356774518407,0.0
3788,6.895909693589689,0.0
3789,6.628254734719011,0.0
3790,6.8421803759212985,0.0
3791,7.150105335546453,0.0
3792,7.265591276508178,0.0
3793,6.896619643886612,0.0
3794,7.426244581535319,0.0
3795,7.055034770936125,0.0
3796,6.715504897000708,0.0
3797,6.724072772218197,0.0
3798,6.924734979129633,0.0
3799,6.706125984565897,0.0
3800,7.187115946160394,0.0
3801,7.533933899275673,0.0
3802,7.850255891874646,0.0
3803,8.197513273084489,0.0
3804,8.73106941395324,0.0
3805,9.124399701985157,0.0
3806,10.91990021760296,0.0
3807,11.790904991987702,0.0
3808,12.41702137759696,0.0
3809,12.90465207367761,0.0
3810,14.088763571193848,0.0
3811,14.202796048010715,0.0
3812,13.21145839053273,0.0
3813,11.971593648114053,0.0
3814,10.067998709312334,0.0
3815,8.31194258002678,0.0
3816,7.055449587836353,0.0
3817,4.914850654394377,0.0
3818,4.367537033977229,0.0
3819,4.758382469221875,0.0
3820,4.4859789219643105,0.0
3821,5.45428784033402,0.0
3822,6.267713489484359,0.0
3823,7.543746393466414,0.0
3824,7.628397769142974,0.0
3825,8.73293070977287,0.0
3826,8.859761854400647,0.0
3827,8.01843807906848,0.0
3828,8.233652534017581,0.0
3829,6.620559578517847,0.0
3830,7.100825168226767,0.0
3831,6.353341465002724,0.0
3832,6.307309395160788,0.0
3833,6.643989211861963,0.0
3834,6.507758228723203,0.0
3835,6.995982562038684,0.0
3836,6.779712969321318,0.0
3837,6.611048049355743,0.0
3838,7.024039061360606,0.0
3839,7.497169324137826,0.0
3840,7.257876390818678,0.0
3841,6.924998366051422,0.0
3842,6.431408007848119,0.0
3843,6.986834084847123,0.0
3844,6.299994667893296,0.0
3845,6.8443555951007475,0.0
3846,6.610790771744537,0.0
3847,6.514461688648875,0.0
3848,6.9041185450956055,0.0
3849,7.285601619773724,0.0
3850,7.588668786420388,0.0
3851,7.261316161677217,0.0
3852,7.180230854463896,0.0
3853,7.070441517568641,0.0
3854,7.382623462967066,0.0
3855,7.043003402900906,0.0
3856,6.723989801983496,0.0
3857,7.04017104669083,0.0
3858,7.415751444778263,0.0
3859,7.289120355322894,0.0
3860,7.3065218379546755,0.0
3861,7.4344756286710805,0.0
3862,7.447097303340256,0.0
3863,6.849637712000491,0.0
3864,7.116394858186095,0.0
3865,7.209584814000754,0.0
3866,6.349841084757472,0.0
3867,7.477503333459901,0.0
3868,6.641120494921212,0.0
3869,6.570571789234112,0.0
3870,6.418873614251898,0.0
3871,6.6953391959759925,0.0
3872,7.005324979278526,0.0
3873,7.050931298252502,0.0
3874,6.897280271272457,0.0
3875,6.6487716239938335,0.0
3876,7.230201154312735,0.0
3877,7.02066764816273,0.0
3878,7.509741591041367,0.0
3879,7.296888708500524,0.0
3880,7.220386021231972,0.0
3881,7.249646879212401,0.0
3882,6.844827594395369,0.0
3883,7.386773543921088,0.0
3884,6.9527753966397166,0.0
3885,7.501777113132111,0.0
3886,7.122141319477107,0.0
3887,7.45906227000357,0.0
3888,7.376261524187819,0.0
3889,7.312524026941103,0.0
3890,6.772460162094313,0.0
3891,7.1180395800889595,0.0
3892,7.152945358394358,0.0
3893,6.367287862643452,0.0
3894,7.409003114464906,0.0
3895,6.896091249994469,0.0
3896,6.952002494800968,0.0
3897,7.295453543303866,0.0
3898,7.0968346781828435,0.0
3899,7.360270722326224,0.0
3900,7.169318132307416,0.0
3901,7.520605239485272,0.0
3902,7.955897168268038,0.0
3903,8.013123943892436,0.0
3904,8.496292658085764,0.0
3905,9.71521113514117,0.0
3906,11.02476341005628,0.0
3907,11.73907620002037,0.0
3908,12.73583864634493,0.0
3909,13.604759030781423,0.0
3910,14.275532642701274,0.0
3911,13.980658828165113,0.0
3912,13.536796038571161,0.0
3913,11.822204164739073,0.0
3914,10.555311899179333,0.0
3915,8.33279165891512,0.0
3916,6.571939897942831,0.0
3917,4.954844366178067,0.0
3918,4.260488800266097,0.0
3919,4.466757487187361,0.0
3920,4.590243905154164,0.0
3921,5.693442594527473,0.0
3922,6.749752126582738,0.0
3923,6.880842673243619,0.0
3924,8.202693281197142,0.0
3925,8.639565921396859,0.0
3926,8.762491833195222,0.0
3927,8.583055723318182,0.0
3928,7.657301703020936,0.0
3929,7.131996755707783,0.0
3930,7.117289342388232,0.0
3931,6.36561552088215,0.0
3932,6.119173122505444,0.0
3933,6.386440654454324,0.0
3934,6.462931620766189,0.0
3935,6.7411628295616985,0.0
3936,7.056038399593466,0.0
3937,7.91532009559328,0.0
3938,7.783627338086136,0.0
3939,7.830213897019759,0.0
3940,7.816953118016449,0.0
3941,7.063023704619129,0.0
3942,6.750115183417575,0.0
3943,6.793922046999305,0.0
3944,6.821681199476234,0.0
3945,7.21217895952744,0.0
3946,6.843633015994139,0.0
3947,7.013175391256808,0.0
3948,6.9105501684062425,0.0
3949,6.819323233966823,0.0
3950,7.019514678907885,0.0
3951,7.2012257184291695,0.0
3952,7.207814535723719,0.0
3953,7.146893023444618,0.0
3954,7.647292071641598,0.0
3955,7.1301573891175485,0.0
3956,7.651232328852972,0.0
3957,7.400068576975839,0.0
3958,7.811252212138056,0.0
3959,7.442745447356807,0.0
3960,7.212860534811236,0.0
3961,7.269991838543249,0.0
3962,7.4972656937913476,0.0
3963,7.56956853340437,0.0
3964,6.622974613058456,0.0
3965,7.419114871831511,0.0
3966,7.394003618663165,0.0
3967,7.138720586851712,0.0
3968,7.477709467759191,0.0
3969,7.469150786691067,0.0
3970,7.4541463529195875,0.0
3971,7.181928887677352,0.0
3972,7.414551154996235,0.0
3973,6.660361090158907,0.0
3974,7.052862398450935,0.0
3975,7.4922838307911706,0.0
3976,7.698195859442747,0.0
3977,6.979247487054791,0.0
3978,7.322001705213343,0.0
3979,7.357093101133628,0.0
3980,7.436076374731839,0.0
3981,6.949120010227641,0.0
3982,7.2082814799462325,0.0
3983,6.941512807911303,0.0
3984,7.135258905384324,0.0
3985,7.382311140757109,0.0
3986,7.056852858354044,0.0
3987,7.296693764194865,0.0
3988,6.577197699937919,0.0
3989,7.993960804309626,0.0
3990,7.297568379328192,0.0
3991,7.453132102350754,0.0
3992,6.927827379085257,0.0
3993,7.541566544818206,0.0
3994,7.4776896556531804,0.0
3995,6.983348331684622,0.0
3996,7.347201638411767,0.0
3997,6.96289386519888,0.0
3998,7.239797423723919,0.0
3999,7.340192388776149,0.0
4000,7.400037532923232,0.0
4001,7.604971458282582,0.0
4002,7.817102224862109,0.0
4003,7.928577704720558,0.0
4004,8.90149016918813,0.0
4005,9.402505750211438,0.0
4006,10.929721160975703,0.0
4007,11.976678505493863,0.0
4008,12.802841683079716,0.0
4009,13.556184015151967,0.0
4010,14.324361773517722,0.0
4011,13.740690877102665,0.0
4012,13.755088652061502,0.0
4013,11.714724468658648,0.0
4014,10.544931488142597,0.0
4015,8.569554070034812,0.0
4016,6.289831882762186,0.0
4017,5.276011189953643,0.0
4018,4.517289060396603,0.0
4019,4.250773185878807,0.0
4020,4.570870724989097,0.0
4021,5.025502895942704,0.0
4022,6.334750767196123,0.0
4023,7.375212896092592,0.0
4024,8.602116116445329,0.0
4025,8.865091061202868,0.0
4026,8.634635330439702,0.0
4027,8.600445020599883,0.0
4028,8.133111434364896,0.0
4029,7.3666178977770445,0.0
4030,6.462154717961537,0.0
4031,6.899966022861969,0.0
4032,6.608087603764199,0.0
4033,6.41236446734137,0.0
4034,7.108752153906363,0.0
4035,7.143128488283431,0.0
4036,7.580051697397313,0.0
4037,7.589066133497749,0.0
4038,7.233222776925896,0.0
4039,7.2815624677896,0.0
4040,7.1456881772098555,0.0
4041,6.884011136671921,0.0
4042,7.166373651701364,0.0
4043,7.075289065880209,0.0
4044,7.465079371607485,0.0
4045,7.0313910551564875,0.0
4046,7.286125679406991,0.0
4047,7.472603905856445,0.0
4048,7.47709203536593,0.0
4049,7.3220400183800285,0.0
4050,7.111961544136136,0.0
4051,7.896242412416525,0.0
4052,7.352929669638514,0.0
4053,7.255842318259891,0.0
4054,6.906085635633316,0.0
4055,7.276200562096103,0.0
4056,7.095090919085257,0.0
4057,7.0411859391876845,0.0
4058,7.430571975855893,0.0
4059,7.534758896461874,0.0
4060,6.744832574132199,0.0
4061,7.257177995003184,0.0
4062,7.39546194865859,0.0
4063,7.531028573981668,0.0
4064,7.360367434714455,0.0
4065,7.166383145305372,0.0
4066,7.174907349573255,0.0
4067,7.29505216794004,0.0
4068,7.342483803497731,0.0
4069,7.467121598526122,0.0
4070,7.144465458492026,0.0
4071,6.761616481002687,0.0
4072,7.157489747634743,0.0
4073,7.857741945829739,0.0
4074,6.851803454523036,0.0
4075,7.14953636972906,0.0
4076,6.725887004506252,0.0
4077,7.690212570311302,0.0
4078,7.0340496694993835,0.0
4079,7.496777502855691,0.0
4080,7.485574239051125,0.0
4081,7.081899614344585,0.0
4082,6.5826965352097115,0.0
4083,7.241820449201396,0.0
4084,7.882671453324371,0.0
4085,7.0926513344882585,0.0
4086,7.604608174141734,0.0
4087,7.379968908788538,0.0
4088,6.812981793806909,0.0
4089,7.542344286412013,0.0
4090,6.684706031373185,0.0
4091,7.038584382899315,0.0
4092,7.108376616377109,0.0
4093,7.191671071162576,0.0
4094,6.6623627609857,0.0
4095,7.173236161932381,0.0
4096,7.434048917082166,0.0
4097,7.239520914658902,0.0
4098,7.427548901269968,0.0
4099,7.776353836193545,0.0
4100,8.033528094917502,0.0
4101,7.620741832558356,0.0
4102,8.462651172165847,0.0
4103,7.835911874059474,0.0
4104,8.908338639387829,0.0
4105,9.623423738006084,0.0
4106,10.968784430963726,0.0
4107,12.043217436044447,0.0
4108,12.99180085700294,0.0
4109,13.77375914700495,0.0
4110,14.410625515075857,0.0
4111,14.028630531903488,0.0
4112,13.852155335795064,0.0
4113,12.164087037812394,0.0
4114,10.90070392501068,0.0
4115,8.609559972783925,0.0
4116,7.194136132019208,0.0
4117,5.075970995287201,0.0
4118,4.702670255069698,0.0
4119,4.063443790298792,0.0
4120,4.955070630455408,0.0
4121,5.486828255473418,0.0
4122,6.400816116081657,0.0
4123,7.112071079818483,0.0
4124,8.746334242603838,0.0
4125,8.829394882449272,0.0
4126,8.58405396562591,0.0
4127,8.525642204036691,0.0
4128,8.171779349722826,0.0
4129,7.481441320396308,0.0
4130,6.863047262635704,0.0
4131,6.556930684846642,0.0
4132,6.522635760373525,0.0
4133,6.15017333910826,0.0
4134,7.202928549642638,0.0
4135,7.482606712494972,0.0
4136,7.343040474570046,0.0
4137,7.771457377488787,0.0
4138,7.907455806647435,0.0
4139,7.7265785204660675,0.0
4140,7.478120340000213,0.0
4141,7.567813667910387,0.0
4142,7.107070468329793,0.0
4143,6.855911520463214,0.0
4144,7.669930198364754,0.0
4145,7.430959626266769,0.0
4146,7.3587604840442,0.0
4147,7.467222606561187,0.0
4148,7.234745104844729,0.0
4149,7.26058763113577,0.0
4150,7.900755355664397,0.0
4151,7.253487700448804,0.0
4152,6.984368612273606,0.0
4153,7.422675665890144,0.0
4154,7.609372674443926,0.0
4155,7.178687583978846,0.0
4156,7.415826777064,0.0
4157,7.318464246884778,0.0
4158,7.212316654178544,0.0
4159,7.928898346179126,0.0
4160,7.559230206404872,0.0
4161,7.511577110956598,0.0
4162,7.701583555150974,0.0
4163,7.577775839976642,0.0
4164,7.77527972781174,0.0
4165,7.382018147823018,0.0
4166,7.517578209874524,0.0
4167,7.004247265029337,0.0
4168,7.489627942737806,0.0
4169,6.500921473833104,0.0
4170,7.608007276416063,0.0
4171,7.773524461840106,0.0
4172,7.457551303255885,0.0
4173,7.046331582997667,0.0
4174,7.2361093409659905,0.0
4175,7.290525938791476,0.0
4176,7.182833483439727,0.0
4177,7.745494403565794,0.0
4178,7.198082169434331,0.0
4179,7.442788517216302,0.0
4180,7.465417195362676,0.0
4181,7.413340202899624,0.0
4182,7.098820203865122,0.0
4183,6.966789110349107,0.0
4184,7.081846525011868,0.0
4185,7.4808742432902156,0.0
4186,7.187590373549393,0.0
4187,6.951801224677997,0.0
4188,7.073269845546167,0.0
4189,7.436979245654657,0.0
4190,7.553832290002708,0.0
4191,7.137882262444994,0.0
4192,7.207180224203327,0.0
4193,7.169040445544862,0.0
4194,7.226154101671257,0.0
4195,7.362207719104841,0.0
4196,7.242774976021357,0.0
4197,7.337140122926258,0.0
4198,7.309231006930271,0.0
4199,7.4223407936507835,0.0
4200,7.789001376652294,0.0
4201,7.505379322544356,0.0
4202,8.227236556647863,0.0
4203,8.581618523947366,0.0
4204,9.287245729297826,0.0
4205,9.390393117917073,0.0
4206,10.78326044520426,0.0
4207,11.594112083852039,0.0
4208,13.448828247581503,0.0
4209,13.396702847238753,0.0
4210,13.97991222434699,0.0
4211,14.574350458140266,0.0
4212,13.811276671985283,0.0
4213,12.37169411749817,0.0
4214,11.115552969085485,0.0
4215,8.562041614048471,0.0
4216,7.039920990063997,0.0
4217,5.291729405427305,0.0
4218,4.188003618805162,0.0
4219,4.453086819104109,0.0
4220,4.830879318346151,0.0
4221,5.105768568024488,0.0
4222,6.853249856918529,0.0
4223,7.562963098080655,0.0
4224,8.354926469392177,0.0
4225,9.277807424501518,0.0
4226,9.28468730436921,0.0
4227,8.456752111166022,0.0
4228,7.78320704255896,0.0
4229,7.2974109169895,0.0
4230,7.0821559514219246,0.0
4231,6.983268972479481,0.0
4232,6.775458853591316,0.0
4233,6.442632691404176,0.0
4234,7.095228567692163,0.0
4235,7.214896756568126,0.0
4236,7.065750247636083,0.0
4237,7.780018943365,0.0
4238,7.857187820167386,0.0
4239,7.406398030967997,0.0
4240,7.537343419047805,0.0
4241,7.1434336562392735,0.0
4242,7.622059708580674,0.0
4243,7.020212230636055,0.0
4244,7.581804860928978,0.0
4245,7.033882043328641,0.0
4246,7.127002860549362,0.0
4247,7.6274816407577815,0.0
4248,7.868822035172823,0.0
4249,7.119101532161754,0.0
4250,7.2343240515178024,0.0
4251,7.042856944668728,0.0
4252,7.311871774802391,0.0
4253,7.390028633079071,0.0
4254,7.691635732647237,0.0
4255,7.658914155529547,0.0
4256,7.073993178867767,0.0
4257,7.140136238816603,0.0
4258,7.460555186073235,0.0
4259,7.871011609296189,0.0
4260,7.20969501548272,0.0
4261,7.102624790292786,0.0
4262,7.58933387675269,0.0
4263,7.448965499569871,0.0
4264,7.515446352246628,0.0
4265,7.952918289259498,0.0
4266,7.020648004450015,0.0
4267,6.975556430184053,0.0
4268,7.353908351583219,0.0
4269,7.045001603070141,0.0
4270,7.3532905267753,0.0
4271,7.238020985382439,0.0
4272,7.526758792366275,0.0
4273,7.08832889453511,0.0
4274,7.023194025740104,0.0
4275,7.760928115610614,0.0
4276,7.615973769245598,0.0
4277,7.045563537250278,0.0
4278,7.133731168481125,0.0
4279,7.775044145691082,0.0
4280,7.248986222899709,0.0
4281,7.935097725504681,0.0
4282,6.71233545195853,0.0
4283,7.463237408088374,0.0
4284,7.401565813272144,0.0
4285,7.245458073133432,0.0
4286,7.871310381578219,0.0
4287,6.996247296205215,0.0
4288,7.799128521156774,0.0
4289,7.234170450866978,0.0
4290,7.288989017609272,0.0
4291,7.787537309557661,0.0
4292,7.434664028699592,0.0
4293,7.739120051282054,0.0
4294,7.313535417599392,0.0
4295,7.641951639597211,0.0
4296,7.896560515568174,0.0
4297,7.129913021859406,0.0
4298,7.798195137230384,0.0
4299,7.615831132713937,0.0
4300,7.478738724921139,0.0
4301,7.418024454427685,0.0
4302,7.6698770319855365,0.0
4303,8.705097958551999,0.0
4304,9.219073753660911,0.0
4305,9.717321558380087,0.0
4306,10.911414108448655,0.0
4307,11.790243519098475,0.0
4308,12.86010349445873,0.0
4309,13.92631007280406,0.0
4310,14.309615740439337,0.0
4311,14.43969233581511,0.0
4312,13.91039703289179,0.0
4313,12.156322361660738,0.0
4314,10.486997688552773,0.0
4315,9.068342270414762,0.0
4316,7.072414987286893,0.0
4317,5.392377036941201,0.0
4318,4.544091424600957,0.0
4319,4.217871237922601,0.0
4320,4.516408982531788,0.0
4321,5.255683030406681,0.0
4322,6.575196237894395,0.0
4323,7.772114567985576,0.0
4324,8.297013201452527,0.0
4325,9.318726358347751,0.0
4326,8.405592200469778,0.0
4327,8.138226327409479,0.0
4328,8.402033938049845,0.0
4329,7.560991347534443,0.0
4330,7.045475600047729,0.0
4331,6.892072269587327,0.0
4332,6.351138777798172,0.0
4333,6.641244054389398,0.0
4334,6.608346476494113,0.0
4335,7.215145965725517,0.0
4336,7.789263765242081,0.0
4337,8.020906728553493,0.0
4338,7.5226686388377875,0.0
4339,7.6808325542522065,0.0
4340,7.967094949257115,0.0
4341,7.456824196940468,0.0
4342,7.748855622059924,0.0
4343,7.375958922917208,0.0
4344,7.65900442143036,0.0
4345,7.727749368086501,0.0
4346,7.313029210049838,0.0
4347,7.129309647611383,0.0
4348,7.676161992663325,0.0
4349,7.236977063602591,0.0
4350,7.314148768608394,0.0
4351,7.481820324067721,0.0
4352,7.5950549800521205,0.0
4353,7.954943151432291,0.0
4354,7.811682862705504,0.0
4355,7.416979009477026,0.0
4356,7.639303319843143,0.0
4357,7.386506412401005,0.0
4358,7.553372978758807,0.0
4359,7.780932339817017,0.0
4360,7.467498901488278,0.0
4361,7.404772863377956,0.0
4362,7.071951232951859,0.0
4363,7.386837911255944,0.0
4364,7.511392506109379,0.0
4365,7.331510187002927,0.0
4366,7.748346251152211,0.0
4367,7.653665361001395,0.0
4368,7.029953961808445,0.0
4369,7.481657581153364,0.0
4370,7.477405302685498,0.0
4371,7.829030106371944,0.0
4372,7.646627560772724,0.0
4373,7.491433126269939,0.0
4374,7.557202166292605,0.0
4375,7.313609946971934,0.0
4376,7.734612241312703,0.0
4377,7.138393384355447,0.0
4378,7.0996085938533815,0.0
4379,7.434957318813088,0.0
4380,7.346339643341511,0.0
4381,7.435018908704003,0.0
4382,7.5916172954896375,0.0
4383,7.2127860040587235,0.0
4384,8.18710851561379,0.0
4385,7.1495581522730545,0.0
4386,6.969840812592846,0.0
4387,7.207485038458199,0.0
4388,7.64543966818846,0.0
4389,7.7194444872224,0.0
4390,7.686890154522366,0.0
4391,7.7682587819312126,0.0
4392,7.573920193332605,0.0
4393,7.838293457222871,0.0
4394,7.986424375256802,0.0
4395,7.621884327162322,0.0
4396,7.58847460733356,0.0
4397,7.191274643719444,0.0
4398,7.565762543485788,0.0
4399,7.581038899789643,0.0
4400,7.929163798788244,0.0
4401,7.775301740659053,0.0
4402,7.880607141850118,0.0
4403,8.495171729394468,0.0
4404,8.88715396091331,0.0
4405,9.675062308830434,0.0
4406,11.500409004995786,0.0
4407,11.582446362926948,0.0
4408,13.111056156964235,0.0
4409,14.199285348394502,0.0
4410,14.359638308122914,0.0
4411,14.782625497662925,0.0
4412,13.145984678599962,0.0
4413,12.475901215216687,0.0
4414,10.940828329319375,0.0
4415,8.964965891866665,0.0
