timestamp,value-0,is_anomaly
0,-1.9204429406356858,0
1,-1.9140252922939616,0
2,-0.6788262618993329,0
3,-0.26359867327932807,0
4,0.7229083558515872,0
5,1.9125057878859324,0
6,2.4881964494291946,0
7,3.2795454288827606,0
8,4.348162799053402,0
9,4.67299853549093,0
10,5.092022455127225,0
11,4.200957074250121,0
12,2.7861287001008996,0
13,1.6436154429588596,0
14,-0.06272355945391328,0
15,-2.3154070228393127,0
16,-3.5490407573970386,0
17,-4.708373888627759,0
18,-5.152857261431841,0
19,-4.322733349445912,0
20,-4.213038357752168,0
21,-2.9081538520629446,0
22,-1.8997092250393028,0
23,-1.1582049040000135,0
24,-0.6242790254989221,0
25,-0.562976708297976,0
26,-0.5810217301226765,0
27,-0.7433504765655323,0
28,-1.6181687067889832,0
29,-2.4961508729880366,0
30,-2.410130235689956,0
31,-2.49707362771962,0
32,-2.0942320477688003,0
33,-1.9309212445759072,0
34,-1.7588623073823666,0
35,-2.464743022114509,0
36,-1.664247826755191,0
37,-1.6760163959618228,0
38,-1.404302347740451,0
39,-0.9062514916751976,0
40,-1.1841591098638902,0
41,-1.6924799696598571,0
42,-1.84488020386711,0
43,-1.9352173681664164,0
44,-1.8359271414219525,0
45,-1.6897895402662753,0
46,-1.6244954514329082,0
47,-1.963433184887704,0
48,-2.3940300131380003,0
49,-1.6650014408864307,0
50,-1.6969313736757574,0
51,-1.407418824356821,0
52,-1.3954241870804904,0
53,-1.710640612429739,0
54,-1.2897544237310232,0
55,-1.8897011296293427,0
56,-2.199529086893253,0
57,-1.9620117730051512,0
58,-1.0959974503865975,0
59,-1.9817196492661209,0
60,-1.3199133953646691,0
61,-1.302176543099296,0
62,-0.8548441000473314,0
63,-2.0537874224575483,0
64,-1.3651191401084055,0
65,-1.5550264123223199,0
66,-2.1350306613980043,0
67,-1.3469754117385517,0
68,-1.246931437043128,0
69,-1.7583387306760294,0
70,-1.8067651752567833,0
71,-2.0735200723010614,0
72,-1.9573925133077767,0
73,-1.8839119372159614,0
74,-1.7639299345960167,0
75,-1.2086249598119017,0
76,-1.2608527745311098,0
77,-1.9513893193091052,0
78,-2.0463781929164555,0
79,-1.7417753872125106,0
80,-2.0621600160500364,0
81,-1.1791016848205522,0
82,-1.4289349629424242,0
83,-1.5798271411922415,0
84,-0.8760957462245664,0
85,-1.7240633820360203,0
86,-1.795568166879366,0
87,-1.4296919615147103,0
88,-1.4495883907439218,0
89,-1.1003807733726747,0
90,-1.5767137841313257,0
91,-1.4768640501720272,0
92,-1.7340686851179008,0
93,-1.4533431406849955,0
94,-1.2850661736839055,0
95,-1.6791540322657534,0
96,-1.5864541370839171,0
97,-1.6294581340728171,0
98,-2.041944657418855,0
99,-0.9170043372708275,0
100,-1.3061143944145366,0
101,-1.1819439273055439,0
102,-0.6211932397624431,0
103,0.26234230952564475,0
104,1.0627996616923843,0
105,1.8681309107194104,0
106,3.1283400855609957,0
107,3.955391951904776,0
108,4.961157771742441,0
109,5.011602244170584,0
110,5.964180164500964,0
111,4.493944727590794,0
112,2.9750954638076443,0
113,2.137268493884126,0
114,0.4795980140238616,0
115,-1.2942924321885396,0
116,-3.369296636519568,0
117,-3.524073850821459,0
118,-4.485621566273238,0
119,-4.2723382110649,0
120,-3.359379469650599,0
121,-2.3744574016633626,0
122,-1.270213295033014,0
123,-0.24987586045574006,0
124,0.6163611759252412,0
125,0.12403170954375864,0
126,-0.07848631412271168,0
127,-0.39120333071943747,0
128,-1.024279648008818,0
129,-2.4008255332145083,0
130,-1.6193540217811755,0
131,-2.5032280514367713,0
132,-2.1106567211634277,0
133,-1.682389491846278,0
134,-1.9453557697114294,0
135,-1.196195714313711,0
136,-1.0628269199740066,0
137,-0.5710358744838107,0
138,-1.0551196250129702,0
139,-1.2348158101037583,0
140,-1.2868946680019717,0
141,-1.509541269470174,0
142,-1.7677080305350714,0
143,-1.01876014432727,0
144,-1.3505087728245413,0
145,-1.341790510929926,0
146,-1.2273338191300944,0
147,-0.8455791883608129,0
148,-1.3119443028689377,0
149,-1.2961043994460277,0
150,-1.4599740579990992,0
151,-1.4629494480177396,0
152,-1.5634765724054258,0
153,-1.2257306156143528,0
154,-1.3760279338379777,0
155,-1.2486166870069781,0
156,-1.1763250602063589,0
157,-1.5861846348786246,0
158,-1.4567996959533314,0
159,-1.2784799217085174,0
160,-1.0291842536623883,0
161,-1.3758422867310276,0
162,-1.1083552059548165,0
163,-1.1964803492143874,0
164,-1.355230951908408,0
165,-1.102955144729542,0
166,-1.7031114400692997,0
167,-1.2747284010095155,0
168,-1.0666937662236469,0
169,-1.4421474257373863,0
170,-1.2741435226882587,0
171,-1.0920223961444624,0
172,-1.6323603567210394,0
173,-1.10801108065131,0
174,-1.2883407244758533,0
175,-1.306188860361332,0
176,-1.5123770667228786,0
177,-1.0828012744495914,0
178,-0.5289114380292962,0
179,-1.5224303851860368,0
180,-1.118638618878912,0
181,-1.7201973800212507,0
182,-1.1031297017306527,0
183,-1.140996581392705,0
184,-1.619453571453985,0
185,-0.9714451032052058,0
186,-1.0908653934383317,0
187,-1.4263323255553475,0
188,-1.320715269632663,0
189,-1.0558533266999275,0
190,-0.9455149575141449,0
191,-1.0599649088139145,0
192,-1.0813662563995476,0
193,-1.1282602661859007,0
194,-0.7839533000830323,0
195,-1.486993206048122,0
196,-1.3006772247392366,0
197,-1.4283804027956286,0
198,-1.4742570279551401,0
199,-1.502333888562449,0
200,-1.0271217069315095,0
201,-0.574404963085585,0
202,0.10174815207512311,0
203,0.495184640761436,0
204,1.2457339492464765,0
205,2.2385382952699358,0
206,3.721554212223795,0
207,4.179405763626617,0
208,5.090323863406109,0
209,5.858308433695478,0
210,5.7593904467789026,0
211,5.057953181720323,0
212,3.900810234133301,0
213,2.402035027103362,0
214,0.2679670019459033,0
215,-1.0139768633028645,0
216,-2.8794919633873732,0
217,-3.554847199103463,0
218,-3.796178158615631,0
219,-3.6319296737219195,0
220,-2.862240334496292,0
221,-1.535730151885545,0
222,-0.850169232508973,0
223,-0.06579053668289547,0
224,0.45456416027058477,0
225,0.5732187160213364,0
226,0.45712374814008183,0
227,0.24937575012577967,0
228,-0.8866008218841634,0
229,-1.09030885801284,0
230,-1.4863144037376113,0
231,-1.9948832920736577,0
232,-1.8650564695130327,0
233,-1.852799136591466,0
234,-0.8214080686507057,0
235,-0.8477726433086722,0
236,-0.37630911526874566,0
237,-0.46854937074331476,0
238,-1.1369995973977494,0
239,-1.0846107601248414,0
240,-0.9679967840124251,0
241,-0.5341664648088582,0
242,-1.1223663645642743,0
243,-0.8635656571441719,0
244,-0.6144607089944139,0
245,-0.7165284672483011,0
246,-0.9580296124896804,0
247,-1.1211077676511192,0
248,-0.22193327600670354,0
249,-0.48792528885804637,0
250,-1.1847679602206604,0
251,-0.8276641432219402,0
252,-0.4814744756683245,0
253,-0.7969369795158896,0
254,-0.6174542565794567,0
255,-0.8725997024227916,0
256,-0.2397965694372159,0
257,-0.9504302185432534,0
258,-0.3843347626301633,0
259,-1.0904891527086285,0
260,-0.5163791962980728,0
261,-0.6116675398742352,0
262,-0.9715771197029189,0
263,-0.11452548664601943,0
264,-0.6314385596811029,0
265,0.002993897055672934,0
266,-0.5908753920585983,0
267,-0.19853750500065065,0
268,-0.6038958863247647,0
269,-1.3292588206835572,0
270,-0.8720753894030726,0
271,-1.448122445870029,0
272,-0.5280788828965579,0
273,-0.43056587321896583,0
274,-0.5002759225908546,0
275,-0.6262984778754057,0
276,-0.71806984647294,0
277,-0.6486853013296723,0
278,-0.41887851756671934,0
279,-1.0190712516187586,0
280,-0.271562327885449,0
281,-0.6256203407621196,0
282,-0.5212557252966892,0
283,-0.4264543627949541,0
284,-1.0125628482227715,0
285,-0.7151424742138425,0
286,-0.5979900705638803,0
287,-0.5719186412605017,0
288,-0.3250865859531471,0
289,-0.5682090745018514,0
290,-0.32271821411235596,0
291,-0.5073634941662304,0
292,-0.4160289129613546,0
293,-0.43256764764436423,0
294,-0.4147042146990443,0
295,-0.8287828036554796,0
296,-0.21529249166930317,0
297,0.10978658174291539,0
298,-0.7658378746575348,0
299,-0.630892226997226,0
300,-0.39090892153583656,0
301,-0.5673557120026845,0
302,0.10872349189594388,0
303,1.1867940410053213,0
304,1.8966379624094472,0
305,3.0043950178383803,0
306,3.974585262763765,0
307,4.511020228505814,0
308,6.004963847134555,0
309,6.392385093289523,0
310,6.880772956396122,0
311,5.8478211635727995,0
312,4.145049008279817,0
313,3.7676065935189547,0
314,0.74241984638786,0
315,-0.532151512349474,0
316,-2.112236577491362,0
317,-3.3368911148636666,0
318,-3.5483912474227783,0
319,-3.4028690776687633,0
320,-2.511463297987775,0
321,-1.4972331586874947,0
322,-0.1687221616308885,0
323,1.079867789107693,0
324,0.786867369357595,0
325,1.1958314407530821,0
326,1.0026853600108154,0
327,0.0239480660913316,0
328,0.02117411772417077,0
329,-0.75818138231684,0
330,-1.0666265854721901,0
331,-1.3310848833147944,0
332,-0.8340511875935086,0
333,-1.1418049812415687,0
334,-0.2648334170078579,0
335,-0.8508014909647175,0
336,0.028001458933158363,0
337,-0.3151447661211588,0
338,-0.09097930270902527,0
339,-0.5626416843728357,0
340,-0.4424323236594264,0
341,-1.2322440358162663,0
342,-0.20227435337623642,0
343,-0.871366116259342,0
344,-0.2909381378248467,0
345,-0.11256117983208108,0
346,0.1295268084546377,0
347,-0.6534996417285328,0
348,0.7585883589432736,0
349,-0.12703904020303922,0
350,-0.7399303801951899,0
351,-1.0707227880755377,0
352,-0.5962844138006439,0
353,0.08727922513701565,0
354,-0.8866360012047204,0
355,-0.40426101838236245,0
356,-0.6664047675374958,0
357,-0.05392526818899748,0
358,-0.23613490637434276,0
359,-0.0753397781153663,0
360,-0.33540954214158797,0
361,0.24799676199325632,0
362,0.29841322203032977,0
363,-0.5770819991990388,0
364,-0.7990049546027067,0
365,-0.35829799999197637,0
366,-0.2913049896547699,0
367,-0.3133198801054982,0
368,-0.2971869354593731,0
369,-0.049992407393404166,0
370,0.22324806189830426,0
371,-0.5086843611031925,0
372,-0.246822272689372,0
373,0.08788197981029769,0
374,-0.3663104539744174,0
375,-1.0395763521441408,0
376,-0.09917439011524043,0
377,-0.8304014398307098,0
378,-0.515680101848969,0
379,-0.3269732391323155,0
380,-0.4566189784039948,0
381,-0.5053929696063795,0
382,-0.4482075042381715,0
383,-0.13461177629114854,0
384,-0.5954044100475263,0
385,-0.555882000453575,0
386,-0.1437867196847858,0
387,-0.2709038772673365,0
388,-0.5427892608218816,0
389,-0.07779212217935921,0
390,-0.30293276546576464,0
391,0.06203251787421519,0
392,-0.35814589420817167,0
393,-0.06498067476311645,0
394,0.025311556996644426,0
395,-0.5119178523495721,0
396,-0.35735794658637254,0
397,-0.09811222860895241,0
398,-0.25219448811733847,0
399,-0.5782239143511811,0
400,0.35565803158940895,0
401,0.1960058625752863,0
402,0.6205272019575012,0
403,1.5713187749786472,0
404,2.604199099759067,0
405,3.2895087596081414,0
406,4.29179073419649,0
407,5.162922523213486,0
408,6.474463841537001,0
409,6.707137343293742,0
410,7.0844417522881225,0
411,5.653288535467169,0
412,4.992276106196282,0
413,3.1453420438198534,0
414,1.795843794577051,0
415,0.3208649329795805,0
416,-1.8034793893465688,0
417,-2.4698851404129085,0
418,-3.510843669116275,0
419,-3.083562338591058,0
420,-2.5171815394469292,0
421,-0.47488772149434866,0
422,-0.411789443258916,0
423,0.8554931804514785,0
424,1.388993376431414,0
425,1.688781125561698,0
426,1.5016072727884424,0
427,0.4637491132659569,0
428,0.2764892761941893,0
429,-0.09157061649814036,0
430,-0.8449561453997633,0
431,-0.7622061229926147,0
432,-1.0654460451668268,0
433,-0.3150006651084837,0
434,-0.5126120265259178,0
435,-0.30938264684261546,0
436,0.3169145883687523,0
437,0.4065513231170277,0
438,0.26945163864572835,0
439,0.39318459770083525,0
440,-0.31403642268584,0
441,-0.1516284119759051,0
442,-0.3007222016247223,0
443,-0.547093776761646,0
444,-0.43913941143180457,0
445,0.04491078798584429,0
446,0.07849158950536127,0
447,0.4876850942304524,0
448,0.40690757308914516,0
449,0.19974076436008267,0
450,-0.023245048058713136,0
451,-0.5875400846444928,0
452,0.127692883065664,0
453,0.3611043485845924,0
454,-0.4533364826299127,0
455,-0.17338982248383275,0
456,0.4328391815090317,0
457,0.2140659609860488,0
458,0.30313052454243716,0
459,-0.21190614479707764,0
460,0.36089169083739453,0
461,0.4820654276041582,0
462,0.6238859946665827,0
463,-0.11702508609442709,0
464,-0.010508752090678796,0
465,-0.013319966292711217,0
466,-0.1473572600218636,0
467,0.19841574721463315,0
468,0.05408735473485961,0
469,-0.08038629201368314,0
470,0.01158471803914098,0
471,0.02802477436555757,0
472,-0.3241633744930106,0
473,-0.13050311233521947,0
474,-0.009325446723705201,0
475,0.4108168438891412,0
476,0.2204887598955079,0
477,0.15023794178696073,0
478,1.0203145405860852,0
479,0.24362621412119148,0
480,-0.0279871308565885,0
481,-0.1692838648975905,0
482,-0.26559288588583657,0
483,-0.4098401315797282,0
484,0.605143318743315,0
485,0.6287473396602694,0
486,0.8630643010129326,0
487,0.059911543149104116,0
488,0.48618010958863617,0
489,0.8742293875363386,0
490,0.7210813341746372,0
491,0.16167788107781592,0
492,0.33521579318797345,0
493,0.6806260959241763,0
494,0.44957734042884545,0
495,-0.26952369936856346,0
496,0.4898649745082687,0
497,0.2829742507227171,0
498,-0.1111263704606146,0
499,0.6650422539889879,0
500,0.3568476022508128,0
501,0.8291021705000705,0
502,1.2378614275054813,0
503,1.9035372822216468,0
504,2.104017746068584,0
505,3.781729870661198,0
506,4.614418759599728,0
507,5.230189834347851,0
508,6.082546392699549,0
509,6.935566403009439,0
510,7.475700721887925,0
511,7.712672847998656,0
512,5.384967603194913,0
513,3.7193424370818335,0
514,2.0431572918871055,0
515,-0.09906254019287739,0
516,-1.34032768518058,0
517,-2.5052605722703403,0
518,-1.9720111750352853,0
519,-2.197005030283361,0
520,-1.9338079760687281,0
521,-0.8171928944640788,0
522,-0.052735791901160706,0
523,1.4633276587116653,0
524,1.8762536599079789,0
525,1.6979743226266892,0
526,1.4666175666166654,0
527,1.2606973066265263,0
528,0.6042483753088939,0
529,0.5404020281832331,0
530,-0.1945515495689044,0
531,-0.6853752774041233,0
532,-0.10708877198064859,0
533,-0.19621369164117558,0
534,0.2209067357985064,0
535,0.08256343842716662,0
536,0.24422779975710193,0
537,0.7607628941220456,0
538,0.24103275095537485,0
539,0.6094221874485218,0
540,0.02891690451245823,0
541,0.5678447896380093,0
542,0.2151598000598809,0
543,-0.06010021523414483,0
544,-0.12814869625727537,0
545,-0.054905221780173596,0
546,0.24883922544270792,0
547,-0.26769870232126264,0
548,0.7738496080069094,0
549,-0.17125199418029885,0
550,0.6312869936922898,0
551,-0.014284661399852544,0
552,0.12459938384093344,0
553,0.0593452458370418,0
554,0.3181696059053914,0
555,0.5297782808615632,0
556,0.5985328728481323,0
557,0.6361408979634895,0
558,0.004315253115180674,0
559,0.5090710791087026,0
560,0.6870643899742844,0
561,1.043946900325225,0
562,0.5796266001827308,0
563,0.40835446235777206,0
564,0.048720123062152995,0
565,0.638843910764812,0
566,0.1643857521262247,0
567,0.8915713722933479,0
568,0.8710995408316572,0
569,0.41711700320100537,0
570,0.1626312361680767,0
571,0.5892199491030164,0
572,0.25015643087128325,0
573,0.4575604684557046,0
574,0.2760126205288636,0
575,0.8718403798762034,0
576,0.5934845981677351,0
577,0.549582623950232,0
578,0.6733092387426937,0
579,0.7619713344795517,0
580,0.2210996124618301,0
581,0.640572810083929,0
582,1.552885082067803,0
583,1.0206644658344186,0
584,1.043226400043369,0
585,0.0859309495426509,0
586,0.8384403258251009,0
587,1.114566500284016,0
588,0.7745681609003775,0
589,0.615160679024376,0
590,0.8629709497745706,0
591,0.62026175369349,0
592,0.646961706653854,0
593,0.2193512353747098,0
594,0.7570440874214431,0
595,0.5058937076716444,0
596,0.6437953389528333,0
597,0.5451201900681836,0
598,0.8437396507778707,0
599,-0.4202923774589081,0
600,0.6678073713378164,0
601,1.0240557041557454,0
602,1.8190959996425289,0
603,1.609688895816447,0
604,3.1372455829827546,0
605,3.552625183360859,0
606,5.046461458543051,0
607,6.431803809508443,0
608,7.0339699047470825,0
609,7.961355308423483,0
610,7.322658440778771,0
611,6.909220224218104,0
612,5.987143516186343,0
613,4.602961223362576,0
614,2.4343214382594263,0
615,0.9201239151557364,0
616,-1.3750401772957934,0
617,-1.891545261886351,0
618,-2.4961367746489413,0
619,-2.460602605305998,0
620,-1.4873206777127677,0
621,-0.04616384437558274,0
622,0.5011905928925819,0
623,0.8269805144436696,0
624,1.768719540021094,0
625,2.832638211360021,0
626,2.230559219328889,0
627,1.5372987196507917,0
628,1.4985790484565096,0
629,0.8076767901331456,0
630,0.2034702385104371,0
631,0.03401844830735379,0
632,0.07259147085436524,0
633,0.7330813770258383,0
634,0.7261666922931413,0
635,0.871237767607306,0
636,0.9790574396550333,0
637,1.2709993536028177,0
638,1.2606981275349258,0
639,0.7587937205997868,0
640,0.501224249394803,0
641,0.5879614730603893,0
642,0.8566130969501544,0
643,0.631113662893154,0
644,0.4371775091029799,0
645,0.06596982724924699,0
646,0.9053270391746616,0
647,0.6775638079297028,0
648,1.1920253506237732,0
649,0.7533292149650749,0
650,0.5552686275326009,0
651,0.9451549043934412,0
652,1.1242104016957675,0
653,0.48031530553058444,0
654,0.5382381789759281,0
655,1.5023672272533408,0
656,0.11944847016395392,0
657,1.0820642077817337,0
658,0.949090053131847,0
659,0.7384354752588792,0
660,0.7117498776513029,0
661,1.3691373452108466,0
662,0.6537850946280789,0
663,0.6624618681538125,0
664,0.35505151442897126,0
665,0.414769447790122,0
666,1.0919561914467155,0
667,0.49188745124727073,0
668,1.6651529703773384,0
669,0.8157043466743219,0
670,1.1615863870021295,0
671,0.6279052845335111,0
672,0.9049983321018921,0
673,0.5851914608975528,0
674,0.7161622942296908,0
675,0.9719645844177119,0
676,0.5935160280705031,0
677,1.084852181380102,0
678,0.762410007952767,0
679,0.8760746958184238,0
680,1.2815823810191966,0
681,0.5691073632498059,0
682,0.5399222483647532,0
683,0.7866062673344815,0
684,0.7029940937831937,0
685,0.8105920376149051,0
686,0.7712433239196884,0
687,0.9258878188442081,0
688,1.3045670526983193,0
689,1.1215400335570738,0
690,0.8603397876411643,0
691,0.8882774341137724,0
692,0.8650016395877531,0
693,1.1934455759807174,0
694,1.1564519593978098,0
695,0.666881667922355,0
696,0.8849306295018038,0
697,1.450226867115495,0
698,1.0119190298659204,0
699,0.778876829132126,0
700,1.3095191697129993,0
701,1.6957654989855846,0
702,1.744544377199767,0
703,2.5074916959193287,0
704,3.1842032769075916,0
705,4.421783805856762,0
706,5.41241257189582,0
707,6.008902329820051,0
708,7.219139148455717,0
709,7.417467413432288,0
710,7.817025585233335,0
711,7.187500251659558,0
712,6.006357670400311,0
713,4.614104114414596,0
714,2.670301679842153,0
715,1.1827949978998356,0
716,-0.3884723186241883,0
717,-1.5295508079354072,0
718,-2.399804645294114,0
719,-1.6693977432359661,0
720,-0.5596548736455293,0
721,-0.4869647091140361,0
722,0.3558482737261363,0
723,1.7500967657921587,0
724,3.2363880949559007,0
725,2.308373973829003,0
726,1.8887990265882626,0
727,2.419814865536278,0
728,1.3465608688534618,0
729,0.3375514137538998,0
730,0.2673490887209209,0
731,0.5797272024367713,0
732,0.5862981593747609,0
733,0.6691866135864335,0
734,1.1667425450711635,0
735,1.3681067297535159,0
736,1.4106330224674726,0
737,1.5591114558010983,0
738,1.3441182809762386,0
739,1.7705006346676335,0
740,1.1280980286166855,0
741,0.7056726009738266,0
742,0.7323719299612635,0
743,1.3527483016853148,0
744,1.0308471830464805,0
745,1.117260461545216,0
746,1.2453656472199812,0
747,1.3711046424102167,0
748,0.7259151912298696,0
749,0.9495000205722192,0
750,1.1043003602584782,0
751,1.1866031619087383,0
752,1.0589836856496881,0
753,0.7406282175427172,0
754,0.9438923595238841,0
755,0.961089242445175,0
756,1.3135083853855207,0
757,0.8923335546229655,0
758,0.7513284777229251,0
759,0.8795761520172303,0
760,1.6831839776225166,0
761,0.8707752355820875,0
762,1.3792267397926343,0
763,1.5514580366270427,0
764,1.1960050237928697,0
765,0.5876637940591879,0
766,1.2558219194348368,0
767,0.8939774220114414,0
768,1.2989368044365441,0
769,1.3698137561799841,0
770,1.2781285273724927,0
771,1.076421842662898,0
772,0.9582178260128514,0
773,1.1218344964164495,0
774,1.3854982798183735,0
775,1.0985334329187553,0
776,1.3458708607894734,0
777,1.3234393216125164,0
778,1.058754503936372,0
779,0.7515044156265069,0
780,1.7114690741859404,0
781,1.2669769874428742,0
782,0.7191738206021393,0
783,0.7474966220089654,0
784,1.239485700186521,0
785,1.7233209718738731,0
786,1.2307255944258535,0
787,0.7681478674533094,0
788,1.3723462432960203,0
789,1.1324330606789434,0
790,1.5947400795170565,0
791,0.9933947159539795,0
792,1.792261862410101,0
793,1.098580876662345,0
794,1.3276954288571479,0
795,1.067955842467372,0
796,1.8431180945065482,0
797,1.021328860748489,0
798,1.180479576252115,0
799,1.7621670714459483,0
800,0.9792359304165507,0
801,1.5740379204705777,0
802,2.0869660482235863,0
803,2.876031872701362,0
804,3.4716883186883,0
805,4.4499947066076775,0
806,5.888597751215603,0
807,6.6575463078341715,0
808,7.121351338891473,0
809,7.249204492880013,0
810,8.263989415470386,0
811,7.313926178363639,0
812,6.711913261093213,0
813,5.36761585563941,0
814,2.8190573048691934,0
815,0.9753412602722346,0
816,0.35936957396914093,0
817,-0.9847071314232652,0
818,-1.5959571687458731,0
819,-1.2414358425013143,0
820,-0.8673230681264652,0
821,-0.18906291287724697,0
822,1.4625040426852973,0
823,2.634633153698175,0
824,2.6916322254839296,0
825,2.6311675591257897,0
826,2.6532952656057245,0
827,2.408799206651057,0
828,1.4969892205491586,0
829,1.5478539156194466,0
830,0.46474966758577096,0
831,0.29797913549734867,0
832,0.8346492430902461,0
833,1.218901835022209,0
834,0.9186842196545696,0
835,1.816078828983113,0
836,2.0257974517603996,0
837,1.820334058000137,0
838,2.1177085087812735,0
839,1.7988844240680655,0
840,1.662115572614638,0
841,1.8621642565828014,0
842,1.4544937079434275,0
843,1.4621417933436276,0
844,1.3767808207806518,0
845,1.0846111478389735,0
846,1.4810861333212983,0
847,1.1947505317529845,0
848,1.4891726667816974,0
849,1.2935425119586592,0
850,1.1656969056927264,0
851,1.8112006699820955,0
852,1.7209003396532756,0
853,0.944518891919018,0
854,2.1046350795955284,0
855,1.336608763628271,0
856,2.0777449972374673,0
857,1.6495347385718218,0
858,1.6652034136341611,0
859,1.6951948558467484,0
860,1.4032810931515585,0
861,1.4074778760342495,0
862,1.4198140220620383,0
863,1.2731023660015268,0
864,1.7899882038955477,0
865,1.2794213669192942,0
866,1.7778255919012818,0
867,1.3380273323468963,0
868,1.6504894103480658,0
869,1.8113218324167832,0
870,1.7193253438326057,0
871,2.018102702991412,0
872,1.9473751559984043,0
873,1.149061566962538,0
874,1.2927429089127607,0
875,1.9788788597688973,0
876,1.8228385743797497,0
877,1.710458208878572,0
878,1.4635531217487157,0
879,1.5381646643337188,0
880,2.038519389450686,0
881,1.6641295017053568,0
882,1.2639450160973151,0
883,1.5239464739127746,0
884,1.4494761949932187,0
885,1.5565605808192882,0
886,1.1468937986669374,0
887,1.827080379671302,0
888,1.8201753737928554,0
889,2.0892793079044893,0
890,1.4241662000140034,0
891,1.9942074923925976,0
892,1.4991086833231564,0
893,1.5099113744235662,0
894,1.694900300357266,0
895,2.148594094318546,0
896,1.626804138945325,0
897,1.843799603017462,0
898,1.367124525706952,0
899,2.1719457523442096,0
900,1.804548765101285,0
901,2.397045346714135,0
902,2.0545343147472694,0
903,3.127347874774435,0
904,3.758331315761705,0
905,4.39481260112829,0
906,5.162465224583037,0
907,6.851609207457768,0
908,7.224783637162487,0
909,8.09892117661294,0
910,8.964114456898102,0
911,8.452396793479167,0
912,6.35274078374288,0
913,4.828571580510289,0
914,4.044201734387597,0
915,2.0402168349864094,0
916,0.2300002762707467,0
917,-1.377462380768484,0
918,-1.6411116345595742,0
919,-0.8699936490985212,0
920,-0.37184151705211876,0
921,0.49914457501623866,0
922,1.5552621284709562,0
923,2.376584847985963,0
924,3.4144941299212954,0
925,3.555831219729744,0
926,2.994291892597193,0
927,2.426546885036567,0
928,2.2307837168193014,0
929,1.809674054753417,0
930,1.3605929785115767,0
931,0.3477899464036637,0
932,0.647647168740737,0
933,1.2897058505147028,0
934,1.7941399678260588,0
935,1.6474477639175467,0
936,1.3209425727952495,0
937,2.177066389097051,0
938,2.4057640929636563,0
939,2.286183142652979,0
940,1.6339839365161586,0
941,1.2603797085407047,0
942,1.8214190978432896,0
943,1.492034120551417,0
944,2.0094270051993783,0
945,1.4124485066920678,0
946,2.502597294768227,0
947,2.0640710368904367,0
948,1.3193127359007917,0
949,1.7160759325466517,0
950,1.8424485856565262,0
951,1.3885894867870534,0
952,1.7412749436750912,0
953,1.6657080907784825,0
954,1.752450577774985,0
955,1.7450564546466794,0
956,2.1466602076408097,0
957,1.29273785785132,0
958,1.6962397284686483,0
959,2.0621415251076125,0
960,1.8225912096322374,0
961,1.9102689727212536,0
962,2.4962742157654865,0
963,1.816230355947552,0
964,2.0933679148687494,0
965,2.0228740587798923,0
966,1.981983547234033,0
967,1.9027945630269163,0
968,1.6232018266178772,0
969,1.4765364538085068,0
970,1.3601555234965732,0
971,1.4705095308731984,0
972,1.5109427802781203,0
973,2.6234048893258928,0
974,1.7674886685381648,0
975,1.9754962343052793,0
976,1.6865654015145517,0
977,1.8803802124647673,0
978,1.2031748639666677,0
979,1.914245488329699,0
980,1.9489731407893638,0
981,2.2740799982900315,0
982,2.028725678442597,0
983,1.8829693398311262,0
984,2.207060866171362,0
985,2.373147647803046,0
986,1.9698686465864512,0
987,1.735793338332596,0
988,1.8344932563763579,0
989,1.7252947225449813,0
990,1.1328830825900904,0
991,1.7935551468361028,0
992,1.4582523646203764,0
993,1.9908512416671655,0
994,1.6404695921981804,0
995,2.0481668866262317,0
996,2.1974172146383903,0
997,1.7888456738870389,0
998,1.81457162468509,0
999,2.486361939368048,0
1000,2.2701882322540428,0
1001,2.7738358334051876,0
1002,2.589865179804245,0
1003,3.035169727555302,0
1004,4.254496989052333,0
1005,5.163456017579498,0
1006,6.559559130107738,0
1007,7.30825965506006,0
1008,7.884713342623545,0
1009,8.725313800913032,0
1010,9.32840029588569,0
1011,8.391988813686059,0
1012,7.684949879204964,0
1013,5.4177511474102165,0
1014,4.159978559246083,0
1015,2.231820345082813,0
1016,0.7085425293755048,0
1017,-0.7037120929931793,0
1018,-0.9434439960398704,0
1019,-0.8828806308053614,0
1020,-0.30998130462807283,0
1021,1.0551843339075353,0
1022,2.0972824203583884,0
1023,2.6183771994271927,0
1024,3.5661220810684178,0
1025,3.8093927330443744,0
1026,3.0805605353304086,0
1027,2.3845094846398522,0
1028,1.771933001876171,0
1029,1.4920888449385081,0
1030,1.168772796083213,0
1031,1.2079256770019127,0
1032,1.7224158245582455,0
1033,2.188433436214919,0
1034,1.831816120694611,0
1035,1.8811206698746672,0
1036,2.3369209515579636,0
1037,2.7396683177165024,0
1038,2.137342838153245,0
1039,2.0539923365744617,0
1040,2.882126525074677,0
1041,2.132199722002237,0
1042,2.0442004473140516,0
1043,1.8658179022056014,0
1044,2.116489208670766,0
1045,2.2738604108947533,0
1046,2.0441749659597597,0
1047,1.8541437048458758,0
1048,2.2679382573851723,0
1049,2.042349611573692,0
1050,1.7690867515863293,0
1051,2.17208667755358,0
1052,2.5861660802053716,0
1053,1.9079809507104755,0
1054,2.09628357392779,0
1055,2.374499884862276,0
1056,2.1509815415407076,0
1057,1.7375795548694983,0
1058,2.6474492792141775,0
1059,2.4681626564398242,0
1060,1.9157439281055657,0
1061,2.4926762567559937,0
1062,2.0941111304885474,0
1063,2.0917824516212002,0
1064,2.520952198228781,0
1065,2.411718627258762,0
1066,2.0134354579604157,0
1067,2.4763865916323944,0
1068,1.8259958528326645,0
1069,2.1244553386030596,0
1070,2.7825710865086433,0
1071,1.8908475450847044,0
1072,2.3158742259942002,0
1073,1.9604300239113097,0
1074,2.0501748957368426,0
1075,2.596839568172558,0
1076,2.248227114219626,0
1077,2.0360631959536533,0
1078,2.086265069678309,0
1079,1.8262411205868265,0
1080,2.333923477996106,0
1081,1.9815263910031518,0
1082,2.407217120313126,0
1083,2.26704207470776,0
1084,2.2907832163994675,0
1085,2.2316809436917384,0
1086,2.7284408846521946,0
1087,2.1786650112417147,0
1088,2.2398757121921613,0
1089,2.4897833771196853,0
1090,2.630035900915845,0
1091,2.0265223294532,0
1092,2.4031227215902193,0
1093,2.5887612726228584,0
1094,2.246916098513438,0
1095,2.359816988221204,0
1096,2.3045519317473406,0
1097,2.306762093531076,0
1098,2.0942038382723758,0
1099,2.3172048870440407,0
1100,2.4006781116664904,0
1101,3.247847365267931,0
1102,2.6936154423086154,0
1103,3.593521115721898,0
1104,4.481280339645277,0
1105,5.572673430911621,0
1106,6.214699961303036,0
1107,7.79894207422643,0
1108,8.605790700207049,0
1109,9.220158911838446,0
1110,8.502497784728956,0
1111,8.76834421154779,0
1112,7.5133221095520355,0
1113,6.600881227546565,0
1114,4.334490684917132,0
1115,2.6435308759768628,0
1116,0.16316051012079735,0
1117,0.07815031762024605,0
1118,-0.6514639002899014,0
1119,-0.185583221186858,0
1120,-0.02253895340631118,0
1121,1.0314768463563004,0
1122,2.9348073940323727,0
1123,3.3009264426061655,0
1124,4.385172739982332,0
1125,3.911474777705325,0
1126,3.607401304736592,0
1127,3.185028498621674,0
1128,2.3459662279464086,0
1129,2.4279298579340614,0
1130,1.6543158185512028,0
1131,1.7505156697472348,0
1132,2.334665693063629,0
1133,2.270257576565495,0
1134,2.2814758399629884,0
1135,2.2948499271980096,0
1136,2.5979261492818932,0
1137,2.938826765320839,0
1138,2.593996271652251,0
1139,2.5681121963195905,0
1140,2.7779248113414923,0
1141,2.419673476911791,0
1142,2.8406597157522366,0
1143,2.6816796552317452,0
1144,1.9835820618211328,0
1145,2.4647377791189222,0
1146,1.9352909988923066,0
1147,2.6188950469681216,0
1148,2.2029165235937267,0
1149,2.7448140192522166,0
1150,2.4074204093724343,0
1151,2.2728766329060246,0
1152,2.593615616689707,0
1153,2.5912166549521713,0
1154,2.7193090030881075,0
1155,2.0791820591714503,0
1156,2.523694475237042,0
1157,2.9047594430604726,0
1158,2.405984870873797,0
1159,2.370284162981028,0
1160,1.8787294141334745,0
1161,1.9082438314508823,0
1162,2.6460521293194303,0
1163,2.382947875398863,0
1164,2.400100171051438,0
1165,2.619375442945402,0
1166,2.612792895454272,0
1167,2.0360544729827224,0
1168,2.422284593161019,0
1169,2.7926071405571276,0
1170,2.168643037250816,0
1171,2.4103240580919962,0
1172,2.678907595542889,0
1173,2.019755412537209,0
1174,2.8294552876218733,0
1175,2.3983270886528745,0
1176,2.5588038503570742,0
1177,2.3661190438353903,0
1178,2.6238432014133246,0
1179,2.61743702155214,0
1180,2.8542296482081797,0
1181,2.337129001087048,0
1182,2.7567346465996514,0
1183,2.4854675385892895,0
1184,1.8737309493327827,0
1185,2.5006031371872606,0
1186,2.5997984094662425,0
1187,2.7284625868003807,0
1188,2.549892384437278,0
1189,2.7586448769399823,0
1190,2.6577855100754917,0
1191,2.1831648919952515,0
1192,2.823771189533107,0
1193,3.0852191250877086,0
1194,2.6883907465526184,0
1195,2.1333565734213242,0
1196,3.040673547535401,0
1197,2.41524614744983,0
1198,2.8142899129373657,0
1199,2.775765999855851,0
1200,3.1692733198348924,0
1201,2.6948692014573767,0
1202,3.4664339267572486,0
1203,4.04743071282492,0
1204,4.3677889505508904,0
1205,5.597678285064736,0
1206,7.078304716231989,0
1207,7.815275098112453,0
1208,9.229712250959455,0
1209,9.843084616939791,0
1210,9.233363247939996,0
1211,9.108335256172996,0
1212,8.081889279932835,0
1213,6.23919132427343,0
1214,4.687638467656136,0
1215,3.0524682411862702,0
1216,1.1438832116321065,0
1217,-0.030867231110172533,0
1218,-0.537763175046404,0
1219,-0.09385476925701797,0
1220,0.6883526514125373,0
1221,1.7702532039074474,0
1222,2.4151483138864824,0
1223,4.085429040856766,0
1224,4.322235933287337,0
1225,3.641858859153076,0
1226,4.2992006374672,0
1227,3.46036621269682,0
1228,3.03932372364501,0
1229,2.406170546552307,0
1230,2.0757378609955546,0
1231,1.6137180470715966,0
1232,1.482205738989319,0
1233,2.5277823776628656,0
1234,2.1131907255429945,0
1235,3.1985606922076073,0
1236,3.1656728308094024,0
1237,2.940082875910124,0
1238,3.1610173763428295,0
1239,2.719998877518157,0
1240,2.3693470879162297,0
1241,3.2209003370568325,0
1242,2.567295855903221,0
1243,2.4393738492338812,0
1244,2.7649342549309575,0
1245,1.7698752802101954,0
1246,2.4580369549603667,0
1247,2.5542811246299304,0
1248,2.9072337112342264,0
1249,2.698554524661927,0
1250,2.8537505790015056,0
1251,2.7922351520497743,0
1252,2.4894407182560125,0
1253,3.5804179821276128,0
1254,3.086046016663062,0
1255,3.0088635844985623,0
1256,3.093988390933001,0
1257,2.571623515113387,0
1258,2.922451368589945,0
1259,2.9648953061907757,0
1260,2.747107449161822,0
1261,2.6203386306963554,0
1262,2.8016993295073602,0
1263,2.736161830616548,0
1264,2.878432983400485,0
1265,2.875904234502377,0
1266,3.006362437639626,0
1267,2.3088508510284913,0
1268,2.814151973697389,0
1269,2.6833870145425798,0
1270,2.7693782445762807,0
1271,2.998134172216473,0
1272,2.5519624482953494,0
1273,2.797524501888695,0
1274,2.4101858382767944,0
1275,2.8740067859460603,0
1276,2.8100601430525454,0
1277,2.593220843522774,0
1278,2.6271218279083475,0
1279,3.1247048221765477,0
1280,2.9395516929031964,0
1281,2.5527293595062925,0
1282,3.0351439445437554,0
1283,3.2523838584028435,0
1284,2.6886899102776822,0
1285,3.1316268425190343,0
1286,2.949581100948725,0
1287,2.8797834567096703,0
1288,3.0343004000775684,0
1289,2.7477789602596703,0
1290,3.1122632221790347,0
1291,2.8399560298380115,0
1292,2.852739599725037,0
1293,2.2651458604752217,0
1294,2.638661780329791,0
1295,2.697101368567187,0
1296,2.5977964099901603,0
1297,2.976661443745247,0
1298,2.9777012623607484,0
1299,2.759441270353354,0
1300,3.0636335234458576,0
1301,3.31684368201994,0
1302,3.52103805963186,0
1303,4.19900490359521,0
1304,4.876988394319286,0
1305,5.9354368693926665,0
1306,6.879507831237432,0
1307,8.07877475977153,0
1308,9.024265608702885,0
1309,9.580200889963034,0
1310,9.7696347360323,0
1311,9.388546431990783,0
1312,7.907252299889434,0
1313,6.971295576204401,0
1314,5.627342958001414,0
1315,3.057869732352368,0
1316,1.6101693959999872,0
1317,0.23660877656235213,0
1318,-0.22767984642577144,0
1319,0.209736783648951,0
1320,0.7926781834198664,0
1321,1.4412125124613633,0
1322,2.7912860939167947,0
1323,3.877845457387581,0
1324,4.249238019326375,0
1325,4.667185425502313,0
1326,4.449775495653959,0
1327,2.9097907837154033,0
1328,4.0099849512674455,0
1329,2.9269849181773293,0
1330,2.3363020255768774,0
1331,2.3782141503283283,0
1332,2.488253563417031,0
1333,2.8062495978484234,0
1334,2.872277848839057,0
1335,2.4880493265236687,0
1336,3.0362163725855664,0
1337,2.756453937179911,0
1338,3.118438726382022,0
1339,3.1162928903764855,0
1340,3.192263573674707,0
1341,2.4116599153916334,0
1342,2.9530377963543053,0
1343,3.2890023695141997,0
1344,3.367729471611628,0
1345,2.5252082228455524,0
1346,2.621012190325331,0
1347,3.4659879504174307,0
1348,2.996802326551248,0
1349,3.3978320895763403,0
1350,3.287699866399646,0
1351,2.090763483850415,0
1352,2.9995978277227344,0
1353,3.484877438360646,0
1354,3.2531935224369155,0
1355,3.115674215661174,0
1356,3.135728801084974,0
1357,2.9649223351701797,0
1358,3.1140962648744925,0
1359,3.235593328725404,0
1360,2.6502246972531793,0
1361,2.727203769220959,0
1362,3.466382700364793,0
1363,2.9194585954040764,0
1364,2.9864518838325655,0
1365,3.2348338392078473,0
1366,3.2773932543110798,0
1367,3.591253761995409,0
1368,3.1356720322904965,0
1369,3.5458927458488034,0
1370,2.949578047911866,0
1371,3.3940890293382333,0
1372,3.259888880864757,0
1373,3.3838198402112525,0
1374,3.152332055945511,0
1375,2.845360492704701,0
1376,3.1428494885368483,0
1377,3.1930925958895013,0
1378,3.4085900137554623,0
1379,3.0492554144103616,0
1380,3.4453194372457765,0
1381,2.8678740686141784,0
1382,2.964422736060238,0
1383,3.7701037358903675,0
1384,2.7900073633440448,0
1385,2.703782156133629,0
1386,3.4428896680992866,0
1387,2.9026732127502965,0
1388,3.2808250117925417,0
1389,3.5429239791572766,0
1390,2.9049392000174428,0
1391,2.3447228235328126,0
1392,3.2826082269862487,0
1393,3.1498083480578614,0
1394,3.371029550339693,0
1395,2.8773464458604345,0
1396,3.0126591579626645,0
1397,3.0633083246309534,0
1398,3.7325180821346873,0
1399,2.8253372111660706,0
1400,3.355245737575735,0
1401,3.470952465114589,0
1402,3.5218266808963654,0
1403,4.521103521814092,0
1404,5.010830381466048,0
1405,6.161536983982484,0
1406,7.454129647476452,0
1407,8.464727419149336,0
1408,9.255987121064942,0
1409,10.226311317084416,0
1410,10.174632623827463,0
1411,10.064535625443124,0
1412,8.69410075111677,0
1413,6.881222045309933,0
1414,4.803534546490703,0
1415,3.54043412476478,0
1416,1.69245487743764,0
1417,0.6612569538958977,0
1418,0.16439017346750973,0
1419,0.3523193910158926,0
1420,0.7645712187846163,0
1421,1.6915044152752945,0
1422,3.498210499171776,0
1423,4.402562551360542,0
1424,4.987159862846736,0
1425,4.943896327248259,0
1426,4.532542101596894,0
1427,4.419521283348643,0
1428,3.3706710737551213,0
1429,3.117586843176756,0
1430,2.495299421961353,0
1431,2.1771530579062492,0
1432,2.6293119179423656,0
1433,2.9253716564781183,0
1434,3.2276038607102544,0
1435,3.629967659601495,0
1436,3.8888751453087043,0
1437,3.8072487497508583,0
1438,3.0670344861864627,0
1439,2.8202209324290646,0
1440,3.42608119326915,0
1441,3.0517772662331755,0
1442,3.3983458858349938,0
1443,2.886101697782644,0
1444,3.5887866780306856,0
1445,3.471575497163203,0
1446,3.203025734317763,0
1447,3.090578625723537,0
1448,3.3744469310125504,0
1449,3.2300977532927955,0
1450,3.6451833442182573,0
1451,3.2080255578435484,0
1452,3.314756116498169,0
1453,3.3685205135374896,0
1454,3.534320612099435,0
1455,3.3256085721047732,0
1456,3.2223479657551457,0
1457,3.386925033153275,0
1458,3.5083726665938983,0
1459,3.274145980598536,0
1460,3.871738962087375,0
1461,3.1453466952002707,0
1462,3.2557460115834043,0
1463,3.5036549505354166,0
1464,2.948184583112434,0
1465,3.272519900719857,0
1466,2.949406900825886,0
1467,4.024231014820617,0
1468,2.9434147909465773,0
1469,3.8211313432905407,0
1470,3.1349072070751958,0
1471,3.3131901638075503,0
1472,3.506674276675751,0
1473,2.882874977074136,0
1474,3.3473700345674784,0
1475,4.009767511536466,0
1476,3.266252220925151,0
1477,3.294350459994332,0
1478,2.8889539849874835,0
1479,3.447999630408157,0
1480,3.1418858423484397,0
1481,3.4521872583697317,0
1482,3.1576212092898803,0
1483,3.0033778742174224,0
1484,2.864633508667631,0
1485,3.301778553532343,0
1486,3.571518333155623,0
1487,3.5428070253607404,0
1488,3.2221055282836386,0
1489,3.2138133890304017,0
1490,3.220022489026706,0
1491,3.3316171220020045,0
1492,3.3842898417803684,0
1493,3.563368502895937,0
1494,3.353255921964971,0
1495,3.623504873583982,0
1496,3.3157027374744588,0
1497,2.7937810045542286,0
1498,3.1063276952442194,0
1499,4.001480316955485,0
1500,3.4401576113286754,0
1501,3.6852506754505034,0
1502,4.139555997093523,0
1503,5.1805289610031116,0
1504,5.822492567922229,0
1505,6.836038983589298,0
1506,7.822346484506546,0
1507,8.935420353466572,0
1508,9.248834781978253,0
1509,9.885181160696444,0
1510,10.798357129726387,0
1511,9.99172744819019,0
1512,8.808920596388367,0
1513,7.220478830009659,0
1514,6.058923471509763,0
1515,3.8094268004178664,0
1516,2.028593735943836,0
1517,1.2873942593560601,0
1518,0.6965185612750506,0
1519,0.8489008267054543,0
1520,0.9908086004878016,0
1521,1.7760826545081407,0
1522,3.328380706008319,0
1523,4.616508917993997,0
1524,5.05045567069278,0
1525,4.784315845112772,0
1526,4.61635376476594,0
1527,4.44577443854384,0
1528,4.000369012744671,0
1529,3.4087551971469456,0
1530,2.9597728591081482,0
1531,2.935631531549582,0
1532,2.4410517834501397,0
1533,2.918308421479881,0
1534,3.0923631404156655,0
1535,3.649576071926657,0
1536,3.3734019612936965,0
1537,3.628557506238723,0
1538,3.656564130586039,0
1539,4.440467272599637,0
1540,3.233530818696642,0
1541,3.47588417797058,0
1542,3.1616786577213847,0
1543,3.3890715779333638,0
1544,3.441353640783517,0
1545,3.290444698364959,0
1546,3.1640302379139946,0
1547,3.407795209549145,0
1548,3.196515580065748,0
1549,3.455220274574657,0
1550,3.6277708855291557,0
1551,4.002917255881441,0
1552,3.678530460946313,0
1553,3.088352409495534,0
1554,3.6583350907408176,0
1555,3.240008212413479,0
1556,3.576960546481089,0
1557,4.006170513461214,0
1558,3.701138205084845,0
1559,3.555493128047206,0
1560,3.6723380760852056,0
1561,3.5197326734613488,0
1562,3.55414561051595,0
1563,4.104748492098902,0
1564,3.1467879941209875,0
1565,3.2667611383131536,0
1566,3.6641936824996493,0
1567,3.9571730102855063,0
1568,3.1861925765502868,0
1569,4.037588513486666,0
1570,3.8719769060589617,0
1571,3.2137321127414955,0
1572,3.449942334274092,0
1573,3.4143472727548656,0
1574,3.5527574458952835,0
1575,3.556978081869298,0
1576,3.3210914330238848,0
1577,3.5382334234879065,0
1578,3.388673091621457,0
1579,3.4538413891641997,0
1580,3.7522085177080324,0
1581,4.278461975580865,0
1582,4.386710387219749,0
1583,3.365287636464043,0
1584,3.871140179444086,0
1585,3.650448912476135,0
1586,3.503394285670517,0
1587,3.725693505634174,0
1588,3.4309608861579264,0
1589,3.753994281563396,0
1590,3.954603648177139,0
1591,3.5367737235184324,0
1592,3.617290008668355,0
1593,4.043478616024297,0
1594,3.939097430323815,0
1595,3.5726416086100135,0
1596,3.197875405912951,0
1597,4.154940674784033,0
1598,3.674169748984532,0
1599,3.7425778164804986,0
1600,3.9178566201241307,0
1601,3.8445639362976545,0
1602,4.672162800626795,0
1603,5.677759694534579,0
1604,5.314995044262018,0
1605,7.444062397744626,0
1606,8.216842865620215,0
1607,8.936755260045347,0
1608,9.654082560654514,0
1609,10.909192598491085,0
1610,10.444017218895324,0
1611,10.535059949552231,0
1612,9.438484036523626,0
1613,8.038760373708353,0
1614,6.229471736532534,0
1615,4.072543530579267,0
1616,2.73529383929682,0
1617,0.922825774440827,0
1618,0.2338420446167091,0
1619,0.8146873298444115,0
1620,1.4500042830638042,0
1621,2.5482735968676167,0
1622,3.5191502048152943,0
1623,4.466230468496872,0
1624,5.544566443085785,0
1625,5.6559825201468685,0
1626,5.433556317715271,0
1627,4.29986741945984,0
1628,4.745908793417202,0
1629,3.7319342181700836,0
1630,2.9664862223946273,0
1631,2.638858109713322,0
1632,2.6150597454635895,0
1633,2.9994276881604347,0
1634,4.012564258841883,0
1635,3.713826963616583,0
1636,4.2008950863962164,0
1637,4.0928582708929575,0
1638,4.518749084775125,0
1639,4.006006509742341,0
1640,4.2119442886729255,0
1641,3.1911507088170863,0
1642,4.727231120521172,0
1643,3.958103972004245,0
1644,3.341299046245552,0
1645,3.7265736601434023,0
1646,3.7467564534294007,0
1647,4.55392850286625,0
1648,3.89530771887743,0
1649,3.9293651882427243,0
1650,4.264216601145907,0
1651,4.294081437760868,0
1652,3.9299283577573876,0
1653,3.796942158729116,0
1654,4.202656908401702,0
1655,3.8991142665049887,0
1656,3.671658079627613,0
1657,3.66368226142261,0
1658,3.3452864706019816,0
1659,3.7447979185242937,0
1660,4.4146972309427115,0
1661,4.133743105278276,0
1662,3.8566536466435304,0
1663,3.6723878146685442,0
1664,3.490556742994726,0
1665,4.049278815764868,0
1666,4.286477850045845,0
1667,3.6625226708863616,0
1668,3.513718277661623,0
1669,3.758786514323024,0
1670,3.679130929741438,0
1671,4.170469876440659,0
1672,4.1905284795418165,0
1673,4.019380356351309,0
1674,4.141234725386254,0
1675,3.8233178514079076,0
1676,4.09237619003929,0
1677,3.418989546995728,0
1678,4.1347461979840645,0
1679,3.8178455587857565,0
1680,3.6955036194065523,0
1681,4.38360882403346,0
1682,3.576326454219344,0
1683,4.099976689933086,0
1684,3.6417642514101805,0
1685,3.3022253616830546,0
1686,4.086567407999229,0
1687,3.952068434686948,0
1688,3.7510447192581666,0
1689,3.8695206161715445,0
1690,4.203644892320785,0
1691,4.103499875468492,0
1692,3.6702962382257978,0
1693,3.52574323862391,0
1694,3.663019394252471,0
1695,3.672687402607868,0
1696,3.7699881686589767,0
1697,3.5887291026057193,0
1698,3.943760291125465,0
1699,3.770822047270728,0
1700,3.7029510325581674,0
1701,4.313061903836158,0
1702,4.764374147689428,0
1703,5.441280449124305,0
1704,6.467747075554838,0
1705,6.585820146601302,0
1706,7.800701270366869,0
1707,8.960261110807643,0
1708,9.665995936766318,0
1709,10.627589533634989,0
1710,10.543355707961073,0
1711,10.316314744013505,0
1712,9.622561267635067,0
1713,7.566669557528238,0
1714,5.955194051697081,0
1715,4.06722958145887,0
1716,2.5333054979889384,0
1717,0.940090660717273,0
1718,1.0411686197959473,0
1719,1.0535228858139853,0
1720,1.4675034392627802,0
1721,2.807098643120386,0
1722,3.6565127867271423,0
1723,4.879119301796622,0
1724,5.373158156250495,0
1725,5.405909588055458,0
1726,5.806450790210494,0
1727,5.077485056302323,0
1728,4.353057004485919,0
1729,3.824241015267785,0
1730,2.8499974180368044,0
1731,3.4833698926534344,0
1732,3.503931705812585,0
1733,3.802903297409144,0
1734,3.742479119250751,0
1735,3.5758064158821052,0
1736,4.655803958548907,0
1737,3.9524982273756826,0
1738,4.542607598326691,0
1739,4.012064638093,0
1740,4.25486189709276,0
1741,4.029514510627704,0
1742,3.2991140596849298,0
1743,3.663902772557405,0
1744,3.6636548255881265,0
1745,3.9124032344538895,0
1746,3.971480308371044,0
1747,3.8127622497139413,0
1748,3.9712648870043132,0
1749,3.902488134657927,0
1750,4.400185711487746,0
1751,3.84308401774127,0
1752,4.205483014806398,0
1753,3.969457029822246,0
1754,4.037289635471139,0
1755,3.678835185096216,0
1756,4.148053731431644,0
1757,4.009886255417496,0
1758,4.110683897700785,0
1759,3.921206335171115,0
1760,4.138533139970288,0
1761,4.425619725177313,0
1762,4.167362204993027,0
1763,3.3323921967570675,0
1764,4.030630349769418,0
1765,3.966008178455446,0
1766,3.73469563314088,0
1767,3.9275944214191836,0
1768,4.261791083054153,0
1769,4.410895901616055,0
1770,3.7013720525534084,0
1771,4.578490231850392,0
1772,4.34031996836249,0
1773,4.084721891836713,0
1774,4.193688257997733,0
1775,4.431104542694127,0
1776,3.6503123675628677,0
1777,4.133381686333175,0
1778,3.901173366954236,0
1779,3.1009191954792095,0
1780,3.7781113734861975,0
1781,3.71415989113687,0
1782,3.8168034503699424,0
1783,4.023600485213427,0
1784,4.495167394542659,0
1785,3.9898847750789583,0
1786,3.9631328682102565,0
1787,3.462817276279135,0
1788,3.6687207948369975,0
1789,4.240481129363772,0
1790,4.031581621107064,0
1791,3.7103151097640352,0
1792,3.894597111613657,0
1793,4.056403487134874,0
1794,4.4396039052780365,0
1795,4.122856944014023,0
1796,4.27741804790974,0
1797,4.038739194487283,0
1798,4.4385780062971385,0
1799,3.857872376320289,0
1800,3.9610203418675622,0
1801,4.266324731967378,0
1802,4.406731754236273,0
1803,5.3988571509452035,0
1804,6.221625011351916,0
1805,7.168170268336944,0
1806,7.9958859993237,0
1807,8.878593372754448,0
1808,10.111982186501733,0
1809,10.951017590377383,0
1810,11.27086257471811,0
1811,10.604084721577474,0
1812,9.960810800716478,0
1813,7.759534231070157,0
1814,6.448317457423602,0
1815,4.4082901822063825,0
1816,2.758642066860652,0
1817,2.085205411049607,0
1818,1.452627112819337,0
1819,1.5130451172098334,0
1820,1.5943547978676968,0
1821,2.18765547491161,0
1822,3.8829912216306566,0
1823,5.1955047970948165,0
1824,5.893250813768723,0
1825,5.981606450308408,0
1826,5.647309541314003,0
1827,5.295948557598847,0
1828,4.457560212792853,0
1829,3.6996241727209758,0
1830,3.971233969280644,0
1831,3.375404558395815,0
1832,3.8376002593312126,0
1833,3.8693576189840133,0
1834,4.0362948087780754,0
1835,4.500885789930394,0
1836,4.878003049053321,0
1837,4.496568874593536,0
1838,4.557583911287257,0
1839,3.922438382268783,0
1840,4.24203485823471,0
1841,3.574492429594221,0
1842,4.167745404940563,0
1843,4.513104317103502,0
1844,4.051331740569836,0
1845,4.110793872262802,0
1846,4.261763538533573,0
1847,4.424511918942461,0
1848,4.36522314533187,0
1849,4.566033610224369,0
1850,4.129240780551149,0
1851,4.4752029821534,0
1852,4.783332087164432,0
1853,3.9055205945535105,0
1854,4.379733610388174,0
1855,4.2992910278571035,0
1856,3.798014029603915,0
1857,4.358396008503664,0
1858,3.944837174235656,0
1859,3.762999340108534,0
1860,4.544025154942717,0
1861,4.172879362359084,0
1862,4.589637111311838,0
1863,3.9551472225565925,0
1864,4.118325916084775,0
1865,4.439156077778896,0
1866,4.611429010367449,0
1867,4.402149985997242,0
1868,4.117033058364196,0
1869,4.070149147111497,0
1870,4.305827106701235,0
1871,3.804913428367811,0
1872,4.226014301017014,0
1873,4.47736539846534,0
1874,3.992868551569508,0
1875,4.614224168719306,0
1876,4.406939935800384,0
1877,4.697719394187069,0
1878,4.284253725872054,0
1879,4.820038663947193,0
1880,4.525873566066892,0
1881,3.7264059365426494,0
1882,4.967437703649601,0
1883,4.2605289499081005,0
1884,4.368595062806586,0
1885,4.379018114509279,0
1886,4.130160478395591,0
1887,4.110946763594292,0
1888,4.315899172571141,0
1889,4.637737004578718,0
1890,4.706300008848573,0
1891,4.574411964378955,0
1892,4.749385525874747,0
1893,3.838438114335229,0
1894,4.675011683841223,0
1895,4.341726268502138,0
1896,4.2773619779935155,0
1897,4.258318024634523,0
1898,4.629283706339951,0
1899,4.588381352572372,0
1900,4.839280388971051,0
1901,4.243655867546335,0
1902,5.2243257149116085,0
1903,5.737811566204035,0
1904,6.980570545717368,0
1905,6.667976399604203,0
1906,8.208617287645076,0
1907,9.529757903335433,0
1908,10.089443253186628,0
1909,10.324133866564258,0
1910,11.144056739992429,0
1911,11.03082879621685,0
1912,9.739518546551508,0
1913,8.800127051019384,0
1914,6.858307594763015,0
1915,5.07548077000112,0
1916,3.893550289496961,0
1917,2.193311088690268,0
1918,1.8973054902986966,0
1919,1.63738440978574,0
1920,1.733353820005409,0
1921,2.727873477684282,0
1922,3.8583676106286844,0
1923,5.107509516780765,0
1924,5.970585260204709,0
1925,6.507125124696541,0
1926,6.023901492315072,0
1927,5.528055895146854,0
1928,4.94535318411874,0
1929,3.7203680984965466,0
1930,3.9121462336587687,0
1931,4.443013159440795,0
1932,3.3884819376164765,0
1933,3.174139117698338,0
1934,4.295463833306765,0
1935,4.6943277360999085,0
1936,4.637995933546398,0
1937,4.69364620703947,0
1938,4.881317990795689,0
1939,4.513272883023766,0
1940,4.494057395443185,0
1941,4.796672614692822,0
1942,4.497567183396609,0
1943,4.343932398651674,0
1944,4.661264576379101,0
1945,3.98791081725754,0
1946,4.479078180217373,0
1947,4.227509111863658,0
1948,4.485117298162727,0
1949,4.4424558629299105,0
1950,4.5145488696897065,0
1951,4.1819547705373505,0
1952,4.551229415157313,0
1953,4.470088702060245,0
1954,4.787815683117114,0
1955,4.698652340707787,0
1956,4.37793161567923,0
1957,4.678295797569749,0
1958,4.661240915996239,0
1959,4.574906051433628,0
1960,4.912809195526582,0
1961,3.8196999521273,0
1962,4.459487308871825,0
1963,4.327789073580433,0
1964,4.912071695352549,0
1965,4.753478874719957,0
1966,4.252194170519112,0
1967,4.612317733913007,0
1968,4.684424992075877,0
1969,4.216882547580831,0
1970,4.362141345606368,0
1971,4.3679229565625075,0
1972,4.189982152235043,0
1973,4.286186021844677,0
1974,4.493440146890734,0
1975,4.439628075447384,0
1976,4.713957160949522,0
1977,4.629902982454472,0
1978,4.8981085178182,0
1979,5.0397879476382625,0
1980,4.417546948214434,0
1981,4.458782186868875,0
1982,4.920276916506584,0
1983,4.594451340254198,0
1984,4.406110846223106,0
1985,4.394986136906436,0
1986,4.179455468060895,0
1987,4.612081478199904,0
1988,4.6420713273285035,0
1989,4.542456098797206,0
1990,4.593833964521479,0
1991,4.054197595980244,0
1992,4.341394733726199,0
1993,5.082871256109207,0
1994,4.410081059570151,0
1995,3.958466064502827,0
1996,4.321279758945154,0
1997,4.277981536555626,0
1998,4.044190682016379,0
1999,5.213168832379546,0
2000,5.190079942796904,0
2001,5.045272367284518,0
2002,4.847482812031437,0
2003,5.684551354805627,0
2004,5.9726132095509605,0
2005,6.718228613074848,0
2006,9.005773776667576,0
2007,9.952616897883681,0
2008,10.384684485590412,0
2009,11.680282210744778,0
2010,11.446528870052855,0
2011,11.178755258124873,0
2012,10.399921144970328,0
2013,9.110242506483438,0
2014,7.2785850663183655,0
2015,4.965394168665551,0
2016,3.493014985524881,0
2017,2.2266166137183374,0
2018,1.5212365228130604,0
2019,1.6445295329899223,0
2020,2.657808753188856,0
2021,3.3359285442278424,0
2022,4.622875717880534,0
2023,5.439845483686154,0
2024,5.515512128714268,0
2025,6.315165256417616,0
2026,6.198454102769627,0
2027,5.57855957197145,0
2028,5.059709604052872,0
2029,4.830913116563101,0
2030,4.291850275592545,0
2031,3.9729997610551817,0
2032,3.4417983881966885,0
2033,4.6565308249912984,0
2034,5.2040879229047174,0
2035,4.567986460807219,0
2036,4.610512034405224,0
2037,4.7046110716611,0
2038,4.569524503667547,0
2039,4.450773588196699,0
2040,4.679202503014886,0
2041,4.707277747776329,0
2042,4.388017610120402,0
2043,4.698375889293196,0
2044,4.576385486987708,0
2045,4.645135652537103,0
2046,4.606034939425586,0
2047,4.6466457760730915,0
2048,4.360263320348595,0
2049,4.368151162601864,0
2050,4.568705072580499,0
2051,4.585305576595988,0
2052,4.7789581821371705,0
2053,5.005904587492724,0
2054,4.771544676412922,0
2055,4.912239415773674,0
2056,4.708082531597839,0
2057,4.896341225675146,0
2058,4.6856221023033005,0
2059,4.724694189057773,0
2060,4.6435064159711255,0
2061,4.685480899202492,0
2062,4.6347765261629315,0
2063,4.077985525706839,0
2064,4.421079330393639,0
2065,4.7675641397461925,0
2066,4.298881184458623,0
2067,4.567942699558522,0
2068,4.927511288080746,0
2069,4.980597076249233,0
2070,4.490946017341056,0
2071,4.525461079779945,0
2072,4.412920225944978,0
2073,5.240847105374535,0
2074,4.502063237809547,0
2075,4.876683350790177,0
2076,4.055321529716238,0
2077,4.915666704241113,0
2078,4.807035694029547,0
2079,5.312720494466818,0
2080,4.924664670899194,0
2081,4.282532754419285,0
2082,4.538558449542328,0
2083,4.489388111669997,0
2084,4.927478184656999,0
2085,4.772915377971529,0
2086,4.549950297144261,0
2087,4.402599552149366,0
2088,4.895130472811493,0
2089,4.265032471708481,0
2090,4.574222937020178,0
2091,4.570730377160901,0
2092,4.2623604091563,0
2093,5.38217608531163,0
2094,3.9847540837961364,0
2095,4.957178356487782,0
2096,4.580775688681018,0
2097,4.7697170529856,0
2098,4.855959639206521,0
2099,5.157430694992376,0
2100,4.706093597600296,0
2101,4.808869635937701,0
2102,5.112923469701814,0
2103,5.959723128610813,0
2104,6.872559118029473,0
2105,7.130365656616056,0
2106,8.86779060037304,0
2107,9.39074590483391,0
2108,10.647987102276366,0
2109,11.34932322547536,0
2110,11.550086601229914,0
2111,11.663250292957864,0
2112,10.510364677258877,0
2113,8.692526326318262,0
2114,7.798160021592819,0
2115,5.12842377679576,0
2116,3.862773543621327,0
2117,2.357718184843845,0
2118,1.5538925085802981,0
2119,1.5907131835008794,0
2120,2.6931293212836462,0
2121,3.3290226870905113,0
2122,4.538490790993317,0
2123,5.069815198035639,0
2124,6.2485039871931125,0
2125,7.234970464003785,0
2126,6.268073578597554,0
2127,5.910633648386369,0
2128,4.497788777805498,0
2129,4.940299338603691,0
2130,4.204237693830027,0
2131,3.9626841975900486,0
2132,4.089607926128646,0
2133,4.842499965347573,0
2134,4.3700012420133465,0
2135,4.76390490089115,0
2136,4.932873842315919,0
2137,4.614931613339333,0
2138,5.583792651091506,0
2139,4.597485805541214,0
2140,4.6477235137985975,0
2141,4.916721489130628,0
2142,5.245403893858919,0
2143,4.657895397570958,0
2144,4.706758409439239,0
2145,4.3682018341538855,0
2146,4.6174253177854,0
2147,5.10028198868601,0
2148,4.706553650097144,0
2149,4.983624319355371,0
2150,4.754308369850652,0
2151,5.152304821070731,0
2152,4.410884615951739,0
2153,5.120452562482568,0
2154,4.593649905040052,0
2155,4.8281909813784045,0
2156,4.824550358104241,0
2157,4.8462523870669845,0
2158,4.788612903712224,0
2159,4.472736901325336,0
2160,4.856129894783067,0
2161,4.818544879258414,0
2162,4.7119881660720315,0
2163,4.61783218078071,0
2164,4.592456907597208,0
2165,4.646354093882845,0
2166,5.225377409834214,0
2167,4.988907784449157,0
2168,4.924631781016243,0
2169,5.06160061209052,0
2170,5.390517972480861,0
2171,4.4800186985279575,0
2172,4.842521273214029,0
2173,4.462778630651839,0
2174,4.751680485794103,0
2175,4.787238387253483,0
2176,4.848282089790614,0
2177,4.927360015861517,0
2178,4.652364595497514,0
2179,4.368782985810674,0
2180,5.046270652015765,0
2181,5.073559511856206,0
2182,4.921010054929366,0
2183,4.658422988055368,0
2184,5.129838452695554,0
2185,4.628881889984626,0
2186,4.50927125487403,0
2187,4.8076958025707,0
2188,4.594617725464364,0
2189,5.328735748701265,0
2190,5.1375518403659655,0
2191,4.615001336918208,0
2192,4.91518822168744,0
2193,4.987457692020025,0
2194,4.9041712015350205,0
2195,5.530163911478467,0
2196,4.767382392245203,0
2197,4.464349448164629,0
2198,4.834920425453426,0
2199,5.419890058408048,0
2200,5.626844470643309,0
2201,5.285245553859986,0
2202,5.384896892385128,0
2203,6.412661293717141,0
2204,7.375131027533088,0
2205,7.789977844759262,0
2206,8.937940719266933,0
2207,9.898527539510031,0
2208,10.98504256001852,0
2209,11.567113839034773,0
2210,12.019279461665178,0
2211,11.955134690988444,0
2212,10.463143993494716,0
2213,9.205707999482813,0
2214,7.578152527495796,0
2215,6.1920722652366,0
2216,4.436311693715034,0
2217,2.7088277387368924,0
2218,2.1032617292069946,0
2219,1.7133125190012692,0
2220,2.3414997541357665,0
2221,3.541746667227845,0
2222,4.902298823396564,0
2223,5.28212523348598,0
2224,6.4931081967552,0
2225,6.319974660205942,0
2226,7.11429107598272,0
2227,6.265917221668172,0
2228,5.612390010657094,0
2229,5.046807191886909,0
2230,4.649644957088089,0
2231,3.731063796108919,0
2232,4.211478775367798,0
2233,4.589635480010692,0
2234,4.944641562789326,0
2235,4.730055032300498,0
2236,5.261318599500995,0
2237,4.734914324399503,0
2238,5.537596748741498,0
2239,5.4607938906522255,0
2240,4.954187457622627,0
2241,5.062642273910748,0
2242,5.1677108124545015,0
2243,4.937377475214745,0
2244,4.739747697111751,0
2245,5.028246070546009,0
2246,5.075532976886301,0
2247,4.779070363475351,0
2248,4.931588553827843,0
2249,4.898861863415113,0
2250,4.51006623181781,0
2251,4.6998966055562885,0
2252,5.047882125532989,0
2253,4.894037640330763,0
2254,5.40826188083912,0
2255,4.915885983776441,0
2256,5.2043375686021385,0
2257,5.300604194664986,0
2258,5.261530198771829,0
2259,4.438874229164126,0
2260,4.930081013070417,0
2261,5.358589780959502,0
2262,4.467047263883518,0
2263,4.969722640238652,0
2264,4.892039389077209,0
2265,4.9053662976109385,0
2266,5.343665696828439,0
2267,5.497410100666591,0
2268,4.841906037222261,0
2269,5.085121251739042,0
2270,5.224085960534284,0
2271,5.083349681886928,0
2272,5.254798503103889,0
2273,5.642232422899297,0
2274,5.299255777999914,0
2275,4.505339211479134,0
2276,4.801556492853368,0
2277,5.124432736117497,0
2278,5.568851113200591,0
2279,5.411361750836568,0
2280,5.249034964506991,0
2281,5.09385058421698,0
2282,5.148942464185165,0
2283,4.6978637238321515,0
2284,5.011239088380709,0
2285,4.910501720098288,0
2286,5.415290685366095,0
2287,4.94265842501413,0
2288,4.762288317066175,0
2289,5.60259016197249,0
2290,5.591212880283315,0
2291,4.781519056324736,0
2292,5.171737415061775,0
2293,5.675862848010504,0
2294,5.1224422402806935,0
2295,4.976825182283315,0
2296,5.121101192850203,0
2297,5.215468854540705,0
2298,4.390414124634924,0
2299,5.619794941253257,0
2300,5.098284227052946,0
2301,5.906154773608372,0
2302,6.284489873448095,0
2303,6.480255492326206,0
2304,7.158433427906079,0
2305,8.674321418817101,0
2306,8.808178868479253,0
2307,10.474976429423307,0
2308,10.913948986654383,0
2309,11.771654129034115,0
2310,11.799577650119204,0
2311,11.671222721458609,0
2312,11.155131679636963,0
2313,9.576777599925247,0
2314,7.973191411955293,0
2315,5.8443982932119996,0
2316,4.217563821980865,0
2317,2.780217399895774,0
2318,2.655918626284931,0
2319,1.7110099208261245,0
2320,2.8890747532082632,0
2321,4.6830205571559915,0
2322,5.007708497212255,0
2323,5.566958353282517,0
2324,6.094135800337099,0
2325,6.659836550584208,0
2326,6.786355378969104,0
2327,5.917968544334243,0
2328,5.601318605043295,0
2329,5.056407540358082,0
2330,4.644480857847634,0
2331,4.2513996745517915,0
2332,3.9878796501777938,0
2333,4.700787109325744,0
2334,4.960655594055119,0
2335,5.099190704162029,0
2336,5.66917745806782,0
2337,5.5475636036936375,0
2338,5.451076769734237,0
2339,5.574459088173828,0
2340,5.876599344243904,0
2341,5.16680993973936,0
2342,5.091888375019745,0
2343,5.194664956888468,0
2344,5.213516187464455,0
2345,5.532709608992221,0
2346,5.070497671596362,0
2347,5.7112192824032295,0
2348,5.228131861203052,0
2349,5.301251112316241,0
2350,5.402152181012363,0
2351,5.699781793410975,0
2352,4.961882493786298,0
2353,5.225838199929831,0
2354,5.238066071167853,0
2355,5.1695176898194175,0
2356,5.2753045028033,0
2357,6.153702170083163,0
2358,5.295630955824838,0
2359,5.600373011389266,0
2360,5.379267981028174,0
2361,5.115950016058997,0
2362,5.762506396148404,0
2363,5.417349980319319,0
2364,6.039602806218551,0
2365,4.99815291143478,0
2366,5.240929843266218,0
2367,5.543283382847802,0
2368,5.744804450730305,0
2369,5.252392748197834,0
2370,6.031587910569568,0
2371,4.3988005927246885,0
2372,5.3179515461746965,0
2373,5.81427131824884,0
2374,5.17850465567801,0
2375,4.565500602405342,0
2376,5.285256216028209,0
2377,5.172603885618322,0
2378,5.444669397666418,0
2379,5.969835281723077,0
2380,5.406393008851212,0
2381,5.521989778152142,0
2382,5.730867767731133,0
2383,4.773571207848731,0
2384,5.690389891658674,0
2385,5.848892078769916,0
2386,5.63903098775524,0
2387,5.367555540178331,0
2388,5.236606841835249,0
2389,5.424404285692743,0
2390,5.241446894305762,0
2391,4.928460189564892,0
2392,5.261261901378504,0
2393,5.484941318829349,0
2394,5.505085220739999,0
2395,5.456580085938696,0
2396,5.943955672951718,0
2397,5.2213194536812155,0
2398,5.6880538104544005,0
2399,5.361574772621265,0
2400,5.515646193960076,0
2401,5.4494011503932445,0
2402,5.752426416628034,0
2403,6.2647318222408,0
2404,7.676967060841803,0
2405,8.116222652203406,0
2406,9.431824601732924,0
2407,10.076058197984231,0
2408,11.115055360498069,0
2409,12.28144477669952,0
2410,12.144889261902241,0
2411,11.838732713873043,0
2412,11.640271684890646,0
2413,10.01136407029252,0
2414,8.306112155597322,0
2415,6.36669852074904,0
2416,4.162038658844062,0
2417,3.370234200403938,0
2418,2.1718304622390403,0
2419,2.5367250246520854,0
2420,3.6312728041230646,0
2421,4.646752032484658,0
2422,4.78582597817281,0
2423,5.55254158995689,0
2424,6.506281762133975,0
2425,7.221423209130443,0
2426,6.463097735042407,0
2427,6.452000709918233,0
2428,6.157345220114508,0
2429,4.964417671316714,0
2430,5.16962610740877,0
2431,4.907050457304159,0
2432,4.646702463817337,0
2433,5.65716219869103,0
2434,5.206458520269253,0
2435,5.4058983265477965,0
2436,5.830705572326865,0
2437,5.812970389322843,0
2438,5.551604872283888,0
2439,5.005494186694583,0
2440,5.487786575912076,0
2441,5.203194943351136,0
2442,5.227547525467534,0
2443,5.308823220232572,0
2444,5.333566799934087,0
2445,5.731220742316421,0
2446,5.309212643584175,0
2447,5.6792415249079955,0
2448,5.5644154870611136,0
2449,5.249682299393627,0
2450,5.467677030288976,0
2451,5.357958402563772,0
2452,5.13103512922482,0
2453,5.5162535343694525,0
2454,5.426733240604215,0
2455,5.633953293525847,0
2456,5.523877804691871,0
2457,5.718082266364269,0
2458,6.052634285248298,0
2459,5.368042999683516,0
2460,5.732489098797917,0
2461,5.457555219358424,0
2462,5.958622587654631,0
2463,5.733814354814121,0
2464,5.462432313347731,0
2465,5.487062115403857,0
2466,6.169503125138907,0
2467,5.334204684230973,0
2468,5.412715049932348,0
2469,5.317472893287876,0
2470,5.712909016061647,0
2471,5.403860277992667,0
2472,5.687230654914988,0
2473,5.821245947444065,0
2474,5.3335797456875245,0
2475,5.634114217909999,0
2476,5.802679095283794,0
2477,5.4800782177326655,0
2478,5.964687937248854,0
2479,5.3509682923911255,0
2480,5.712518711598907,0
2481,5.678362238276423,0
2482,5.155913024739563,0
2483,5.201056998905077,0
2484,4.873701714904065,0
2485,5.3648786718957595,0
2486,5.402242337538474,0
2487,6.318539618609075,0
2488,5.8231389997005465,0
2489,5.546522657750642,0
2490,5.290513675319406,0
2491,5.714134744017632,0
2492,5.679886091467963,0
2493,4.877476106968644,0
2494,5.3678557128553335,0
2495,5.22935955092463,0
2496,6.089248416885503,0
2497,5.9388189199681785,0
2498,5.727686661650339,0
2499,5.630447946208558,0
2500,6.038355582743497,0
2501,5.887730517967884,0
2502,6.576097505224305,0
2503,6.2400133181006385,0
2504,7.347975515178603,0
2505,8.397220218431986,0
2506,9.69274637232568,0
2507,10.792290024106812,0
2508,11.613484938754986,0
2509,12.313053972114318,0
2510,12.630890999912669,0
2511,12.137317245905791,0
2512,11.013754263142538,0
2513,9.690677767582638,0
2514,8.764267120941511,0
2515,6.706422059056048,0
2516,3.9998132472801613,0
2517,3.2830790070705844,0
2518,3.1894897127179114,0
2519,2.7560367491153985,0
2520,3.198953302422536,0
2521,4.208198787936914,0
2522,4.972110378480247,0
2523,6.6340670541840145,0
2524,7.031964822553821,0
2525,7.662966735329732,0
2526,6.884680929854886,0
2527,6.721806139406482,0
2528,6.1534096855740295,0
2529,5.387855118262916,0
2530,4.819753707730675,0
2531,4.760577128864118,0
2532,5.225069430960681,0
2533,5.324085817399874,0
2534,5.59781060800463,0
2535,5.755899442669695,0
2536,5.249898180053457,0
2537,6.13631805768003,0
2538,5.7799780534311305,0
2539,5.748524919348035,0
2540,5.603509508871429,0
2541,5.420059279951093,0
2542,5.326738678527734,0
2543,5.626376763505009,0
2544,5.719261991364504,0
2545,5.474204475057825,0
2546,6.350194914727957,0
2547,5.2829277355368625,0
2548,5.755716817405574,0
2549,5.809454155477409,0
2550,5.806996947355518,0
2551,5.3039930698791835,0
2552,5.704663847837989,0
2553,6.356218887762944,0
2554,5.4879445097887585,0
2555,5.89512794350526,0
2556,5.195557205004993,0
2557,5.878054748006327,0
2558,5.735866389796407,0
2559,6.227602926160975,0
2560,5.563401964276361,0
2561,5.49488069498975,0
2562,5.722607587183255,0
2563,5.3818982514387415,0
2564,5.570660336763217,0
2565,5.663710286951834,0
2566,6.019252970665297,0
2567,5.661889404661733,0
2568,5.694205529585978,0
2569,5.04235125266698,0
2570,5.647268166407691,0
2571,5.836491904382168,0
2572,6.021663674594075,0
2573,5.471387080846803,0
2574,5.842397549959849,0
2575,5.634039734173024,0
2576,5.736652255532481,0
2577,5.6628186251168335,0
2578,5.654074433904294,0
2579,5.273484912700532,0
2580,5.92075659010864,0
2581,5.895639238482826,0
2582,5.296003873115447,0
2583,5.987254481840619,0
2584,5.745311120518042,0
2585,5.313608026457794,0
2586,5.63435193142102,0
2587,5.2837810517998305,0
2588,5.961323038357871,0
2589,5.636845153186914,0
2590,5.286412149649396,0
2591,5.364944529468458,0
2592,5.6685349098757705,0
2593,5.392139617867827,0
2594,6.107493988314085,0
2595,5.306614136543291,0
2596,5.765387203226861,0
2597,5.667354883693851,0
2598,6.096763348196151,0
2599,5.184130037710338,0
2600,6.423216212162437,0
2601,5.8606141609503375,0
2602,5.989274345027817,0
2603,7.105205089804881,0
2604,7.7755796038672855,0
2605,8.988654389786777,0
2606,10.019308231519492,0
2607,10.938193637466505,0
2608,11.883189169024295,0
2609,12.421819707081351,0
2610,12.552208613969823,0
2611,12.713701493458009,0
2612,11.322381756899576,0
2613,9.689997285211092,0
2614,8.2991166433676,0
2615,6.6532854866592395,0
2616,5.215601303105034,0
2617,3.3111700551327203,0
2618,2.6996782135907322,0
2619,3.054815596276159,0
2620,3.3042827974809033,0
2621,3.909503617001139,0
2622,5.148886264570421,0
2623,6.464449552393873,0
2624,6.92509813511705,0
2625,6.994628274841415,0
2626,7.169470480668549,0
2627,6.761471071382168,0
2628,6.1050005707554265,0
2629,5.476191956852102,0
2630,5.189405814073449,0
2631,4.876305032029382,0
2632,5.000440659598349,0
2633,5.3939049417442995,0
2634,6.0195592058378375,0
2635,5.5824140972435385,0
2636,5.948165115234721,0
2637,6.020868250289551,0
2638,6.289295422116552,0
2639,6.809965781676871,0
2640,5.742923722772564,0
2641,5.659353952288942,0
2642,6.242604520454477,0
2643,5.6687365993427195,0
2644,5.865803495702439,0
2645,5.924724521612684,0
2646,5.303075157803246,0
2647,5.409803936275991,0
2648,6.021011278726394,0
2649,6.298657056527478,0
2650,5.697851824370227,0
2651,5.732628864492479,0
2652,5.958103550416143,0
2653,5.627878081078352,0
2654,5.7329646191387384,0
2655,5.84944799393594,0
2656,5.46939387980594,0
2657,5.918134737269071,0
2658,5.49385747691661,0
2659,6.350845372298272,0
2660,5.607667611653683,0
2661,6.1629241403550425,0
2662,5.4543550824809826,0
2663,5.789163295395541,0
2664,6.0198770408474145,0
2665,5.314065522568294,0
2666,5.447920674185963,0
2667,5.911428632766633,0
2668,5.743062747840098,0
2669,6.055886754228541,0
2670,5.483650270998394,0
2671,5.950519861688884,0
2672,6.158992726941573,0
2673,6.259621110652813,0
2674,5.4995915449666635,0
2675,5.7197445038910155,0
2676,5.56466552723651,0
2677,5.727090179707411,0
2678,5.82944194421639,0
2679,5.54215646464519,0
2680,5.963210399322816,0
2681,5.645748486675639,0
2682,5.5344165631788265,0
2683,5.7506755481296725,0
2684,5.682715031835654,0
2685,5.977417997188983,0
2686,5.778855407278029,0
2687,5.692701395310536,0
2688,5.723863121459887,0
2689,5.83914076758905,0
2690,5.183069994551544,0
2691,5.3078120730698535,0
2692,5.534844647292183,0
2693,6.221718553540955,0
2694,5.526493866492219,0
2695,5.578087025578545,0
2696,5.576355065155402,0
2697,5.1145212011047425,0
2698,6.179022274831486,0
2699,5.861647517284556,0
2700,5.587737412638795,0
2701,6.789080997571055,0
2702,6.1750723892778,0
2703,7.477609264347706,0
2704,7.082457527551558,0
2705,8.308327021099483,0
2706,9.597571228398124,0
2707,11.12584392661514,0
2708,11.699071509404348,0
2709,12.498027496055231,0
2710,12.569005283397567,0
2711,12.591126432313033,0
2712,11.42347252844749,0
2713,10.524503361557034,0
2714,7.988560245583162,0
2715,6.683902318122532,0
2716,5.149634277630692,0
2717,3.6635533129391793,0
2718,2.7371919451206104,0
2719,2.837560382970663,0
2720,3.6240766115599032,0
2721,4.180915023397976,0
2722,5.2039643782623735,0
2723,6.998541061916046,0
2724,7.255563188016428,0
2725,7.302594763413329,0
2726,7.127301118405949,0
2727,7.005550378360436,0
2728,6.610976792336496,0
2729,5.615548202763132,0
2730,5.113904267976225,0
2731,5.39140125758802,0
2732,5.228270728496339,0
2733,5.363039584118712,0
2734,5.639114405039438,0
2735,5.958960181443569,0
2736,6.376681655558246,0
2737,6.564509760466837,0
2738,6.14465483310751,0
2739,5.542188458987368,0
2740,6.289534816895579,0
2741,6.144829205360936,0
2742,5.293858149482286,0
2743,5.548298307821178,0
2744,6.074458931862081,0
2745,6.2201898737570485,0
2746,5.542616012160343,0
2747,5.894897912805879,0
2748,5.742547628178405,0
2749,6.474301789109706,0
2750,6.357356613630898,0
2751,5.652003741331386,0
2752,5.833488235550204,0
2753,5.8885734355142985,0
2754,6.108156371876374,0
2755,5.923899803978331,0
2756,6.349480373735599,0
2757,5.710765046599495,0
2758,5.4346185882017615,0
2759,5.793428173278192,0
2760,6.228145097805886,0
2761,6.369677348495199,0
2762,6.071296023587106,0
2763,5.446365479269148,0
2764,5.55681695141417,0
2765,5.382490740651764,0
2766,6.014491746493885,0
2767,5.831298633507866,0
2768,5.751312804208438,0
2769,5.671088796613846,0
2770,6.114041788616817,0
2771,5.797549126937348,0
2772,5.967132413179562,0
2773,5.720987309280264,0
2774,6.001809519636822,0
2775,5.877096500881159,0
2776,6.055549118748982,0
2777,5.622948387480062,0
2778,5.6270104937340815,0
2779,5.713418576997221,0
2780,6.031172835975735,0
2781,6.350352485249748,0
2782,5.50024284575294,0
2783,5.994780273042757,0
2784,5.570225510273358,0
2785,5.885798930190382,0
2786,5.9341102281302325,0
2787,6.525214763651963,0
2788,6.139266979152529,0
2789,5.6927715241522066,0
2790,6.149837798714462,0
2791,5.9875554495540895,0
2792,5.828925560407752,0
2793,6.039949559810538,0
2794,6.180785083569545,0
2795,5.870934676655017,0
2796,5.970758203515743,0
2797,6.147165236503004,0
2798,6.159208819140501,0
2799,6.740033505231751,0
2800,5.979646780980477,0
2801,6.576714730997478,0
2802,5.990813220660548,0
2803,7.233002721259813,0
2804,8.285320629071384,0
2805,9.148551054489042,0
2806,9.113552209083284,0
2807,11.067053895113894,0
2808,11.657888900759662,0
2809,13.305632853249204,0
2810,13.423750668218192,0
2811,12.411155795030687,0
2812,11.836065146191826,0
2813,10.771304831211094,0
2814,9.172666527425058,0
2815,6.739718370995957,0
2816,5.172426004571358,0
2817,3.6130838414206545,0
2818,3.0369456780666644,0
2819,2.7251969072963704,0
2820,3.0709810670728497,0
2821,4.441866164430374,0
2822,6.035043064462969,0
2823,6.5430944449815005,0
2824,7.19794172484082,0
2825,7.6183131934262045,0
2826,7.2880566817784365,0
2827,7.698936347704825,0
2828,6.395371189477945,0
2829,5.7402182647197,0
2830,5.645702294443602,0
2831,4.761807519875921,0
2832,5.587677491396068,0
2833,5.344057637472865,0
2834,5.901411729261951,0
2835,6.185411099395945,0
2836,6.9180618713535775,0
2837,6.373589693683872,0
2838,5.681279934151412,0
2839,6.3799301483602395,0
2840,6.395735418284016,0
2841,6.46662778717409,0
2842,6.136807009393259,0
2843,5.617653332844797,0
2844,5.62821759758271,0
2845,5.795066123168201,0
2846,5.6799407965061715,0
2847,5.843635620208172,0
2848,5.498428952712232,0
2849,6.203043135701385,0
2850,6.428231989785604,0
2851,6.432078641689227,0
2852,5.748623263454513,0
2853,5.730781039282964,0
2854,5.67415711663406,0
2855,6.2281624701506315,0
2856,6.048039767374485,0
2857,6.480000948394202,0
2858,5.880579734451814,0
2859,5.63358963079092,0
2860,6.553014148219758,0
2861,5.887203063750178,0
2862,6.288459444736784,0
2863,5.678623305934425,0
2864,5.573892248912529,0
2865,5.78067398740747,0
2866,6.256770933500576,0
2867,5.894071313211838,0
2868,6.008096541644668,0
2869,5.94375788794294,0
2870,5.464313834471296,0
2871,5.730031522183456,0
2872,6.388277792468316,0
2873,5.755075935834914,0
2874,6.375336853287266,0
2875,5.576248113926881,0
2876,6.62857902953091,0
2877,6.003447007197054,0
2878,6.08945378314233,0
2879,5.737296492113653,0
2880,6.33035324779228,0
2881,5.722985614496363,0
2882,6.078521039893434,0
2883,6.467133260996866,0
2884,6.0233187962080175,0
2885,6.292666883078005,0
2886,6.252522655994707,0
2887,5.440463140076291,0
2888,5.967999367302604,0
2889,6.081005490107597,0
2890,6.112310702030623,0
2891,6.215783752081796,0
2892,5.40988824262209,0
2893,6.509421730690467,0
2894,6.250095287155359,0
2895,6.379570633954977,0
2896,6.550900926726119,0
2897,6.739884204385606,0
2898,6.452523083874203,0
2899,5.927893670236157,0
2900,6.372555106613368,0
2901,6.514581161628205,0
2902,6.6597051261201745,0
2903,6.782244869024872,0
2904,8.072543157720752,0
2905,8.269950963199136,0
2906,10.178147504697476,0
2907,10.911204299339751,0
2908,12.478074278476921,0
2909,12.845609627073577,0
2910,12.985616656546538,0
2911,12.611505605659874,0
2912,12.53487444777034,0
2913,10.557217550686843,0
2914,9.08433825843486,0
2915,7.1242363739757835,0
2916,5.02823445714652,0
2917,4.104323839651953,0
2918,3.2535472541337898,0
2919,2.921985782471429,0
2920,3.861938152362463,0
2921,4.07942801610992,0
2922,5.183552635303465,0
2923,6.526557532501455,0
2924,7.372487239418469,0
2925,7.652408112649303,0
2926,7.395771053717011,0
2927,7.75506324019026,0
2928,6.2912124591572125,0
2929,6.100405589898379,0
2930,5.59291460734501,0
2931,5.430731491973836,0
2932,5.372388955511162,0
2933,5.579478487293888,0
2934,5.577140183481881,0
2935,6.163741172455337,0
2936,6.3924183548644224,0
2937,5.906636568336001,0
2938,6.636574972663961,0
2939,6.714682831763521,0
2940,6.151790304733129,0
2941,5.949630546161364,0
2942,5.8807029401252455,0
2943,5.910748661576928,0
2944,6.4858581881705195,0
2945,6.158699124917019,0
2946,5.875969109870613,0
2947,6.0240032984805465,0
2948,6.230765764321563,0
2949,6.5801110374609255,0
2950,6.13001421826789,0
2951,5.6867203923511624,0
2952,6.796742296062972,0
2953,6.202850728500051,0
2954,6.504390900644517,0
2955,6.528616559362153,0
2956,6.191320233079292,0
2957,6.045967208748234,0
2958,6.094381847138825,0
2959,6.317184219930927,0
2960,5.735421833165654,0
2961,6.425783289762722,0
2962,5.563877336146785,0
2963,5.709965510770865,0
2964,5.6951859333577755,0
2965,6.288191770859861,0
2966,5.806684468148429,0
2967,6.175028387639557,0
2968,6.578284560209131,0
2969,6.194679717620207,0
2970,5.7012233783885105,0
2971,6.2593899701469295,0
2972,6.025918964973771,0
2973,6.479396070492786,0
2974,7.034721001992741,0
2975,6.167380899327483,0
2976,6.409709749733629,0
2977,5.867956492170829,0
2978,6.11806908972971,0
2979,6.059770716971769,0
2980,5.867373948643221,0
2981,6.11701083673361,0
2982,5.955561334238386,0
2983,5.809159785911238,0
2984,6.09359412027994,0
2985,6.44701171807501,0
2986,6.062574045272785,0
2987,6.435765944751958,0
2988,5.945457915258245,0
2989,5.832103085342745,0
2990,6.00410220683983,0
2991,5.688169060591161,0
2992,6.39095034003018,0
2993,5.959231309497359,0
2994,5.7072795751956304,0
2995,5.885499509606692,0
2996,6.417498786072521,0
2997,6.611082570251685,0
2998,5.980726082128817,0
2999,5.964212622409465,0
3000,6.239284716170232,0
3001,6.928547907327874,0
3002,7.004886597048706,0
3003,6.803037740286226,0
3004,7.66173744546828,0
3005,8.8997237090373,0
3006,9.796706920277405,0
3007,11.299206205748384,0
3008,12.019317350093285,0
3009,13.24197259765732,0
3010,12.689277201454978,0
3011,12.836676563996802,0
3012,11.912403971769733,0
3013,10.814575459152648,0
3014,9.472429455894787,0
3015,7.186014755584175,0
3016,5.066735976580225,0
3017,3.7614307670908134,0
3018,3.182066670245924,0
3019,3.4829183652398994,0
3020,3.551488802136266,0
3021,4.667737894771326,0
3022,5.547759397834416,0
3023,5.9806185459037255,0
3024,7.074910795734867,0
3025,7.469814832458207,0
3026,7.8467118127082705,0
3027,7.562001157224912,0
3028,6.826773704070208,0
3029,6.3328410165085165,0
3030,5.321035654907996,0
3031,5.954220103766264,0
3032,4.821948657151425,0
3033,5.697457064195876,0
3034,6.22178037716544,0
3035,6.05847066738933,0
3036,6.042487224350298,0
3037,6.781453850797352,0
3038,7.026783045952352,0
3039,5.961609585753371,0
3040,6.215605399518513,0
3041,6.386398762709662,0
3042,6.760658285160908,0
3043,5.902984270370111,0
3044,6.25003254687016,0
3045,5.432424485844746,0
3046,6.337853868398548,0
3047,6.345560568832653,0
3048,6.835232912829509,0
3049,6.133648016810625,0
3050,6.16234932233605,0
3051,6.183863837480748,0
3052,6.6669932966369805,0
3053,5.883226860703511,0
3054,6.2029428619973395,0
3055,6.01970406677372,0
3056,6.2313447123130175,0
3057,6.144784874366168,0
3058,6.387408583168306,0
3059,6.5150066583866915,0
3060,6.728485033634452,0
3061,6.052960210966901,0
3062,6.255382775293097,0
3063,5.83515526851761,0
3064,6.13281397653308,0
3065,6.163618867660832,0
3066,6.067804911026421,0
3067,6.277799034867141,0
3068,6.45337018947272,0
3069,5.773836230807478,0
3070,6.385238240571575,0
3071,6.2378101624336555,0
3072,6.15943746912911,0
3073,6.385708591239949,0
3074,6.043894465671785,0
3075,6.306644994903855,0
3076,6.346188001096004,0
3077,6.457560668037086,0
3078,6.606628570545558,0
3079,6.295741397596943,0
3080,6.034671003067426,0
3081,5.624466742959747,0
3082,6.027656537263779,0
3083,6.899302176854309,0
3084,6.287654437339707,0
3085,6.422834470136927,0
3086,6.5173943817910445,0
3087,6.638133373152352,0
3088,6.184941612015006,0
3089,6.126817623683862,0
3090,6.09431943172255,0
3091,6.183243784205344,0
3092,6.168104220685198,0
3093,5.843405185336294,0
3094,5.835876287666595,0
3095,6.631409213076605,0
3096,5.865457143133091,0
3097,6.413846922157616,0
3098,5.933013323524651,0
3099,6.225137468378183,0
3100,6.151449056277919,0
3101,6.566595555116572,0
3102,6.123521696001474,0
3103,7.394565189188231,0
3104,8.189581604132902,0
3105,8.86776708850256,0
3106,10.503404086153017,0
3107,10.927015869033623,0
3108,12.338005640471088,0
3109,12.514960198660258,0
3110,13.118132854029056,0
3111,12.90937245258865,0
3112,12.157939276811216,0
3113,10.913610353737443,0
3114,9.109795377213537,0
3115,7.452466968699219,0
3116,5.965270143616726,0
3117,4.517034476410725,0
3118,2.5736355757695355,0
3119,3.491172664640709,0
3120,4.196246715792121,0
3121,4.773745433903018,0
3122,5.470897594069077,0
3123,6.711620845027562,0
3124,7.653078835937415,0
3125,8.419801089154232,0
3126,7.559463259003908,0
3127,7.455118941862114,0
3128,7.078707251217034,0
3129,6.185743148458423,0
3130,5.898389567259275,0
3131,5.523332550975583,0
3132,5.813286585627176,0
3133,5.8697840474670215,0
3134,6.489518235987582,0
3135,6.38029284895192,0
3136,6.479190613523274,0
3137,6.564482511736543,0
3138,6.75196990765122,0
3139,6.862290236783657,0
3140,6.331607711042205,0
3141,6.152639047758201,0
3142,6.031285353294014,0
3143,6.111471328033446,0
3144,6.031312596125211,0
3145,6.465033725506999,0
3146,6.282121378137827,0
3147,6.377059214207294,0
3148,6.4561068768346415,0
3149,6.549876697311868,0
3150,6.352628230348468,0
3151,6.457927146094922,0
3152,6.609804987488649,0
3153,7.1036173740201365,0
3154,6.516253943600193,0
3155,6.34447283530969,0
3156,6.5301470131910495,0
3157,6.255310889515795,0
3158,6.8415113415990065,0
3159,6.6057183955804675,0
3160,6.206917908624532,0
3161,6.532721630828648,0
3162,7.055235628003837,0
3163,6.611454082681751,0
3164,5.870345868921856,0
3165,6.341586605190704,0
3166,6.454612649180531,0
3167,6.6121240197888405,0
3168,6.58448984819991,0
3169,6.2861538321279635,0
3170,6.506473442790633,0
3171,6.433578148346426,0
3172,6.0565166818480165,0
3173,6.644047977537613,0
3174,6.185886980080494,0
3175,6.65027111017735,0
3176,6.305955468581736,0
3177,6.274594659669013,0
3178,6.977747444351858,0
3179,6.375324378065522,0
3180,6.644709865096399,0
3181,6.830539617817565,0
3182,6.02348008418304,0
3183,6.196407363799853,0
3184,6.994820435015472,0
3185,6.131992709243855,0
3186,6.525139771179039,0
3187,6.315080147501731,0
3188,6.673067732948762,0
3189,6.065022433239715,0
3190,6.379566748488025,0
3191,6.188255433701955,0
3192,6.86192865130872,0
3193,6.55476121985463,0
3194,6.845928961601652,0
3195,6.459680905746196,0
3196,6.384354246456307,0
3197,6.710971371305727,0
3198,6.5680194676293855,0
3199,6.470831590433382,0
3200,6.520472424959651,0
3201,6.740838076385583,0
3202,7.035319029200202,0
3203,7.633421900832338,0
3204,8.206189109930236,0
3205,9.323761869252113,0
3206,10.383764436704476,0
3207,11.031315315263202,0
3208,12.547089733648487,0
3209,13.2229158301656,0
3210,12.788773891058863,0
3211,13.52964549057467,0
3212,12.105110333999463,0
3213,11.427305051391382,0
3214,9.38623750274721,0
3215,7.7061730908551525,0
3216,5.634547993877218,0
3217,5.15542692942697,0
3218,3.561097618624146,0
3219,3.104798589886062,0
3220,3.9211883299225314,0
3221,4.733897183665608,0
3222,5.541817695074323,0
3223,7.021315964546687,0
3224,7.967683707312778,0
3225,8.345758139429904,0
3226,8.555674931086578,0
3227,7.499542564620292,0
3228,7.380767298033573,0
3229,6.621866692017552,0
3230,5.941064999533695,0
3231,6.361857324898353,0
3232,5.1293417344328205,0
3233,5.915638001096004,0
3234,5.86391450307737,0
3235,6.254449437599144,0
3236,6.630770637588921,0
3237,7.128452515113161,0
3238,6.465690196975027,0
3239,7.078753677664641,0
3240,6.501756770956249,0
3241,6.669126274286092,0
3242,6.411978737000047,0
3243,6.068263860922629,0
3244,6.246115708436706,0
3245,6.49362040845666,0
3246,6.567254357296803,0
3247,6.37095122007955,0
3248,6.37442534526577,0
3249,6.733501859109613,0
3250,6.822102049855855,0
3251,6.00290049059662,0
3252,6.278915109705906,0
3253,5.930384031102722,0
3254,6.4344332905222155,0
3255,6.536757525916779,0
3256,6.540111426551971,0
3257,6.524724239956605,0
3258,6.58495874078939,0
3259,6.235893455466107,0
3260,6.07335785434678,0
3261,5.908131486650299,0
3262,6.553422344421138,0
3263,6.476134816301122,0
3264,6.132167713728319,0
3265,6.053873624351516,0
3266,6.2507546323625665,0
3267,6.513012563566258,0
3268,6.142663832130764,0
3269,7.3461547544093095,0
3270,6.392906908070405,0
3271,6.677823763594634,0
3272,6.77527214581336,0
3273,6.372574106487745,0
3274,6.29323657351726,0
3275,6.3777330421914815,0
3276,7.145774062926303,0
3277,6.988270014553301,0
3278,6.447750091257526,0
3279,6.8404697547935305,0
3280,5.7080282018266795,0
3281,6.64280609871815,0
3282,6.329529927207369,0
3283,6.254015135300194,0
3284,6.832681421535795,0
3285,5.9393750915042824,0
3286,6.460813637729875,0
3287,6.8016724761135805,0
3288,6.191872389422209,0
3289,6.540347297192517,0
3290,6.141001667653211,0
3291,7.086892532857919,0
3292,7.175707700331047,0
3293,6.559077463155912,0
3294,6.685123862974733,0
3295,6.684176954402587,0
3296,6.020784324944098,0
3297,6.855718193719919,0
3298,6.724252994611801,0
3299,6.408640585307069,0
3300,6.815032876525056,0
3301,6.460636909408414,0
3302,7.442126128468452,0
3303,7.8148366002094,0
3304,8.010164082089208,0
3305,8.914092907552448,0
3306,10.191275586085945,0
3307,11.587582677405788,0
3308,12.450574079874709,0
3309,12.995434539672248,0
3310,14.098645962160067,0
3311,12.761346352197197,0
3312,13.316600030047645,0
3313,11.421564210229654,0
3314,9.346787367312167,0
3315,7.746392843028044,0
3316,6.208218369072301,0
3317,5.184203415939306,0
3318,4.19171814257413,0
3319,3.9574361602005546,0
3320,3.42471079415061,0
3321,5.503321227574872,0
3322,6.01681520326052,0
3323,8.042267077388596,0
3324,8.054813538340557,0
3325,8.380868448858148,0
3326,7.961240949597488,0
3327,7.6345467368241176,0
3328,7.222376986631465,0
3329,6.270617756665144,0
3330,6.163891224138202,0
3331,5.64013774499146,0
3332,5.872066619480368,0
3333,5.93989228749351,0
3334,6.644105084358894,0
3335,6.60789973051582,0
3336,6.95684753601383,0
3337,7.046177987772781,0
3338,7.209851825273035,0
3339,7.257188841632604,0
3340,7.233444718676401,0
3341,6.834790780778964,0
3342,6.766121165280195,0
3343,6.802120931935778,0
3344,6.2198660050052625,0
3345,6.9411432898253285,0
3346,6.514600190013859,0
3347,6.431366157180879,0
3348,6.19197903633424,0
3349,6.474367686522616,0
3350,6.915846594285575,0
3351,6.2547579822574715,0
3352,6.480175799115251,0
3353,6.9971143920977905,0
3354,6.9218700774122315,0
3355,6.967044296706397,0
3356,6.276953480971917,0
3357,6.888729301359414,0
3358,6.386343137267563,0
3359,7.034304334452305,0
3360,6.779786332136784,0
3361,7.05454089477223,0
3362,6.82766155463443,0
3363,6.93278951108084,0
3364,6.596947901261785,0
3365,6.640226262094566,0
3366,6.767997168011059,0
3367,6.458116338589016,0
3368,7.183280507274711,0
3369,6.238132746696697,0
3370,6.500648082808665,0
3371,6.7335976910419335,0
3372,6.789811458629051,0
3373,6.717001380086712,0
3374,6.682977760489383,0
3375,7.225556663869403,0
3376,7.2595985233658284,0
3377,6.67758287533076,0
3378,6.707257246011536,0
3379,7.130094820455665,0
3380,6.499188207167538,0
3381,6.16509224614307,0
3382,7.084011031918018,0
3383,6.7593525484325765,0
3384,6.856188885822366,0
3385,6.999186614187929,0
3386,6.449958051067386,0
3387,6.753198041298119,0
3388,6.400771607391338,0
3389,6.582605863246018,0
3390,6.821942839069985,0
3391,6.330782900222796,0
3392,6.55970320800701,0
3393,6.482889505721382,0
3394,6.868048745132426,0
3395,6.505693780572975,0
3396,6.642626789967262,0
3397,6.447324013033837,0
3398,6.26679323796503,0
3399,6.87413564779574,0
3400,6.648215219205853,0
3401,7.0676468689609235,0
3402,7.509737827570006,0
3403,7.660837159634479,0
3404,8.816819721640343,0
3405,9.138720770385765,0
3406,10.020136836373688,0
3407,11.255623364324627,0
3408,12.96724587540502,0
3409,13.236214877691431,0
3410,14.200303505366538,0
3411,13.63323040825006,0
3412,12.624406583695079,0
3413,11.288225977540002,0
3414,9.929395818503217,0
3415,7.820306036138376,0
3416,6.3614373060211085,0
3417,4.37669694336978,0
3418,3.99171625325194,0
3419,3.8233724989885696,0
3420,3.9814564930579674,0
3421,4.918074236978527,0
3422,6.1334043388835795,0
3423,7.556100013000333,0
3424,7.16621082375849,0
3425,8.643570397440108,0
3426,8.724633210208449,0
3427,7.9298553603947814,0
3428,7.440960567736919,0
3429,6.730910244857832,0
3430,6.074435641679717,0
3431,6.18135493451432,0
3432,6.2330331124004354,0
3433,5.904160555343783,0
3434,6.405858820770285,0
3435,6.55885365688825,0
3436,6.933787317849357,0
3437,6.853635499374224,0
3438,7.009777512748818,0
3439,7.319336816162304,0
3440,6.521673372305028,0
3441,6.699108850456149,0
3442,6.648307282762283,0
3443,6.766417273359764,0
3444,5.8247639072960835,0
3445,6.640022951322017,0
3446,6.037884356639303,0
3447,7.207590071995705,0
3448,6.9212152363656285,0
3449,6.845827769364426,0
3450,6.590439609766625,0
3451,6.534321148893765,0
3452,6.857787330429658,0
3453,6.795843997311381,0
3454,6.573654080236941,0
3455,6.084319495117675,0
3456,7.017252442811159,0
3457,7.073544973906436,0
3458,6.485694379615907,0
3459,6.506478276343865,0
3460,7.2604078230370925,0
3461,6.539743309297665,0
3462,7.267212983138693,0
3463,6.430357257482517,0
3464,6.287255427680799,0
3465,7.012465748571361,0
3466,6.814724023012371,0
3467,6.857595089694195,0
3468,6.982875921288031,0
3469,6.6515755688158436,0
3470,6.862546517857762,0
3471,6.389520224901758,0
3472,6.855207679090733,0
3473,6.94016067696153,0
3474,6.288718218539669,0
3475,7.109721492468038,0
3476,6.743221163283964,0
3477,6.801244093435794,0
3478,6.7995343087627,0
3479,6.358193953547216,0
3480,6.430065648609024,0
3481,7.09773017848917,0
3482,6.2995288216988,0
3483,6.712972390341244,0
3484,6.895556607936462,0
3485,6.837428057694747,0
3486,7.606197759274213,0
3487,6.8594721201892845,0
3488,7.022136370753663,0
3489,6.816515533053809,0
3490,6.693726720924849,0
3491,7.187046570188816,0
3492,6.775514294975593,0
3493,6.345881974215295,0
3494,6.805809525335782,0
3495,6.821303861905971,0
3496,6.601091013339001,0
3497,6.594140512690874,0
3498,6.742379982941275,0
3499,7.024384700821953,0
3500,6.637486443524265,0
3501,6.787768585580926,0
3502,7.515393252331974,0
3503,7.56171343569908,0
3504,8.15869408370391,0
3505,9.391892589320461,0
3506,10.12861118805385,0
3507,10.510888261352719,0
3508,12.447344716624656,0
3509,12.451306548886876,0
3510,13.848250377305284,0
3511,13.387762320135813,0
3512,13.01361096935557,0
3513,11.352474698155927,0
3514,9.936510306106328,0
3515,7.869940462961709,0
3516,6.2637568275746744,0
3517,4.913006387323048,0
3518,3.4173021334926634,0
3519,3.4832806729435295,0
3520,4.326976517564493,0
3521,5.003536269616625,0
3522,5.7611424482997275,0
3523,7.236394908701696,0
3524,7.925082856314649,0
3525,8.224595734613045,0
3526,8.0207523618608,0
3527,8.113557788064835,0
3528,6.996411819261468,0
3529,7.184181115765507,0
3530,5.821776207843593,0
3531,6.051492608841805,0
3532,5.717206936689501,0
3533,6.111663175642498,0
3534,6.123094645051835,0
3535,6.444033239100398,0
3536,6.452566817822104,0
3537,6.4708806469861475,0
3538,7.206182014861755,0
3539,7.108719408771867,0
3540,7.306400990805362,0
3541,6.61874234001333,0
3542,6.687874827055815,0
3543,6.180914301062553,0
3544,6.549480141770516,0
3545,6.360502497823887,0
3546,6.3912746114139924,0
3547,6.671041508354487,0
3548,6.704677191663815,0
3549,6.648358265766936,0
3550,6.672627259023749,0
3551,7.235694535291864,0
3552,6.606266475569143,0
3553,7.532695325694536,0
3554,6.226485879442716,0
3555,6.556383972844813,0
3556,6.451900804602581,0
3557,7.214640606780028,0
3558,6.492242205699644,0
3559,6.408609131166508,0
3560,6.991010584228174,0
3561,6.6991262897978485,0
3562,6.818996178357612,0
3563,6.436999806033848,0
3564,6.786556507232952,0
3565,6.387997060537477,0
3566,6.588669988598348,0
3567,6.693784290882461,0
3568,7.076563066802102,0
3569,6.265588662475426,0
3570,6.877997145364328,0
3571,6.357273879170467,0
3572,6.80629818078353,0
3573,6.747517815080109,0
3574,6.9097289747541515,0
3575,6.943440108584159,0
3576,6.47415038736021,0
3577,6.733228493394228,0
3578,6.834374374279655,0
3579,6.698126787398987,0
3580,7.0879763464338,0
3581,7.137647792179468,0
3582,6.733140141167446,0
3583,7.325557602586344,0
3584,5.885915180574937,0
3585,7.0790586814084735,0
3586,6.390198170341764,0
3587,6.397572721813672,0
3588,6.234485243723291,0
3589,6.875349205980914,0
3590,7.423417510396538,0
3591,6.889641457711755,0
3592,6.963868778350135,0
3593,6.583649483483688,0
3594,6.81522974951217,0
3595,7.105967885806295,0
3596,6.803168551739085,0
3597,6.435158584128117,0
3598,6.641409255224377,0
3599,6.362790444363811,0
3600,7.078205043243854,0
3601,6.7416339999320005,0
3602,7.436283472926455,0
3603,8.183650451113248,0
3604,8.596768530287868,0
3605,9.742601431440272,0
3606,10.695589556460513,0
3607,11.750238699126843,0
3608,12.844763541619018,0
3609,13.088131983487163,0
3610,13.517911999688474,0
3611,13.5181118094395,0
3612,13.123702802682285,0
3613,12.172917937339363,0
3614,9.658959186501663,0
3615,8.521858893197516,0
3616,6.3592580833247805,0
3617,4.589556393748609,0
3618,4.0596185247001735,0
3619,4.401547599002396,0
3620,4.143787297180186,0
3621,4.727229140761444,0
3622,5.875320623350121,0
3623,7.287344150438333,0
3624,8.45844869330212,0
3625,8.538521182976222,0
3626,8.614270791085165,0
3627,8.191509937251364,0
3628,7.145868852447007,0
3629,7.254302983761338,0
3630,6.214920879674825,0
3631,6.411843144647485,0
3632,6.002513775715598,0
3633,6.342836896584783,0
3634,6.5469198803348085,0
3635,6.818848447783331,0
3636,6.666375699962086,0
3637,7.219583079708758,0
3638,7.383818078195432,0
3639,6.698608273122158,0
3640,7.428713510124836,0
3641,6.6460549708258565,0
3642,6.699807085390263,0
3643,6.711848400879559,0
3644,6.938353453153018,0
3645,6.724885397838108,0
3646,6.262561964732473,0
3647,7.187681353943435,0
3648,6.888779176766229,0
3649,7.4901517101394415,0
3650,7.014373374360636,0
3651,7.133289973449564,0
3652,7.119770288916023,0
3653,7.195237276846431,0
3654,7.022239062796824,0
3655,6.582041139325434,0
3656,6.882428379815555,0
3657,6.6916646250579115,0
3658,6.567684289526377,0
3659,6.621798358822254,0
3660,6.742359265416474,0
3661,7.291492067486066,0
3662,7.237303860780686,0
3663,6.918149792380507,0
3664,7.053032335166652,0
3665,6.973713093661613,0
3666,7.28292943649904,0
3667,7.97309692562402,0
3668,7.047491867593622,0
3669,6.983405243675602,0
3670,6.594798365486324,0
3671,6.873701055210716,0
3672,6.88945172412313,0
3673,6.65121473145451,0
3674,7.322570315231275,0
3675,6.559733204564695,0
3676,6.804442517302119,0
3677,6.823121338080261,0
3678,7.524093710297727,0
3679,7.425149278503605,0
3680,6.938257238514106,0
3681,6.8688229958418265,0
3682,6.941967430660473,0
3683,6.912883773790234,0
3684,6.848179004502529,0
3685,6.638666123249731,0
3686,6.406930552634885,0
3687,7.241646023017277,0
3688,7.222445411885101,0
3689,7.2480194659834805,0
3690,6.889973514689905,0
3691,6.868190996626673,0
3692,6.762377812500453,0
3693,6.884120145365102,0
3694,6.093372646261527,0
3695,7.086597324289539,0
3696,7.504944403007669,0
3697,6.394745541303813,0
3698,6.985544274301734,0
3699,7.883107699548185,0
3700,6.870088172544099,0
3701,7.421080150400693,0
3702,7.581378678832257,0
3703,7.6854950092759875,0
3704,8.321798352771298,0
3705,10.046451858836297,0
3706,10.044178296816344,0
3707,11.6561347220468,0
3708,13.345559944453743,0
3709,13.748494973197985,0
3710,13.63765507910924,0
3711,13.928772501506106,0
3712,12.884029907752382,0
3713,11.962968531585481,0
3714,9.634193809469343,0
3715,8.413070443398661,0
3716,6.545188919448615,0
3717,4.892163281736466,0
3718,4.439904567034512,0
3719,3.8054486249454107,0
3720,4.478512602813851,0
3721,5.159723829047584,0
3722,5.571970429441017,0
3723,7.639918216755475,0
3724,7.751942155713537,0
3725,9.12257440635249,0
3726,8.319683893918887,0
3727,8.686481068833508,0
3728,8.07843640468311,0
3729,7.239742312647845,0
3730,6.610372909514403,0
3731,6.102232833372895,0
3732,5.5971473425653375,0
3733,6.616560334000489,0
3734,5.970159649673903,0
3735,7.109741900431529,0
3736,7.256574411759775,0
3737,7.1860253207682625,0
3738,7.060225902986813,0
3739,7.1174727660541794,0
3740,6.991150988190183,0
3741,7.121261703320967,0
3742,7.457819592487099,0
3743,6.932634434836751,0
3744,7.01074852593494,0
3745,6.68145910392134,0
3746,7.215595632537788,0
3747,6.636962775182295,0
3748,7.201572284459205,0
3749,6.99895120478601,0
3750,7.3604422519284824,0
3751,6.738667222727316,0
3752,6.859924680921829,0
3753,7.494001740245583,0
3754,7.004339029157311,0
3755,7.192234664383735,0
3756,7.328950057517113,0
3757,6.637777328524938,0
3758,7.035574142972471,0
3759,6.290823385078045,0
3760,6.967803626557214,0
3761,6.653685822875133,0
3762,7.138898135211567,0
3763,7.152509328555543,0
3764,7.033529255137052,0
3765,6.982280018210747,0
3766,7.1796417953770115,0
3767,7.2604011072093755,0
3768,7.473005958685987,0
3769,6.695032833433223,0
3770,6.439736106748041,0
3771,6.815221310176821,0
3772,7.958430790958108,0
3773,7.274078901333622,0
3774,7.230801090079039,0
3775,6.932937130345015,0
3776,7.34619022468518,0
3777,6.797865532077655,0
3778,7.185958619195265,0
3779,6.86307774785751,0
3780,7.147199365519072,0
3781,7.196567025266,0
3782,7.435065149664828,0
3783,7.32020892300806,0
3784,6.70734329830619,0
3785,7.323552260956839,0
3786,7.306421308066169,0
3787,6.8835706265480745,0
3788,7.115423428686618,0
3789,7.058082325048554,0
3790,7.409607136340044,0
3791,7.166056958800468,0
3792,7.034356526073528,0
3793,6.935518949624748,0
3794,6.719105463287678,0
3795,6.65105720667013,0
3796,7.002992202953599,0
3797,6.651408447137035,0
3798,6.943318579038305,0
3799,7.398468720031234,0
3800,7.494023070465774,0
3801,7.061809382396676,0
3802,7.196483038981608,0
3803,8.255481918802204,0
3804,8.532581145876701,0
3805,10.026435400874108,0
3806,10.801763149718852,0
3807,12.104514444504645,0
3808,12.631832928914019,0
3809,14.092182444695693,0
3810,14.255194311312138,0
3811,14.571951590997518,0
3812,13.12714428644065,0
3813,11.758991472772628,0
3814,10.077613972568955,0
3815,8.925127510878845,0
3816,6.295499188290937,0
3817,5.556036166858521,0
3818,4.30166343633717,0
3819,4.31101507878897,0
3820,4.3931000813356835,0
3821,5.567958975455431,0
3822,5.702948367507688,0
3823,7.214638968910413,0
3824,8.441054158981418,0
3825,8.878820934431536,0
3826,8.83385905184999,0
3827,8.349931386647329,0
3828,7.911977182127144,0
3829,6.853318397358544,0
3830,6.5927297022491835,0
3831,6.745549087729628,0
3832,5.8799592116411965,0
3833,6.567816461156279,0
3834,6.914351794890638,0
3835,6.878460699356903,0
3836,7.587711411640035,0
3837,7.318230437669882,0
3838,7.932575096714786,0
3839,7.0929808742328415,0
3840,7.109405576645844,0
3841,7.28032684488283,0
3842,7.131175875231272,0
3843,7.084415211164037,0
3844,7.296747720663769,0
3845,6.603151576249447,0
3846,7.132493880584051,0
3847,6.761745681713089,0
3848,6.863693792781553,0
3849,7.533091494738251,0
3850,7.115423810660991,0
3851,6.836126849536466,0
3852,7.398294271214082,0
3853,7.009444008006245,0
3854,7.124512552898174,0
3855,6.68374567528035,0
3856,7.131889126279144,0
3857,7.099568298057219,0
3858,6.958488137052621,0
3859,7.164954665314248,0
3860,7.009604415915723,0
3861,6.806010207991644,0
3862,7.271107629013067,0
3863,7.260272858259841,0
3864,6.905975354486725,0
3865,6.751113665750794,0
3866,7.443281047375043,0
3867,7.171887469871698,0
3868,7.171333037480748,0
3869,7.411880751267296,0
3870,7.2514438681068905,0
3871,6.849836011474032,0
3872,7.009578304187908,0
3873,7.510865775822171,0
3874,6.894207923702278,0
3875,7.1549842617844295,0
3876,6.826262096062125,0
3877,7.395336959650867,0
3878,7.455807585675596,0
3879,7.748601756420554,0
3880,6.673253522711887,0
3881,7.252684665718512,0
3882,7.385959830213525,0
3883,7.256241138510595,0
3884,6.783036270942942,0
3885,6.538591902159223,0
3886,7.263023987768168,0
3887,7.179289222321718,0
3888,7.407089169327264,0
3889,7.530819749720251,0
3890,6.803754451599675,0
3891,6.401690830429376,0
3892,6.6967811140907685,0
3893,7.066488380082346,0
3894,7.6629453576045385,0
3895,6.7841092971271735,0
3896,7.079589986952363,0
3897,7.563219776792274,0
3898,7.257345638690845,0
3899,7.011625675136779,0
3900,6.973770242858456,0
3901,7.181361279125933,0
3902,7.412853699436793,0
3903,7.847345170197318,0
3904,9.00084971869512,0
3905,9.779964740434835,0
3906,10.938885143684297,0
3907,11.664631189238566,0
3908,13.331640165326945,0
3909,13.003017042172438,0
3910,14.432593971422165,0
3911,14.2220674977331,0
3912,13.508174792889301,0
3913,12.792878478497293,0
3914,10.037782965675248,0
3915,8.635823084329406,0
3916,6.804063195890716,0
3917,5.042101121991003,0
3918,4.529150965094171,0
3919,4.425497868214899,0
3920,4.68698379588066,0
3921,5.249320156027473,0
3922,6.1510794439483165,0
3923,8.076724098844204,0
3924,7.721040236897286,0
3925,8.645316165445323,0
3926,8.939785495927328,0
3927,8.383275246747163,0
3928,7.592824332906212,0
3929,7.581461059262861,0
3930,6.544735488243758,0
3931,6.744471296688074,0
3932,6.609681423340742,0
3933,7.184373160501975,0
3934,6.886454576151256,0
3935,6.830566313095829,0
3936,7.271483492139283,0
3937,7.581105412434492,0
3938,7.342543824059558,0
3939,7.601862434022381,0
3940,7.753287606704461,0
3941,7.546640844388754,0
3942,6.691731076300602,0
3943,6.405508274566068,0
3944,7.31276407891056,0
3945,7.288582872034019,0
3946,6.891409780104756,0
3947,6.918243953420648,0
3948,7.061994461528365,0
3949,7.021265220559344,0
3950,6.986530018103771,0
3951,7.52685934039916,0
3952,6.962926108576161,0
3953,7.701990862413233,0
3954,7.264546613620079,0
3955,7.46352017880404,0
3956,7.291989953559422,0
3957,7.084549185785887,0
3958,7.140062649127956,0
3959,6.98584291882492,0
3960,7.1725852897594695,0
3961,7.02522160618481,0
3962,7.263931168254645,0
3963,7.2435650692231555,0
3964,7.565235983874928,0
3965,7.515937399269584,0
3966,7.378730602811247,0
3967,7.695455997767198,0
3968,6.966234192885458,0
3969,7.306485530093754,0
3970,7.250371099134388,0
3971,6.902064937829742,0
3972,7.027459672742733,0
3973,7.575634756552873,0
3974,7.314335619662515,0
3975,6.9433032327132835,0
3976,6.932932441708365,0
3977,7.37092814564166,0
3978,6.854222599807418,0
3979,7.240629061786464,0
3980,6.895397592632813,0
3981,7.509151394576745,0
3982,7.179589930352071,0
3983,7.3671776521330585,0
3984,7.320521491354953,0
3985,6.705457452628959,0
3986,7.480224402641832,0
3987,7.358900927714443,0
3988,7.482799617437294,0
3989,7.163562139835579,0
3990,7.437780124798694,0
3991,6.91507584487781,0
3992,6.755990663864483,0
3993,6.823020918434761,0
3994,7.3294753428863855,0
3995,7.077238091102484,0
3996,6.981233156502552,0
3997,7.460907957047804,0
3998,6.894650081611027,0
3999,6.778015646413797,0
4000,7.6580821163330315,0
4001,7.5124930506863326,0
4002,7.575040552371236,0
4003,8.271830798061428,0
4004,8.722632900652243,0
4005,9.786772433755932,0
4006,11.064244190621864,0
4007,12.040913793373633,0
4008,12.861297377080627,0
4009,13.877335459537477,0
4010,14.070667750250632,0
4011,13.810253000400028,0
4012,12.973047798227054,0
4013,12.156491389224637,0
4014,9.860889962867068,0
4015,8.83923957969461,0
4016,7.210590853547425,0
4017,4.910797640262265,0
4018,4.819185685924952,0
4019,4.6188202535181855,0
4020,4.338776963457697,0
4021,4.838684816931895,0
4022,6.833691607217045,0
4023,7.078719744109142,0
4024,7.976679740261114,0
4025,8.290140836398274,0
4026,8.836851265505121,0
4027,8.503725384612752,0
4028,7.575754771487739,0
4029,7.506228157843663,0
4030,6.539664981145601,0
4031,5.917338606825205,0
4032,6.500956947766609,0
4033,6.623253081831906,0
4034,7.334548026840963,0
4035,6.972210559615624,0
4036,6.956009028221204,0
4037,7.290046582613899,0
4038,8.151353605805253,0
4039,7.462919342945658,0
4040,7.17506409864725,0
4041,7.136862944197135,0
4042,7.146279589691615,0
4043,7.356040996058005,0
4044,7.414402127715946,0
4045,7.505414560342305,0
4046,7.09368219195006,0
4047,6.99980522545937,0
4048,7.108047014785448,0
4049,7.241938755941735,0
4050,7.456293469427285,0
4051,7.6573853482438246,0
4052,6.711196618442655,0
4053,6.905895653909191,0
4054,6.879419486840654,0
4055,7.313637297529337,0
4056,6.952326894086988,0
4057,7.114551537755247,0
4058,7.25584046101988,0
4059,6.742279043318362,0
4060,7.21431787746754,0
4061,7.613224668905677,0
4062,7.79594210761086,0
4063,7.180230532166124,0
4064,7.124782655239441,0
4065,7.460432571198127,0
4066,6.699455613735045,0
4067,7.085972987316434,0
4068,7.405190601344862,0
4069,7.457019274632558,0
4070,7.619857169248755,0
4071,7.522718072853338,0
4072,7.41906732151856,0
4073,7.625704418099538,0
4074,7.609157741532659,0
4075,7.606676539374577,0
4076,6.972522183555298,0
4077,7.666494051486292,0
4078,7.289147986667187,0
4079,7.4920429192819595,0
4080,6.657718855998618,0
4081,7.100938749275886,0
4082,7.213042729391985,0
4083,7.392381206762797,0
4084,7.120135276597051,0
4085,7.2235898910981335,0
4086,7.280819179548324,0
4087,6.850724065712149,0
4088,7.516401895200449,0
4089,7.458220483647288,0
4090,7.485125298474383,0
4091,7.750700453091026,0
4092,7.053308061591176,0
4093,7.259520261773226,0
4094,7.670401787410292,0
4095,6.658873767587096,0
4096,6.868490582028054,0
4097,7.679580353640269,0
4098,7.4261175240727075,0
4099,7.031110528914642,0
4100,7.386220274558032,0
4101,7.73925044033075,0
4102,7.176254585502128,0
4103,7.989575588091474,0
4104,9.410458437336848,0
4105,9.436229040754338,0
4106,10.557601213213452,0
4107,11.539120378766164,0
4108,12.71600498102394,0
4109,13.54520163221241,0
4110,14.279584318121419,0
4111,14.593908034420757,0
4112,13.252065549091085,0
4113,12.239133992035962,0
4114,11.206381511531891,0
4115,9.074515647002285,0
4116,7.093145576969835,0
4117,5.143688791681839,0
4118,3.957983959644583,0
4119,4.560662144237259,0
4120,4.440980921227219,0
4121,4.907180750287701,0
4122,6.10406300338943,0
4123,6.973748731571508,0
4124,8.394467127160878,0
4125,8.669851669450399,0
4126,8.590855278320428,0
4127,8.367490525394269,0
4128,7.805633827416467,0
4129,7.091550082736391,0
4130,6.701718841911005,0
4131,6.2497441363605315,0
4132,7.049674911950959,0
4133,6.115245792721861,0
4134,7.135162709078887,0
4135,6.969878563205755,0
4136,7.502181200409491,0
4137,7.316735242187533,0
4138,7.40442302723799,0
4139,7.361246931001356,0
4140,7.276186655841072,0
4141,7.198133227970647,0
4142,7.128284089205345,0
4143,7.306010185092654,0
4144,7.589656558651441,0
4145,7.426407152787497,0
4146,7.58316913615614,0
4147,7.95752833942035,0
4148,6.975497702031568,0
4149,7.864705091726866,0
4150,7.2560520403548425,0
4151,7.0204944512362015,0
4152,6.8640146038551375,0
4153,7.032569729062087,0
4154,6.674425280259642,0
4155,7.2780475598182885,0
4156,7.126705888502657,0
4157,6.93911635385293,0
4158,7.880824217243675,0
4159,7.005136233609167,0
4160,7.229332362524582,0
4161,7.105676254559812,0
4162,7.355895425257878,0
4163,7.670433110158419,0
4164,6.712755103237473,0
4165,7.375936644868837,0
4166,7.233724271016165,0
4167,7.420675609221048,0
4168,7.565511434547855,0
4169,7.385927127101773,0
4170,7.855708106336106,0
4171,7.433627793091762,0
4172,7.384270619378594,0
4173,7.520365856813111,0
4174,7.496714861764957,0
4175,7.0913529999355704,0
4176,7.462935943513642,0
4177,7.2221019378663724,0
4178,7.515168604335716,0
4179,7.307781063043039,0
4180,7.131556506479877,0
4181,6.940434534082001,0
4182,7.83565180633043,0
4183,7.6013222839400685,0
4184,7.446620842374945,0
4185,7.422403587931251,0
4186,6.826200387006513,0
4187,7.706060763526621,0
4188,7.071129006067013,0
4189,7.453680714298152,0
4190,7.31361134613498,0
4191,7.3966797203002805,0
4192,7.062786673992389,0
4193,7.556957884038718,0
4194,7.632407270539973,0
4195,7.78626656224438,0
4196,7.589250171069756,0
4197,7.869911239601487,0
4198,6.994903192576706,0
4199,7.360907150112551,0
4200,7.868412976901193,0
4201,7.604531786432218,0
4202,7.090867795913588,0
4203,8.35283552945479,0
4204,9.194732113751392,0
4205,10.21181578847271,0
4206,11.46228237706212,0
4207,11.651669270656146,0
4208,13.406764562580664,0
4209,14.27474719627773,0
4210,14.412304085545834,0
4211,14.028705094117724,0
4212,13.332056400874372,0
4213,12.284430378963716,0
4214,10.531369075944262,0
4215,8.885354073229188,0
4216,6.989244236044741,0
4217,5.908439902672715,0
4218,4.918664057085824,0
4219,4.442233661237346,0
4220,4.908153933766394,0
4221,5.356774928588009,0
4222,6.669345398915773,0
4223,6.961472166425349,0
4224,8.26083961238318,0
4225,9.167088812210764,0
4226,9.457031998072484,0
4227,8.696645425417554,0
4228,7.9334616767802535,0
4229,7.1096684507985275,0
4230,6.816453636948914,0
4231,6.546804019153322,0
4232,6.149495156388712,0
4233,6.292050665163428,0
4234,7.480442504621731,0
4235,6.861673108609237,0
4236,7.184681501549367,0
4237,7.374763669188678,0
4238,7.75939397518995,0
4239,7.76828823762955,0
4240,7.376311606935264,0
4241,7.689306667224504,0
4242,6.995084066862426,0
4243,6.551129517122899,0
4244,7.230779999414706,0
4245,7.366919236656384,0
4246,7.172303741966356,0
4247,7.066760369256296,0
4248,7.708384903177275,0
4249,7.530668099615723,0
4250,7.340979978081708,0
4251,7.459886436642461,0
4252,7.397563110697191,0
4253,7.267182400491923,0
4254,8.064450505560583,0
4255,7.0306208590022194,0
4256,7.83868872445303,0
4257,7.045817258343658,0
4258,7.168073283310737,0
4259,7.623030790971104,0
4260,7.231677458891599,0
4261,6.891250082248968,0
4262,7.947422539751231,0
4263,7.616700366445762,0
4264,7.596017185708782,0
4265,7.231775625302403,0
4266,7.832102637647713,0
4267,7.528897293825431,0
4268,7.598581429532977,0
4269,7.298402692450598,0
4270,7.343988068535478,0
4271,7.364047110470639,0
4272,7.450483141944211,0
4273,7.047846193586385,0
4274,7.266776981640176,0
4275,7.176654425811619,0
4276,7.387111361353747,0
4277,6.79475692397459,0
4278,7.479716663535324,0
4279,7.614106006657573,0
4280,7.60001302201509,0
4281,7.651447465917148,0
4282,7.271735584890353,0
4283,7.599512989810753,0
4284,7.348768742671639,0
4285,7.600727430621452,0
4286,6.998605624377228,0
4287,7.228706326452909,0
4288,7.5054342269129615,0
4289,7.185586154399088,0
4290,7.217154973112392,0
4291,7.272008572776348,0
4292,7.242014522275159,0
4293,7.547293587201245,0
4294,7.832429525660331,0
4295,7.198209101576393,0
4296,7.148620827714585,0
4297,6.8730356825158125,0
4298,7.67524301465879,0
4299,7.3985160589559325,0
4300,7.180383933121496,1
4301,7.522375636023856,1
4302,7.2984932343282525,1
4303,7.903333310878456,1
4304,7.41277549417663,1
4305,7.111164865268769,1
4306,7.399553381759245,1
4307,7.314067439078989,1
4308,7.762583749380963,1
4309,7.85982530157066,1
4310,6.930513629054311,1
4311,7.9635269864263245,1
4312,7.565970462491369,1
4313,7.278302521077344,1
4314,7.489284025201581,1
4315,6.841219335935045,1
4316,7.262060342407085,1
4317,7.502965947499651,1
4318,7.512079409454117,1
4319,7.69660817912057,1
4320,7.279744846804075,1
4321,7.3748137186551155,1
4322,7.027997839719021,1
4323,7.386846534722221,1
4324,7.753134084713249,1
4325,8.152631040673798,1
4326,7.199931138669962,1
4327,7.182355058954187,1
4328,7.804227739891361,1
4329,7.227757031574557,1
4330,7.885467187968731,1
4331,7.861027413447378,1
4332,7.617245407527514,1
4333,7.402193200569455,1
4334,7.613286342645752,1
4335,7.451043664139728,1
4336,7.520389836456442,1
4337,7.657117224595652,1
4338,7.625894016940109,1
4339,7.453603890466722,1
4340,7.12928700248332,1
4341,7.144715318065285,1
4342,8.168951628291072,1
4343,7.01330898420922,1
4344,7.021332368854273,1
4345,7.424506479275997,1
4346,7.312889839086276,1
4347,7.241301896359431,1
4348,7.824842956796169,1
4349,7.29796984051425,1
4350,7.130138725807909,1
4351,7.481738270409777,1
4352,7.1691142817050855,1
4353,7.724913004766936,1
4354,6.942549380413987,1
4355,7.205490269880828,1
4356,7.337591685306895,1
4357,7.198449351081457,1
4358,7.4729543144826955,1
4359,8.105985286632453,1
4360,8.466275636671199,1
4361,7.818008329421038,1
4362,7.704248569781441,1
4363,8.055970729198794,1
4364,7.520622366002515,1
4365,6.796062466614955,1
4366,6.819578242264367,1
4367,7.001823955750776,1
4368,6.643535123306977,1
4369,6.6333785956381535,1
4370,7.743574651116348,1
4371,8.293554439420252,1
4372,8.918385487162212,1
4373,8.936700560809616,1
4374,9.385054244766698,1
4375,8.527390416103858,1
4376,7.779807100185288,1
4377,6.037957246015926,1
4378,5.431142999178115,1
4379,4.550494266635171,1
4380,4.656158265923315,1
4381,4.946303404513126,1
4382,5.575588611577932,1
4383,7.086804034937416,1
4384,8.94210185510002,1
4385,11.337929010671225,1
4386,12.620177911126982,1
4387,13.151740954186792,1
4388,14.083626200584748,1
4389,14.955204600586525,1
4390,14.675205282922974,1
4391,13.2098906725329,1
4392,12.011759065045268,1
4393,10.965723826192473,1
4394,9.916271174737094,1
4395,8.58969782495169,1
4396,8.791228265119626,1
4397,8.113652128630944,1
4398,7.263698195712827,1
4399,7.7754820491731715,1
4400,7.78194642096914,0
4401,7.868059960654677,0
4402,8.21165398886701,0
4403,8.599472721837552,0
4404,9.400218810030982,0
4405,9.783681104632159,0
4406,11.06230187973562,0
4407,12.2221193072329,0
4408,12.738531850918275,0
4409,13.988616781487275,0
4410,14.606721590090533,0
4411,14.619557056636038,0
4412,13.660969814189219,0
4413,12.666723339233425,0
4414,10.468648708330951,0
4415,9.280544518150863,0
4416,7.070592938642136,0
4417,6.139745439716281,0
4418,4.509865413403862,0
4419,4.696596961498616,0
4420,5.01732654254495,0
4421,5.805920421146353,0
4422,6.631380880186065,0
4423,8.41325982462314,0
4424,8.679099172188428,0
4425,9.130741550722503,0
4426,9.154167942157002,0
4427,8.73937084499582,0
4428,7.817253835221177,0
4429,8.054437391494899,0
4430,7.446976251933414,0
4431,6.887613037978387,0
4432,6.312219366283417,0
4433,6.5532736892231265,0
4434,6.852104488977682,0
4435,7.500879744885072,0
4436,7.366823279163067,0
4437,8.166385810372567,0
4438,7.636194806561111,0
4439,8.471429924352565,0
4440,7.897758558869388,0
4441,7.188531974343287,0
4442,7.5093477193819975,0
4443,7.994026729644473,0
4444,7.325145049770689,0
4445,7.6773924213336695,0
4446,6.9947733095086,0
4447,7.623478167806612,0
4448,7.934326017002253,0
4449,6.914407296906631,0
4450,8.042015991386508,0
4451,7.814753388570421,0
4452,7.152707124222962,0
4453,8.108183301067829,0
4454,7.877826198586018,0
4455,7.370885141931585,0
4456,8.012345494520714,0
4457,7.772722080212763,0
4458,7.5105334934354415,0
4459,7.543641439432457,0
4460,7.2778304351860665,0
4461,7.6967466292395,0
4462,7.750495383648623,0
4463,7.1872278703534,0
4464,7.870021414397476,0
4465,7.985457995682416,0
4466,7.228071970034319,0
4467,7.302285297259199,0
4468,7.298727772517623,0
4469,7.35920726619207,0
4470,8.056290315705802,0
4471,7.031083339563446,0
4472,7.424063329546328,0
4473,8.072734776361715,0
4474,7.933987945461889,0
4475,7.98655228821399,0
4476,7.942908829659091,0
4477,6.859797719965323,0
4478,8.008885517812331,0
4479,8.036200413661165,0
4480,7.711051088152044,0
4481,8.1481367358914,0
4482,7.740208823997137,0
4483,7.751157313616995,0
4484,7.74045811120934,0
4485,8.128030335402848,0
4486,7.6378820945671,0
4487,7.239883151099206,0
4488,7.459176793915609,0
4489,7.67575340727676,0
4490,7.896826421250831,0
4491,7.880693933146362,0
4492,7.428178873822462,0
4493,7.822907158843907,0
4494,7.833535393473845,0
4495,7.160890872359836,0
4496,7.469767330679946,0
4497,7.364674402167093,0
4498,7.8987240667915035,0
4499,8.137482820299626,0
4500,7.9931615556141145,0
4501,8.13506633077366,0
4502,7.901561549292198,0
4503,8.535439048899269,0
4504,9.190690861961365,0
4505,10.254810281915681,0
4506,10.626480620954643,0
4507,11.556734772862601,0
4508,13.460907784233594,0
4509,13.844721182614137,0
4510,14.426078837687363,0
4511,14.467025450832423,0
4512,13.720345070952117,0
4513,13.097206599472038,0
4514,11.17090837916775,0
4515,9.837168602293696,0
4516,7.350476788356007,0
4517,5.747652028121289,0
4518,5.12793097172136,0
4519,5.5984357988680316,0
4520,5.1971823984412415,0
4521,5.938004790673451,0
4522,7.01720817758278,0
4523,6.836728032079407,0
4524,8.808692055088859,0
4525,9.342132554943957,0
4526,9.49290103311614,0
4527,8.704384613169701,0
4528,8.391724014109496,0
4529,7.371189129269983,0
4530,7.628955301102524,0
4531,7.31961413126823,0
4532,7.013072488109944,0
4533,7.340753834356021,0
4534,7.363201873444125,0
4535,7.2045344112266285,0
4536,7.946440746270747,0
4537,8.182833951707508,0
4538,7.787322725025513,0
4539,7.803439833504602,0
4540,7.703880845990704,0
4541,7.929216725032891,0
4542,7.680716381952348,0
4543,7.207200819908521,0
4544,7.529147320850454,0
4545,7.301449315070308,0
4546,7.5116991727741445,0
4547,7.518192639711666,0
4548,7.837486953930315,0
4549,7.647998811713063,0
4550,7.570125132067124,0
4551,7.657925823721597,0
4552,7.28898303942241,0
4553,7.193708571932318,0
4554,8.00081514410641,0
4555,7.572659696073906,0
4556,7.7895421735515455,0
4557,8.0036461055214,0
4558,8.080236676108237,0
4559,8.025123324763747,0
4560,8.00600022303492,0
4561,7.194831156051739,0
4562,7.399231735274692,0
4563,7.6671138110703465,0
4564,7.681504783609272,0
4565,7.340311310061475,0
4566,7.766023537101875,0
4567,8.120989715203219,0
4568,7.599534278805353,0
4569,7.856853151018061,0
4570,7.58904672327074,0
4571,7.565378141869572,0
4572,7.874987220860891,0
4573,7.533072090900136,0
4574,7.420370843012481,0
4575,7.721216800005117,0
4576,7.700490639958708,0
4577,8.191842883190686,0
4578,7.488241733492869,0
4579,7.7734636804483355,0
4580,7.536986654932493,0
4581,7.769001783560715,0
4582,7.5178354686430335,0
4583,7.927314510699283,0
4584,7.771386029588738,0
4585,7.927450135188081,0
4586,7.15958425743973,0
4587,7.576512542655469,0
4588,7.890080787990769,0
4589,7.94161256955558,0
4590,7.9267719878248055,0
4591,7.58680617483524,0
4592,7.639546296823631,0
4593,8.248609810077596,0
4594,7.550967302335026,0
4595,7.928541901633985,0
4596,7.6110811265986955,0
4597,7.561344011705782,0
4598,7.588547453899309,0
4599,7.327355968131331,0
4600,7.81261063779909,0
4601,8.125068307014587,0
4602,8.4812393328333,0
4603,8.866541517018346,0
4604,9.049622269263956,0
4605,9.8727212504122,0
4606,11.654925786531393,0
4607,12.377769785014673,0
4608,13.461480784656455,0
4609,14.285964315640355,0
4610,14.593412370199392,0
4611,14.736272690544164,0
4612,14.061842904532316,0
4613,12.606167835714341,0
4614,11.439055782909868,0
4615,9.606230848721072,0
4616,7.536492351929072,0
4617,6.306538031071933,0
4618,5.418720671132865,0
4619,4.8344868358783994,0
4620,4.653587520940322,0
4621,5.445610358193694,0
4622,6.633312405687223,0
4623,7.949332635685265,0
4624,8.554844983005065,0
4625,9.67890344839234,0
4626,10.091283244470224,0
4627,9.199191143889907,0
4628,8.759159665894304,0
4629,7.722338652916672,0
4630,7.508437201425829,0
4631,7.267374252009688,0
4632,7.15384697395341,0
4633,6.94014344366442,0
4634,7.319871386407549,0
4635,7.958128134263451,0
4636,7.854232604054787,0
4637,8.273760228791497,0
4638,8.07143708710666,0
4639,8.427935460315176,0
4640,8.298226520321101,0
4641,8.063281659378479,0
4642,7.109896698092173,0
4643,8.285806725911028,0
4644,7.263240966633155,0
4645,7.838689582191876,0
4646,7.3282593569632075,0
4647,7.579022876994544,0
4648,7.716138109088968,0
4649,7.462304358116301,0
4650,7.328229052695376,0
4651,7.8553967187699465,0
4652,7.880803057197341,0
4653,7.673035255116392,0
4654,7.458131189170557,0
4655,7.452222114798868,0
4656,7.473876089146477,0
4657,7.810654427722189,0
4658,7.4647451583119855,0
4659,8.239128753723683,0
4660,7.617139383643622,0
4661,7.461393006657027,0
4662,8.059954111447832,0
4663,8.15863945557864,0
4664,7.839874658321458,0
4665,7.641537075586653,0
4666,7.8268995651784525,0
4667,7.693246730004417,0
4668,8.197040403358614,0
4669,8.15623418861452,0
4670,8.013935742614303,0
4671,7.857167996697142,0
4672,7.443961497962995,0
4673,8.257034231151815,0
4674,8.06216293346516,0
4675,7.712087247062931,0
4676,7.5234628215016075,0
4677,7.818575062201875,0
4678,7.3120984312376125,0
4679,7.6340399594720125,0
4680,7.94617126840446,0
4681,8.09211353944751,0
4682,7.9961287687611495,0
4683,8.158444953519295,0
4684,7.639843515276741,0
4685,8.275612837369982,0
4686,8.04655673265271,0
4687,8.355048054312038,0
4688,7.879207480851014,0
4689,8.23496098224598,0
4690,8.249089801760704,0
4691,7.617753331192244,0
4692,7.837007860096899,0
4693,7.5362137376254354,0
4694,7.8045300025622995,0
4695,8.027060951001259,0
4696,7.925400281488305,0
4697,7.69684063832436,0
4698,8.156398855838146,0
4699,7.5347211754068,0
4700,7.227020041145355,0
4701,8.265295975513602,0
4702,8.391739127803403,0
4703,9.082307358426673,0
4704,9.471087387556903,0
4705,10.513595431407403,0
4706,10.918049221280889,0
4707,12.312159849881215,0
4708,13.343324061328735,0
4709,13.873941970624596,0
4710,14.795837562543554,0
4711,14.829102699580833,0
4712,14.547421615872661,0
4713,12.876941333370041,0
4714,11.527405548016448,0
4715,9.322106674494243,0
4716,7.539492019533596,0
4717,6.004370730460237,0
4718,5.475519372608418,0
4719,3.8880443785990053,0
4720,5.1123169683042455,0
4721,5.366347172736125,0
4722,7.147296457245535,0
4723,7.607947458695139,0
4724,8.720425873283379,0
4725,8.881084261539346,0
4726,8.769103505019286,0
4727,9.192496847821088,0
4728,8.758485891413601,0
4729,7.400289336564443,0
4730,7.138225328563936,0
4731,7.3046247422408115,0
4732,6.9601155675983915,0
4733,7.5576616922347934,0
4734,6.738644596744557,0
4735,7.398395016166372,0
4736,7.782420356510445,0
4737,8.070084046892804,0
4738,8.128499935555556,0
4739,8.314148302461351,0
4740,8.089840208674405,0
4741,8.171051992481292,0
4742,8.140398877069329,0
4743,7.372669772853666,0
4744,7.503001204044629,0
4745,8.100332258524828,0
4746,7.2579498347587466,0
4747,7.476115982750149,0
4748,8.047207180079116,0
4749,7.8448585487274185,0
4750,6.988457859987646,0
4751,8.043243062723965,0
4752,7.294875388818178,0
4753,7.846909784788137,0
4754,7.633890313486655,0
4755,7.642913789880578,0
4756,8.178885019472004,0
4757,7.628292061750957,0
4758,7.787444212333499,0
4759,7.61542972501631,0
4760,7.815954454123078,0
4761,7.135035928734893,0
4762,7.31115500219731,0
4763,7.497888738475333,0
4764,7.638841185113528,0
4765,8.18840548030166,0
4766,7.879411843223836,0
4767,7.382946853994062,0
