timestamp,value-0,is_anomaly
0,-1.643068662473095,0.0
1,-1.483705462869243,0.0
2,-1.0158562582805217,0.0
3,-0.2858358445208018,0.0
4,0.5920779033260952,0.0
5,1.6476121357193607,0.0
6,2.696183059820755,0.0
7,3.7193661330882177,0.0
8,4.529394958440199,0.0
9,5.040970122793759,0.0
10,5.002998744410418,0.0
11,4.338552994275208,0.0
12,3.1398014991838448,0.0
13,1.5588215988806755,0.0
14,-0.28424219312029053,0.0
15,-2.092833258794804,0.0
16,-3.639386884007128,0.0
17,-4.597215113652728,0.0
18,-4.868831656659029,0.0
19,-4.558241094452534,0.0
20,-3.783574186071057,0.0
21,-2.7507447774780096,0.0
22,-1.6765026986590308,0.0
23,-0.7698761567685224,0.0
24,-0.2872475152276206,0.0
25,-0.279645907864694,0.0
26,-0.549205046651954,0.0
27,-1.0400404601902242,0.0
28,-1.6174344018822053,0.0
29,-2.1574669341791815,0.0
30,-2.492057757435109,0.0
31,-2.5556349235106555,0.0
32,-2.423586979698948,0.0
33,-2.170419893914766,0.0
34,-1.8854999919528204,0.0
35,-1.6677586663651809,0.0
36,-1.4858536192209586,0.0
37,-1.4321267737225383,0.0
38,-1.4585832918643133,0.0
39,-1.6191741057417224,0.0
40,-1.7434801660476025,0.0
41,-1.8236101844351862,0.0
42,-1.8878815329611336,0.0
43,-1.889552585018136,0.0
44,-1.853614595564813,0.0
45,-1.8129022792749905,0.0
46,-1.7629547377469197,0.0
47,-1.7434980336736376,0.0
48,-1.7055458914773183,0.0
49,-1.718002950151867,0.0
50,-1.7337688437094252,0.0
51,-1.7317089349655534,0.0
52,-1.7398295475749388,0.0
53,-1.7387896401989906,0.0
54,-1.714075659323907,0.0
55,-1.7156101288791812,0.0
56,-1.6985720583869133,0.0
57,-1.6880862580752172,0.0
58,-1.6822982403045552,0.0
59,-1.635378632324816,0.0
60,-1.6359946268630239,0.0
61,-1.6546636817497007,0.0
62,-1.6303928953211824,0.0
63,-1.635413176093373,0.0
64,-1.6312380489193161,0.0
65,-1.6272089125458926,0.0
66,-1.6125532852215791,0.0
67,-1.6185604957466566,0.0
68,-1.623389381070067,0.0
69,-1.6069253121324263,0.0
70,-1.6109912316993749,0.0
71,-1.5998124480235358,0.0
72,-1.6028663010812707,0.0
73,-1.5918864012996752,0.0
74,-1.6226481703074827,0.0
75,-1.616862169231479,0.0
76,-1.605155016740197,0.0
77,-1.6118702793276902,0.0
78,-1.608234825124975,0.0
79,-1.6012037381288955,0.0
80,-1.6042643820285234,0.0
81,-1.5941685065032323,0.0
82,-1.6023785237289405,0.0
83,-1.5782897158185794,0.0
84,-1.5837809421556328,0.0
85,-1.5539330867123629,0.0
86,-1.5381276086605626,0.0
87,-1.5047575279544265,0.0
88,-1.5207374418470296,0.0
89,-1.4998807794035836,0.0
90,-1.4916784374789025,0.0
91,-1.4803901666979953,0.0
92,-1.446058534980595,0.0
93,-1.4716235325997338,0.0
94,-1.4629977748431255,0.0
95,-1.459763729846007,0.0
96,-1.441406456088452,0.0
97,-1.4568476076274974,0.0
98,-1.43346169947981,0.0
99,-1.3436389203246173,0.0
100,-1.1778708850810689,0.0
101,-0.9125174459936519,0.0
102,-0.46760962217957247,0.0
103,0.13847400486060524,0.0
104,1.0121176995613816,0.0
105,2.0450570999993896,0.0
106,3.1309136484348343,0.0
107,4.157715634660388,0.0
108,5.0116480188224255,0.0
109,5.490561453521986,0.0
110,5.485936438994418,0.0
111,4.8538670203088685,0.0
112,3.6558814119438576,0.0
113,2.081177371329997,0.0
114,0.30753288646307886,0.0
115,-1.508584112216087,0.0
116,-3.038622349638033,0.0
117,-4.011704799658445,0.0
118,-4.27477760262647,0.0
119,-3.9925048349967565,0.0
120,-3.2684350266506295,0.0
121,-2.2245591980263497,0.0
122,-1.1341906695187296,0.0
123,-0.23367421381942544,0.0
124,0.2427892381294996,0.0
125,0.2570974823778178,0.0
126,-0.054221523871399224,0.0
127,-0.5507901020342756,0.0
128,-1.1389866689424692,0.0
129,-1.6853401602144797,0.0
130,-2.041359004632686,0.0
131,-2.1224369573067388,0.0
132,-1.9928661196480113,0.0
133,-1.7384459583848892,0.0
134,-1.449577374202995,0.0
135,-1.2078015055240237,0.0
136,-1.048340060155799,0.0
137,-0.9585579047336854,0.0
138,-1.0171818818435145,0.0
139,-1.1359725471681341,0.0
140,-1.2624530323495917,0.0
141,-1.354989940713282,0.0
142,-1.366816890734455,0.0
143,-1.363617102033346,0.0
144,-1.318632904664094,0.0
145,-1.283864866420993,0.0
146,-1.2477838804485473,0.0
147,-1.1945907806644966,0.0
148,-1.1690046888513033,0.0
149,-1.1695566763484702,0.0
150,-1.1741313836096512,0.0
151,-1.1487932526427658,0.0
152,-1.1719447212469754,0.0
153,-1.1566362859168893,0.0
154,-1.1491628192031618,0.0
155,-1.1486834326597322,0.0
156,-1.1443538991553868,0.0
157,-1.1500584280980952,0.0
158,-1.131506774506492,0.0
159,-1.1330054284573816,0.0
160,-1.1292393208905902,0.0
161,-1.113686110368737,0.0
162,-1.1288856422003564,0.0
163,-1.1363323978384852,0.0
164,-1.1286987111417752,0.0
165,-1.1424998216510065,0.0
166,-1.1461684656668782,0.0
167,-1.1367087553989688,0.0
168,-1.1460735557337527,0.0
169,-1.126870833161599,0.0
170,-1.1442096409367397,0.0
171,-1.1544134721201484,0.0
172,-1.1716324925262447,0.0
173,-1.1713673691042714,0.0
174,-1.1752933934868466,0.0
175,-1.191066596516128,0.0
176,-1.1457286994830493,0.0
177,-1.167907165302293,0.0
178,-1.1651025235394126,0.0
179,-1.1777162588105126,0.0
180,-1.166934928121398,0.0
181,-1.1463548437782758,0.0
182,-1.144028437098511,0.0
183,-1.135949952687255,0.0
184,-1.1378904071568705,0.0
185,-1.1333167383856133,0.0
186,-1.1132252173546007,0.0
187,-1.1078193263019305,0.0
188,-1.104928451389899,0.0
189,-1.0881418553173368,0.0
190,-1.0785742327601249,0.0
191,-1.0655204045682336,0.0
192,-1.075772752918104,0.0
193,-1.0645012854361848,0.0
194,-1.034506387464097,0.0
195,-1.0643242744470425,0.0
196,-1.0497712657515632,0.0
197,-1.0451996737203593,0.0
198,-1.0147810125420142,0.0
199,-0.9341103559151437,0.0
200,-0.7904561022491908,0.0
201,-0.4944254176488335,0.0
202,-0.06416981880792016,0.0
203,0.553694401904302,0.0
204,1.3856426504218267,0.0
205,2.4047834551534404,0.0
206,3.504536714429967,0.0
207,4.537015379892916,0.0
208,5.366216235641682,0.0
209,5.872156901291206,0.0
210,5.873646935549883,0.0
211,5.2385724854269204,0.0
212,4.07090407969905,0.0
213,2.5028393755898115,0.0
214,0.6888082263253437,0.0
215,-1.125655131733821,0.0
216,-2.668783176284418,0.0
217,-3.6458274917464526,0.0
218,-3.9511919031467926,0.0
219,-3.671146124114599,0.0
220,-2.9380837870972787,0.0
221,-1.9090459309032295,0.0
222,-0.796808267079298,0.0
223,0.11084282108612742,0.0
224,0.6028916798297876,0.0
225,0.6488623938589271,0.0
226,0.36219508917316634,0.0
227,-0.1510704028903811,0.0
228,-0.7645429956876244,0.0
229,-1.249991422242886,0.0
230,-1.618619727276923,0.0
231,-1.7288072014933955,0.0
232,-1.5936932237478805,0.0
233,-1.3491161280318384,0.0
234,-1.0508320918888137,0.0
235,-0.821807853513356,0.0
236,-0.6421240506753237,0.0
237,-0.5793379621980856,0.0
238,-0.6208429404904876,0.0
239,-0.7380343790122711,0.0
240,-0.8692396204816114,0.0
241,-0.9525441684986858,0.0
242,-1.0133995603984876,0.0
243,-1.010974834715658,0.0
244,-1.001320610229167,0.0
245,-0.942677037396042,0.0
246,-0.8921948251334105,0.0
247,-0.8572461374516233,0.0
248,-0.8437685454051426,0.0
249,-0.8374371827348135,0.0
250,-0.8381805734245691,0.0
251,-0.8433083218808164,0.0
252,-0.8399329945664163,0.0
253,-0.859736779108391,0.0
254,-0.8242270595990275,0.0
255,-0.8563686118445143,0.0
256,-0.8355577502086577,0.0
257,-0.8262265777696298,0.0
258,-0.8310668645379118,0.0
259,-0.83448244268869,0.0
260,-0.8239263419206972,0.0
261,-0.8282701142784518,0.0
262,-0.8048100357111335,0.0
263,-0.8225068748460655,0.0
264,-0.821088818740839,0.0
265,-0.8099715500992847,0.0
266,-0.8172552974887044,0.0
267,-0.7892828695759079,0.0
268,-0.818170212679097,0.0
269,-0.8038240581786054,0.0
270,-0.7996913640550001,0.0
271,-0.7889144608608677,0.0
272,-0.7629827621052524,0.0
273,-0.7623709734390105,0.0
274,-0.7462811836039425,0.0
275,-0.755009431523949,0.0
276,-0.7608549943688535,0.0
277,-0.7652909842410373,0.0
278,-0.7254676887069643,0.0
279,-0.7224221520545318,0.0
280,-0.7176600186747294,0.0
281,-0.7279978463246384,0.0
282,-0.7068207979877232,0.0
283,-0.7287286587317131,0.0
284,-0.738770463796768,0.0
285,-0.7622461353637953,0.0
286,-0.7500147186645871,0.0
287,-0.7658562460249922,0.0
288,-0.7484983148626407,0.0
289,-0.7634988767214546,0.0
290,-0.760429750968507,0.0
291,-0.7634343382570604,0.0
292,-0.7433932525639906,0.0
293,-0.7374111721449238,0.0
294,-0.734362471653978,0.0
295,-0.7264338147576368,0.0
296,-0.7071718919723088,0.0
297,-0.6704469265186404,0.0
298,-0.6469843319601807,0.0
299,-0.5604755030593299,0.0
300,-0.39085379128527087,0.0
301,-0.11817520304536178,0.0
302,0.3326102384700731,0.0
303,0.9583872165516033,0.0
304,1.8278945478001325,0.0
305,2.8118846868004272,0.0
306,3.922877806993992,0.0
307,4.9324934847545725,0.0
308,5.791474687741446,0.0
309,6.29840416070499,0.0
310,6.315176062606493,0.0
311,5.681015079808056,0.0
312,4.5096248513966914,0.0
313,2.9249323446667237,0.0
314,1.1244218102834047,0.0
315,-0.7076735410539373,0.0
316,-2.3132268098718907,0.0
317,-3.30084716109275,0.0
318,-3.628928333130516,0.0
319,-3.358972397822731,0.0
320,-2.634310082073856,0.0
321,-1.6295374269955223,0.0
322,-0.4989504446138528,0.0
323,0.4107013680162095,0.0
324,0.9159702087548736,0.0
325,0.9585432025661442,0.0
326,0.7365108423531149,0.0
327,0.24601641962419363,0.0
328,-0.34063205882891623,0.0
329,-0.8768566708845391,0.0
330,-1.2117774100306944,0.0
331,-1.3277311752378178,0.0
332,-1.1713431449865075,0.0
333,-0.9210670375734611,0.0
334,-0.6412034701523566,0.0
335,-0.3887695700451286,0.0
336,-0.23094769286876193,0.0
337,-0.15819914294873322,0.0
338,-0.19761420238027683,0.0
339,-0.3059466765261922,0.0
340,-0.43659030848572344,0.0
341,-0.5112464715003384,0.0
342,-0.5698881668450833,0.0
343,-0.5603618329289809,0.0
344,-0.5578244427083844,0.0
345,-0.5299969751227043,0.0
346,-0.46793377592979923,0.0
347,-0.4319503713068031,0.0
348,-0.3868563147849255,0.0
349,-0.40630112903863647,0.0
350,-0.4017150948084561,0.0
351,-0.41246722276438336,0.0
352,-0.4290768315865748,0.0
353,-0.4184930337491096,0.0
354,-0.4121456976443314,0.0
355,-0.4051694994263283,0.0
356,-0.40324961459197256,0.0
357,-0.3953878466754717,0.0
358,-0.39364232693238266,0.0
359,-0.3848899103256347,0.0
360,-0.38083684456744143,0.0
361,-0.379124837516511,0.0
362,-0.36608011837919907,0.0
363,-0.3816805203295673,0.0
364,-0.3716297896707006,0.0
365,-0.3628651467108549,0.0
366,-0.3443304047607918,0.0
367,-0.35101131062326135,0.0
368,-0.33813160003789894,0.0
369,-0.3358722333750991,0.0
370,-0.3480137945511029,0.0
371,-0.33152277163622795,0.0
372,-0.3245659552181442,0.0
373,-0.3344752321784495,0.0
374,-0.31296304447669326,0.0
375,-0.31878537913393795,0.0
376,-0.31171583587639135,0.0
377,-0.3126498370524718,0.0
378,-0.30349927217119305,0.0
379,-0.28992006423465655,0.0
380,-0.2731702438884352,0.0
381,-0.2770030076113461,0.0
382,-0.2565784318999186,0.0
383,-0.23426300495021185,0.0
384,-0.22327213860880749,0.0
385,-0.20164884948793405,0.0
386,-0.19251552164799784,0.0
387,-0.17293488950508346,0.0
388,-0.15371781265758055,0.0
389,-0.1639718388106763,0.0
390,-0.1301694482213528,0.0
391,-0.14126823958317491,0.0
392,-0.14283612858349615,0.0
393,-0.1423674730675989,0.0
394,-0.13343741745573034,0.0
395,-0.17858151994337912,0.0
396,-0.1756983912836719,0.0
397,-0.18478298280538022,0.0
398,-0.18030576267663706,0.0
399,-0.10752571861286603,0.0
400,0.03981287409898898,0.0
401,0.31283344056290363,0.0
402,0.733605041025728,0.0
403,1.3582719353098431,0.0
404,2.194944611760118,0.0
405,3.2097301618388085,0.0
406,4.307452712703004,0.0
407,5.3308549665159255,0.0
408,6.176849992102931,0.0
409,6.7328543171285675,0.0
410,6.74352070100229,0.0
411,6.177270969299779,0.0
412,5.008415435083786,0.0
413,3.4349255345984253,0.0
414,1.618628621931828,0.0
415,-0.18562832679986208,0.0
416,-1.7854406281128783,0.0
417,-2.79196426776756,0.0
418,-3.1278566823469642,0.0
419,-2.8570102276915033,0.0
420,-2.155594872665091,0.0
421,-1.1214057882969584,0.0
422,-0.023184972845105428,0.0
423,0.8839037110589895,0.0
424,1.42755112480409,0.0
425,1.4811215910348394,0.0
426,1.1900842568438852,0.0
427,0.7175303260541945,0.0
428,0.13011634103569125,0.0
429,-0.4096138658434151,0.0
430,-0.7749930830205778,0.0
431,-0.8601478361997041,0.0
432,-0.7464683464289985,0.0
433,-0.48266846675094094,0.0
434,-0.18436153584868578,0.0
435,0.040794962753151906,0.0
436,0.20155606080941418,0.0
437,0.3031234324898116,0.0
438,0.24052994204828348,0.0
439,0.12454037127281523,0.0
440,0.011274322512161657,0.0
441,-0.07887273511428006,0.0
442,-0.11777232770703833,0.0
443,-0.1344287120194979,0.0
444,-0.09501807808057844,0.0
445,-0.05525267655199616,0.0
446,0.004494959846353671,0.0
447,0.019820800611958997,0.0
448,0.058847997974460976,0.0
449,0.048435772397921906,0.0
450,0.028210655546127183,0.0
451,0.034649286023819836,0.0
452,0.04571599357472261,0.0
453,0.04190644490856252,0.0
454,0.033420961474373276,0.0
455,0.039500291758817196,0.0
456,0.051667212921511524,0.0
457,0.05292370766039457,0.0
458,0.05106463975420582,0.0
459,0.06052826934178438,0.0
460,0.042973104623217004,0.0
461,0.06077933451002372,0.0
462,0.055109355767367495,0.0
463,0.07130463428628823,0.0
464,0.07618682370077429,0.0
465,0.04819907960328546,0.0
466,0.05937160747443676,0.0
467,0.056586303992320154,0.0
468,0.05906361936800096,0.0
469,0.05385952306236086,0.0
470,0.08650522917241596,0.0
471,0.0703941651410378,0.0
472,0.0901660279250555,0.0
473,0.07776006987791163,0.0
474,0.09801562896395948,0.0
475,0.09411642888706735,0.0
476,0.1106169081757182,0.0
477,0.10007809903991294,0.0
478,0.1303714212712773,0.0
479,0.12407522729014689,0.0
480,0.13916365110551696,0.0
481,0.13105033659080711,0.0
482,0.15017350704765306,0.0
483,0.13810418933217056,0.0
484,0.12855234282649594,0.0
485,0.13665926160137293,0.0
486,0.16798197061128334,0.0
487,0.17155504494069895,0.0
488,0.15504626355247292,0.0
489,0.16459221985134592,0.0
490,0.17146634739421784,0.0
491,0.1750014656136917,0.0
492,0.18897208279017602,0.0
493,0.1921387489099471,0.0
494,0.19117633439681503,0.0
495,0.19024114358114652,0.0
496,0.2041352684543503,0.0
497,0.21235449574844534,0.0
498,0.23890684167517978,0.0
499,0.311223428715404,0.0
500,0.4595369046719637,0.0
501,0.7530815661831198,0.0
502,1.186941265585853,0.0
503,1.8007687133385417,0.0
504,2.6356284920152824,0.0
505,3.654506670817103,0.0
506,4.754151179114298,0.0
507,5.7879157489947675,0.0
508,6.6591053696006615,0.0
509,7.206938309021683,0.0
510,7.231344430972122,0.0
511,6.645388068238555,0.0
512,5.4914335674653945,0.0
513,3.939632840225806,0.0
514,2.128727525459605,0.0
515,0.28088973335871026,0.0
516,-1.309325215648788,0.0
517,-2.3416187533709483,0.0
518,-2.713064399603883,0.0
519,-2.4683935636888017,0.0
520,-1.7660527819659881,0.0
521,-0.7647842598520376,0.0
522,0.33209785627534305,0.0
523,1.2840032428521866,0.0
524,1.8068359645932448,0.0
525,1.892481436155418,0.0
526,1.6200212674505445,0.0
527,1.1188678075591212,0.0
528,0.5598398360644101,0.0
529,0.024702582252323524,0.0
530,-0.351747073070542,0.0
531,-0.43767804269393323,0.0
532,-0.31530237443846537,0.0
533,-0.07340476280780134,0.0
534,0.22245308815069145,0.0
535,0.45926180810813527,0.0
536,0.6193653535457558,0.0
537,0.6665018854831555,0.0
538,0.6544486915311607,0.0
539,0.5401867953455679,0.0
540,0.40923697867891917,0.0
541,0.3388250520579706,0.0
542,0.2831845047258995,0.0
543,0.27854921288875123,0.0
544,0.2878071230913754,0.0
545,0.3377424725682963,0.0
546,0.3881502422574681,0.0
547,0.44593065594669423,0.0
548,0.44872536272609054,0.0
549,0.46063416796663337,0.0
550,0.4448102703960338,0.0
551,0.43444416091519,0.0
552,0.4481115218700343,0.0
553,0.4357463376081593,0.0
554,0.44649181218165684,0.0
555,0.4339029955996539,0.0
556,0.4518745497849038,0.0
557,0.46885806658855883,0.0
558,0.45655152949563954,0.0
559,0.46792214151214934,0.0
560,0.46416284951282427,0.0
561,0.4504575417191383,0.0
562,0.45545030558671595,0.0
563,0.4492468658394923,0.0
564,0.46578155991354836,0.0
565,0.474395627383276,0.0
566,0.4730376371708582,0.0
567,0.495048979171071,0.0
568,0.4878878944145385,0.0
569,0.487243159606304,0.0
570,0.494817139121943,0.0
571,0.4930148635548123,0.0
572,0.5132112888290278,0.0
573,0.5299838998112049,0.0
574,0.5284109085596462,0.0
575,0.5240114014527383,0.0
576,0.5416788985595309,0.0
577,0.5394175427132688,0.0
578,0.5392279726968615,0.0
579,0.5564964223640616,0.0
580,0.5509237178875535,0.0
581,0.5735940784202661,0.0
582,0.5482123513455102,0.0
583,0.554791033803256,0.0
584,0.547140553083917,0.0
585,0.5664894301120055,0.0
586,0.5543915703573674,0.0
587,0.5842158001796951,0.0
588,0.5773055509044931,0.0
589,0.5695576689783782,0.0
590,0.574971132860251,0.0
591,0.5893197261671973,0.0
592,0.5825261405741377,0.0
593,0.584709163957808,0.0
594,0.5708337054959116,0.0
595,0.5896562036923854,0.0
596,0.5991652436053034,0.0
597,0.6035936482300338,0.0
598,0.6216136352514963,0.0
599,0.6983991970385269,0.0
600,0.8515355436870495,0.0
601,1.1003158962140007,0.0
602,1.53122780425257,0.0
603,2.150899842098511,0.0
604,2.9597778489282023,0.0
605,3.985282860906339,0.0
606,5.053987478010306,0.0
607,6.097579060134588,0.0
608,6.968507116855168,0.0
609,7.525267820586267,0.0
610,7.564808906724301,0.0
611,6.999510622529847,0.0
612,5.842406948831516,0.0
613,4.312327853747526,0.0
614,2.5215826561116965,0.0
615,0.6806402645074934,0.0
616,-0.9121184587196138,0.0
617,-1.9699046159972133,0.0
618,-2.331710280299419,0.0
619,-2.1075905026311883,0.0
620,-1.3907933682959277,0.0
621,-0.3824490011671867,0.0
622,0.7351767049276792,0.0
623,1.6596753910031201,0.0
624,2.20525313749581,0.0
625,2.3065203548565982,0.0
626,2.0296397872509693,0.0
627,1.5452324261161632,0.0
628,0.960381738178275,0.0
629,0.4211650195226685,0.0
630,0.0442864108075367,0.0
631,-0.05828260654874473,0.0
632,0.04354099692639857,0.0
633,0.32032852681729534,0.0
634,0.5773605486335683,0.0
635,0.8163440099804322,0.0
636,0.9925073558949791,0.0
637,1.0625191027418261,0.0
638,0.9919973608335079,0.0
639,0.9179742923390196,0.0
640,0.8064182528750644,0.0
641,0.6960180043607074,0.0
642,0.6428401423039192,0.0
643,0.6306694884301987,0.0
644,0.6532896905143862,0.0
645,0.712870965253965,0.0
646,0.7552921336159153,0.0
647,0.7895427585151968,0.0
648,0.8255669115865187,0.0
649,0.8148230651604317,0.0
650,0.8330918672825515,0.0
651,0.8345876938155306,0.0
652,0.815681605688306,0.0
653,0.8310135529062335,0.0
654,0.8210487140916731,0.0
655,0.8388261763929843,0.0
656,0.8436599498310964,0.0
657,0.8643966390683654,0.0
658,0.8677113851556696,0.0
659,0.8658881532442476,0.0
660,0.8874844384789388,0.0
661,0.8473357543338824,0.0
662,0.8640390174403402,0.0
663,0.8571806150578203,0.0
664,0.8440760048930075,0.0
665,0.8579128369442574,0.0
666,0.8534854248886417,0.0
667,0.8789401022993882,0.0
668,0.8630695594886717,0.0
669,0.8538734227572363,0.0
670,0.8682045143436441,0.0
671,0.8742842942978027,0.0
672,0.8534755232058736,0.0
673,0.8731224510273357,0.0
674,0.8888581014114579,0.0
675,0.8967013224443318,0.0
676,0.9161950440523681,0.0
677,0.9052170018018464,0.0
678,0.9048743537878194,0.0
679,0.9206591478458822,0.0
680,0.9507973719671892,0.0
681,0.9504248190996923,0.0
682,0.9409390465857381,0.0
683,0.9507209253002709,0.0
684,0.9570113923665468,0.0
685,0.9655910018997664,0.0
686,0.9600789760392299,0.0
687,0.975849439359747,0.0
688,0.9483103159693371,0.0
689,0.9744167144241315,0.0
690,0.9819608621853614,0.0
691,0.9984830330191624,0.0
692,0.9689207669377562,0.0
693,0.9942675975079531,0.0
694,0.9917690370162465,0.0
695,0.9956489792071291,0.0
696,0.9853259735962892,0.0
697,0.9961545473593085,0.0
698,1.0370655064730827,0.0
699,1.096712355184358,0.0
700,1.2545591643061649,0.0
701,1.4976368181406574,0.0
702,1.9285716374423632,0.0
703,2.54515452804625,0.0
704,3.3468897488719023,0.0
705,4.350897140241737,0.0
706,5.439984679686024,0.0
707,6.4725706813457355,0.0
708,7.3609399444636505,0.0
709,7.922325048023386,0.0
710,7.961166864952751,0.0
711,7.379984037625321,0.0
712,6.272522211701163,0.0
713,4.725185866526234,0.0
714,2.9075990450326628,0.0
715,1.0574348940841027,0.0
716,-0.524064656315449,0.0
717,-1.602202871959996,0.0
718,-1.9991584039253711,0.0
719,-1.7750187566029112,0.0
720,-1.1000290860321316,0.0
721,-0.07693454849102577,0.0
722,0.9984594848224666,0.0
723,1.95375979513209,0.0
724,2.507670556886108,0.0
725,2.5947174023990778,0.0
726,2.3582501942890612,0.0
727,1.8704484693615413,0.0
728,1.304580286043202,0.0
729,0.7398314866353228,0.0
730,0.36149436528221723,0.0
731,0.2454192175774531,0.0
732,0.3884117449204829,0.0
733,0.6383354284774612,0.0
734,0.9401692185834907,0.0
735,1.1948367902684405,0.0
736,1.3746176230248124,0.0
737,1.4696631236549704,0.0
738,1.423730294195387,0.0
739,1.3153185660810423,0.0
740,1.1935057723276379,0.0
741,1.1129751199339595,0.0
742,1.0743327805084246,0.0
743,1.039503230071185,0.0
744,1.0402095061836945,0.0
745,1.0977398026306864,0.0
746,1.1351681846664585,0.0
747,1.1654732120825693,0.0
748,1.1789251024472511,0.0
749,1.1728791333198076,0.0
750,1.1678095013863514,0.0
751,1.1405213093891633,0.0
752,1.1429450591800816,0.0
753,1.1451175897862935,0.0
754,1.1527292260169786,0.0
755,1.1609766075680077,0.0
756,1.1765477636405346,0.0
757,1.2120151837166595,0.0
758,1.204274349546336,0.0
759,1.2017551308878835,0.0
760,1.1946262882678076,0.0
761,1.2270830129739598,0.0
762,1.2304074813617465,0.0
763,1.2493829596852923,0.0
764,1.2628970138846465,0.0
765,1.2634126334672435,0.0
766,1.2611904113806498,0.0
767,1.2418823026234893,0.0
768,1.2425685106644802,0.0
769,1.2548223709280806,0.0
770,1.2439564737122641,0.0
771,1.259838074284069,0.0
772,1.2642258605135739,0.0
773,1.2625480791333898,0.0
774,1.2460502420894193,0.0
775,1.2514383558338222,0.0
776,1.2501437149171677,0.0
777,1.2639345405303946,0.0
778,1.2765476445661894,0.0
779,1.2416729160814588,0.0
780,1.285652217461498,0.0
781,1.275445803520463,0.0
782,1.2903099032673984,0.0
783,1.2823858474942562,0.0
784,1.2893409360982069,0.0
785,1.3052638588717218,0.0
786,1.299360119114753,0.0
787,1.2971729712251423,0.0
788,1.3185157723721843,0.0
789,1.3087421391398777,0.0
790,1.332158370436775,0.0
791,1.3334383370394762,0.0
792,1.317252388692184,0.0
793,1.331263601802046,0.0
794,1.317237687054766,0.0
795,1.315170784931516,0.0
796,1.332167969797256,0.0
797,1.3502303544421475,0.0
798,1.3699385025403574,0.0
799,1.4603592412059703,0.0
800,1.586995241476599,0.0
801,1.8481855625251222,0.0
802,2.2551825432173547,0.0
803,2.8678541073623016,0.0
804,3.719478535431516,0.0
805,4.719363125185557,0.0
806,5.819804898927159,0.0
807,6.870314929108627,0.0
808,7.765127985242007,0.0
809,8.339409649051632,0.0
810,8.428646703908958,0.0
811,7.8727524814816405,0.0
812,6.75801309581799,0.0
813,5.199089720898812,0.0
814,3.435673407217438,0.0
815,1.56874896021343,0.0
816,-0.06393660796795353,0.0
817,-1.1377939601060623,0.0
818,-1.5499906251429034,0.0
819,-1.334544582506884,0.0
820,-0.6972157138919808,0.0
821,0.3044306277966422,0.0
822,1.4092680810265332,0.0
823,2.3600938588713802,0.0
824,2.9375547186816977,0.0
825,3.0316371759822958,0.0
826,2.7974751239290923,0.0
827,2.3252504551911866,0.0
828,1.7434682186668662,0.0
829,1.1903902652589884,0.0
830,0.8108355638677819,0.0
831,0.7006444435617707,0.0
832,0.7849213586753337,0.0
833,1.047975760806707,0.0
834,1.3214803257064793,0.0
835,1.5558912833952756,0.0
836,1.7441963967432057,0.0
837,1.8221413305739178,0.0
838,1.774312597110705,0.0
839,1.6777974929745514,0.0
840,1.5583956320367278,0.0
841,1.461497685655864,0.0
842,1.4132657752399032,0.0
843,1.3806439012706313,0.0
844,1.4316513995347644,0.0
845,1.4871742212964298,0.0
846,1.526599820853076,0.0
847,1.5750747283360056,0.0
848,1.589590651652361,0.0
849,1.597985840660826,0.0
850,1.6045251981643402,0.0
851,1.5881420951678946,0.0
852,1.6103524321759044,0.0
853,1.5872137330347826,0.0
854,1.5759521120437976,0.0
855,1.582430186838381,0.0
856,1.5782101909238413,0.0
857,1.6006536074016826,0.0
858,1.5848178843228826,0.0
859,1.583407307754217,0.0
860,1.5940686054731674,0.0
861,1.5951636956439172,0.0
862,1.5851227714650518,0.0
863,1.613425577618417,0.0
864,1.614532202912493,0.0
865,1.6413887635484739,0.0
866,1.6128686984899174,0.0
867,1.6415526714959336,0.0
868,1.6502526343144859,0.0
869,1.6709428562106217,0.0
870,1.6440958397407712,0.0
871,1.661673739151589,0.0
872,1.6553871784733838,0.0
873,1.6681004750721695,0.0
874,1.6617684211347628,0.0
875,1.676618297301735,0.0
876,1.6849657699883382,0.0
877,1.669473468339181,0.0
878,1.6670617329153117,0.0
879,1.6503076548887645,0.0
880,1.6553006739466374,0.0
881,1.6560301130448478,0.0
882,1.667633979023843,0.0
883,1.6566619035103216,0.0
884,1.6311415445953614,0.0
885,1.6515671378946633,0.0
886,1.6637641244812582,0.0
887,1.6656033195061137,0.0
888,1.6603000406928257,0.0
889,1.6837634743933183,0.0
890,1.6717702968853383,0.0
891,1.7022966404420903,0.0
892,1.6851496926544833,0.0
893,1.6882129225738955,0.0
894,1.7222794501986105,0.0
895,1.7071190317250236,0.0
896,1.7058620175712236,0.0
897,1.744219847591181,0.0
898,1.7553477199733236,0.0
899,1.8334570462666997,0.0
900,1.9726986710661352,0.0
901,2.2233449598822785,0.0
902,2.636959769064669,0.0
903,3.2224292104942807,0.0
904,4.051499844623711,0.0
905,5.012447470906022,0.0
906,6.088457414873995,0.0
907,7.1458349889036965,0.0
908,8.036503470625881,0.0
909,8.59185396156302,0.0
910,8.706584501352898,0.0
911,8.147296200934333,0.0
912,7.038410234532914,0.0
913,5.535652389613728,0.0
914,3.737810689820863,0.0
915,1.9041583316466553,0.0
916,0.2758659166990778,0.0
917,-0.8458547089262034,0.0
918,-1.2532833877190486,0.0
919,-1.0543480392958091,0.0
920,-0.37292232484286947,0.0
921,0.6113759174113977,0.0
922,1.7255818285592721,0.0
923,2.686718843479011,0.0
924,3.260789339567265,0.0
925,3.357611097031025,0.0
926,3.1316178364794958,0.0
927,2.670998760778047,0.0
928,2.094132429811526,0.0
929,1.5489477812358776,0.0
930,1.1488467092771701,0.0
931,1.0466119188125136,0.0
932,1.139080400039798,0.0
933,1.4040857153470538,0.0
934,1.669450295390884,0.0
935,1.9385917460582713,0.0
936,2.1197641232840696,0.0
937,2.210590971496701,0.0
938,2.185328167934572,0.0
939,2.0845777601083,0.0
940,1.970352790987483,0.0
941,1.8692549678642432,0.0
942,1.8130580760354764,0.0
943,1.7884793826016592,0.0
944,1.8047362957384818,0.0
945,1.8186428038089832,0.0
946,1.8582359320054704,0.0
947,1.9068251173694977,0.0
948,1.9260908525870937,0.0
949,1.89408197637681,0.0
950,1.8834809298181363,0.0
951,1.8730990314541578,0.0
952,1.848650033884347,0.0
953,1.8432462460966996,0.0
954,1.840690857629201,0.0
955,1.8608327870698744,0.0
956,1.8564929543362263,0.0
957,1.840300476854109,0.0
958,1.8566031548724227,0.0
959,1.8565727183531657,0.0
960,1.8517241383432212,0.0
961,1.89915515056089,0.0
962,1.864645919886872,0.0
963,1.864315253419772,0.0
964,1.8845446340291432,0.0
965,1.8590173472528595,0.0
966,1.8892351175717343,0.0
967,1.8971732873305696,0.0
968,1.900011127485057,0.0
969,1.905637713708175,0.0
970,1.8996005244628642,0.0
971,1.93498691367509,0.0
972,1.9118272532118392,0.0
973,1.9208751495608438,0.0
974,1.9335896069912901,0.0
975,1.9362600353642772,0.0
976,1.9410242453120685,0.0
977,1.927878301606456,0.0
978,1.95324391253789,0.0
979,1.9537431951521878,0.0
980,1.9855056117454852,0.0
981,1.9654685786200967,0.0
982,1.9778674346292322,0.0
983,1.9832402556626163,0.0
984,1.9741310336675617,0.0
985,1.987587819683748,0.0
986,1.9476750006697385,0.0
987,2.0040494575391965,0.0
988,1.9690088728933517,0.0
989,1.9667427350319446,0.0
990,1.960377041779781,0.0
991,1.972769888480451,0.0
992,1.9810487895686832,0.0
993,1.9739678561712328,0.0
994,1.943453368593889,0.0
995,1.9385444412480135,0.0
996,1.970137040829752,0.0
997,1.95722548574561,0.0
998,1.9779221548579913,0.0
999,2.0458727139882926,0.0
1000,2.1779294308918304,0.0
1001,2.4484091743069354,0.0
1002,2.8307070193282176,0.0
1003,3.4133640142418002,0.0
1004,4.20167244231979,0.0
1005,5.232967711898837,0.0
1006,6.29825776066512,0.0
1007,7.351339246339639,0.0
1008,8.260596561214653,0.0
1009,8.839128900038352,0.0
1010,8.964863579834194,0.0
1011,8.43268706201371,0.0
1012,7.334197523380779,0.0
1013,5.826934967911898,0.0
1014,4.03677250635353,0.0
1015,2.1883593240138555,0.0
1016,0.5923139724274875,0.0
1017,-0.5561598557759897,0.0
1018,-0.9765040705944648,0.0
1019,-0.785462965359625,0.0
1020,-0.1419141638583592,0.0
1021,0.8521431806041222,0.0
1022,1.9491358167182122,0.0
1023,2.9419175174522514,0.0
1024,3.5087277655414226,0.0
1025,3.6213853141566483,0.0
1026,3.428095962733134,0.0
1027,2.959347888844516,0.0
1028,2.39191742011893,0.0
1029,1.8211388281077352,0.0
1030,1.4363968549101291,0.0
1031,1.289212901990653,0.0
1032,1.4110218629777624,0.0
1033,1.6571807651566006,0.0
1034,1.9314155106847581,0.0
1035,2.157131077082248,0.0
1036,2.3628594376119674,0.0
1037,2.4421695923002353,0.0
1038,2.3914869521068085,0.0
1039,2.302677149564946,0.0
1040,2.1653929893996797,0.0
1041,2.0746397545494273,0.0
1042,2.0195648756137627,0.0
1043,1.9723983935076426,0.0
1044,1.9800304426104418,0.0
1045,2.0206278213741125,0.0
1046,2.0754463930215503,0.0
1047,2.0973087978659026,0.0
1048,2.1178865790803303,0.0
1049,2.1189114768876363,0.0
1050,2.115756650806762,0.0
1051,2.07842176474866,0.0
1052,2.094185108805179,0.0
1053,2.1081572167335847,0.0
1054,2.0779622913829994,0.0
1055,2.0977660309164157,0.0
1056,2.1121774901230905,0.0
1057,2.1408471589036524,0.0
1058,2.1331275179660363,0.0
1059,2.1689937684065455,0.0
1060,2.16603709307351,0.0
1061,2.1639570320730015,0.0
1062,2.1840302147949378,0.0
1063,2.202691053354265,0.0
1064,2.1858291380064925,0.0
1065,2.2220352745952368,0.0
1066,2.2088683463047634,0.0
1067,2.208762480429024,0.0
1068,2.21479524966189,0.0
1069,2.210507137399811,0.0
1070,2.227625855674068,0.0
1071,2.217969116329771,0.0
1072,2.219578557575735,0.0
1073,2.2221660791369997,0.0
1074,2.2292469425068515,0.0
1075,2.2489851471282156,0.0
1076,2.239444031328381,0.0
1077,2.236963773051281,0.0
1078,2.252165639393431,0.0
1079,2.2241629477036247,0.0
1080,2.241783793283635,0.0
1081,2.2527457817713685,0.0
1082,2.2363040462738817,0.0
1083,2.252478569196979,0.0
1084,2.241655388118218,0.0
1085,2.256475481067474,0.0
1086,2.2559700316950897,0.0
1087,2.246438054059652,0.0
1088,2.254104878616459,0.0
1089,2.248240682859356,0.0
1090,2.2564908445814664,0.0
1091,2.2592868793286582,0.0
1092,2.253876381427637,0.0
1093,2.2707647798685278,0.0
1094,2.267322150887797,0.0
1095,2.262886998474872,0.0
1096,2.2679077477237968,0.0
1097,2.2574244185675445,0.0
1098,2.2890221300826674,0.0
1099,2.3632292485866673,0.0
1100,2.468368102848729,0.0
1101,2.7357019362064743,0.0
1102,3.153971052083727,0.0
1103,3.71497032026692,0.0
1104,4.528532649420873,0.0
1105,5.51049680151695,0.0
1106,6.597426933981716,0.0
1107,7.64167096133693,0.0
1108,8.529885040861453,0.0
1109,9.121611661777544,0.0
1110,9.263619300235302,0.0
1111,8.760388532932339,0.0
1112,7.6459910256572865,0.0
1113,6.1355930888757575,0.0
1114,4.382468717892523,0.0
1115,2.5270136586615197,0.0
1116,0.8893966175699304,0.0
1117,-0.226120773865786,0.0
1118,-0.6595236635191815,0.0
1119,-0.47600571574968553,0.0
1120,0.16561084394301417,0.0
1121,1.1328291773321586,0.0
1122,2.23904659749824,0.0
1123,3.2327432359605215,0.0
1124,3.8274619213938994,0.0
1125,3.9559995115823376,0.0
1126,3.726710495729728,0.0
1127,3.2500006023113013,0.0
1128,2.677692221730438,0.0
1129,2.1471854470112177,0.0
1130,1.7300901316605808,0.0
1131,1.5928865227987705,0.0
1132,1.6871478831456779,0.0
1133,1.9010682332657443,0.0
1134,2.2233514350644246,0.0
1135,2.4399478983116523,0.0
1136,2.629087592455437,0.0
1137,2.722500305959969,0.0
1138,2.7018463090424474,0.0
1139,2.61317057497769,0.0
1140,2.4911631292064325,0.0
1141,2.383986460227645,0.0
1142,2.3258936637072685,0.0
1143,2.3314721942693297,0.0
1144,2.3067463721782953,0.0
1145,2.369580529719069,0.0
1146,2.4126489085519176,0.0
1147,2.4488826270656427,0.0
1148,2.4897301120737034,0.0
1149,2.4907479454515804,0.0
1150,2.4676380356716843,0.0
1151,2.4765334099943086,0.0
1152,2.4679510036684027,0.0
1153,2.4521027848011054,0.0
1154,2.4332266734002395,0.0
1155,2.4405512554716173,0.0
1156,2.4348851125238884,0.0
1157,2.4187163539011993,0.0
1158,2.4339290547743344,0.0
1159,2.402946745751498,0.0
1160,2.4162503873855172,0.0
1161,2.4242713585162847,0.0
1162,2.4313092842474564,0.0
1163,2.4299655958981563,0.0
1164,2.436969134090982,0.0
1165,2.456376257729498,0.0
1166,2.476445621218942,0.0
1167,2.493375049412209,0.0
1168,2.519139488502116,0.0
1169,2.5209245749840243,0.0
1170,2.535208881614829,0.0
1171,2.53510688083359,0.0
1172,2.5352813546362207,0.0
1173,2.5356475880814027,0.0
1174,2.5547345940913346,0.0
1175,2.5380700188679945,0.0
1176,2.541569132789429,0.0
1177,2.5500483603019415,0.0
1178,2.5255850257826897,0.0
1179,2.540265619847002,0.0
1180,2.520448542399234,0.0
1181,2.5231059992518534,0.0
1182,2.5262098805353057,0.0
1183,2.527650716225173,0.0
1184,2.5202837840226833,0.0
1185,2.534549224676441,0.0
1186,2.533916786379804,0.0
1187,2.523912523239489,0.0
1188,2.5372220603742193,0.0
1189,2.543120823834763,0.0
1190,2.5366304125682198,0.0
1191,2.558118880138174,0.0
1192,2.5716257076812874,0.0
1193,2.5792420942292837,0.0
1194,2.5768267145810273,0.0
1195,2.6065512687509904,0.0
1196,2.6172665582210115,0.0
1197,2.620307335450204,0.0
1198,2.6554558706163247,0.0
1199,2.710764151235672,0.0
1200,2.870522708213399,0.0
1201,3.0887959230192603,0.0
1202,3.489863177960435,0.0
1203,4.056089845531116,0.0
1204,4.86754385509518,0.0
1205,5.821872857398759,0.0
1206,6.882320955663137,0.0
1207,7.935438059224719,0.0
1208,8.812272037529567,0.0
1209,9.426760078816875,0.0
1210,9.540586729611784,0.0
1211,9.054087187284587,0.0
1212,7.980647225616599,0.0
1213,6.501128308340624,0.0
1214,4.715876273137332,0.0
1215,2.8751287667217964,0.0
1216,1.2334455600666354,0.0
1217,0.09213192206840226,0.0
1218,-0.371524637583009,0.0
1219,-0.1926612976410138,0.0
1220,0.43563890732866284,0.0
1221,1.419976130369956,0.0
1222,2.5380847299515557,0.0
1223,3.5037058112811006,0.0
1224,4.118544872718971,0.0
1225,4.261083598012305,0.0
1226,4.057312019621166,0.0
1227,3.568131345663542,0.0
1228,3.0055621919341338,0.0
1229,2.440388508815956,0.0
1230,2.0214936300704043,0.0
1231,1.8747944732036896,0.0
1232,1.9613967716109428,0.0
1233,2.199268504878632,0.0
1234,2.49723626971543,0.0
1235,2.760406381896162,0.0
1236,2.9573680349522466,0.0
1237,3.0505003010149507,0.0
1238,3.0295036841594634,0.0
1239,2.930924070104574,0.0
1240,2.80915502366488,0.0
1241,2.717825923473273,0.0
1242,2.6724197564816907,0.0
1243,2.668676434270038,0.0
1244,2.663995767245751,0.0
1245,2.719394775046734,0.0
1246,2.7595347164032784,0.0
1247,2.7688750558757462,0.0
1248,2.82745718435696,0.0
1249,2.8025157657724513,0.0
1250,2.7888712652670558,0.0
1251,2.7872896048088145,0.0
1252,2.7811408556579313,0.0
1253,2.7679688620470593,0.0
1254,2.7555502398512157,0.0
1255,2.7741147918049593,0.0
1256,2.780800717571985,0.0
1257,2.7735217468769684,0.0
1258,2.7872207727042806,0.0
1259,2.7859279615509087,0.0
1260,2.8058300188997056,0.0
1261,2.7981148911942486,0.0
1262,2.8106564698159935,0.0
1263,2.7783608309629884,0.0
1264,2.7764407459438942,0.0
1265,2.7854498487579504,0.0
1266,2.8049772874607584,0.0
1267,2.7898587111556976,0.0
1268,2.81035864412406,0.0
1269,2.812191736044196,0.0
1270,2.810252193803695,0.0
1271,2.810383597699916,0.0
1272,2.8141461013526374,0.0
1273,2.833368039278156,0.0
1274,2.8305574996617175,0.0
1275,2.853978985632353,0.0
1276,2.8560616685712867,0.0
1277,2.870475151253087,0.0
1278,2.874353706443951,0.0
1279,2.892451450624459,0.0
1280,2.8868463845774337,0.0
1281,2.911101137242109,0.0
1282,2.9059353396071375,0.0
1283,2.897084642731054,0.0
1284,2.885823110459724,0.0
1285,2.902935144274996,0.0
1286,2.9011010513903557,0.0
1287,2.916081162635579,0.0
1288,2.8922498260454086,0.0
1289,2.9069597573067916,0.0
1290,2.895471996758751,0.0
1291,2.901014708077122,0.0
1292,2.917198931166227,0.0
1293,2.9252741082542784,0.0
1294,2.9198231332415023,0.0
1295,2.9195476987861353,0.0
1296,2.941070967321465,0.0
1297,2.93280701268408,0.0
1298,2.9642841810865628,0.0
1299,3.037217778935611,0.0
1300,3.169126544704466,0.0
1301,3.4053299698709374,0.0
1302,3.8147357889895663,0.0
1303,4.356139851182457,0.0
1304,5.166916758878596,0.0
1305,6.138947471541702,0.0
1306,7.209018185762002,0.0
1307,8.267609794763745,0.0
1308,9.165778250207058,0.0
1309,9.75103510677856,0.0
1310,9.914090328074025,0.0
1311,9.415421658660524,0.0
1312,8.36504525718739,0.0
1313,6.87798391243108,0.0
1314,5.111875436207924,0.0
1315,3.244160490861594,0.0
1316,1.5930126908407691,0.0
1317,0.44000758193637823,0.0
1318,-0.05018328900470603,0.0
1319,0.09600437962994679,0.0
1320,0.7081802689793322,0.0
1321,1.7049785807987645,0.0
1322,2.7889661332380093,0.0
1323,3.7961077667556102,0.0
1324,4.406689533868267,0.0
1325,4.560139050023638,0.0
1326,4.360900914536503,0.0
1327,3.8979089655283303,0.0
1328,3.3444720358351216,0.0
1329,2.7805532577277066,0.0
1330,2.3739422699793806,0.0
1331,2.2149357673775043,0.0
1332,2.288075882741908,0.0
1333,2.5370058537908733,0.0
1334,2.8049908727961603,0.0
1335,3.047531044038749,0.0
1336,3.237188535182659,0.0
1337,3.343934328239455,0.0
1338,3.314490638614237,0.0
1339,3.198213474338233,0.0
1340,3.064918218272424,0.0
1341,2.969603654012751,0.0
1342,2.9107674615231938,0.0
1343,2.9095901815499894,0.0
1344,2.940803368370586,0.0
1345,2.9531089680283107,0.0
1346,3.0139331984894677,0.0
1347,3.0538592199104304,0.0
1348,3.069092882340856,0.0
1349,3.1037505887622316,0.0
1350,3.0900242587195703,0.0
1351,3.0858699761973525,0.0
1352,3.0979112934350708,0.0
1353,3.09664933361667,0.0
1354,3.089813532190769,0.0
1355,3.078232275512489,0.0
1356,3.0808180928056506,0.0
1357,3.0729922430153365,0.0
1358,3.0916628318312975,0.0
1359,3.0922253357215252,0.0
1360,3.088295773870102,0.0
1361,3.0796588507688876,0.0
1362,3.103709162289458,0.0
1363,3.1101531597293564,0.0
1364,3.0927606492197257,0.0
1365,3.1128036865325197,0.0
1366,3.106393302875592,0.0
1367,3.120040265827339,0.0
1368,3.1256505538015724,0.0
1369,3.1249087037159793,0.0
1370,3.1296216409628914,0.0
1371,3.1274822888783276,0.0
1372,3.1183908824360036,0.0
1373,3.133891792365882,0.0
1374,3.1094071496196087,0.0
1375,3.1408684039022488,0.0
1376,3.126340156968076,0.0
1377,3.1328049864366343,0.0
1378,3.1557245360437216,0.0
1379,3.141682313405794,0.0
1380,3.1434275909201284,0.0
1381,3.1507693430654635,0.0
1382,3.138224986270277,0.0
1383,3.157588524759511,0.0
1384,3.153071123455888,0.0
1385,3.150987741830507,0.0
1386,3.14859776366641,0.0
1387,3.139678811550531,0.0
1388,3.1425418660757156,0.0
1389,3.1356533471181445,0.0
1390,3.141417257436104,0.0
1391,3.142698394281699,0.0
1392,3.1404982467960094,0.0
1393,3.1300003315901668,0.0
1394,3.149388274061078,0.0
1395,3.1324605769864156,0.0
1396,3.130586104395882,0.0
1397,3.140907863893086,0.0
1398,3.1687835285712156,0.0
1399,3.2304623211257417,0.0
1400,3.3791020806638894,0.0
1401,3.6095804593882503,0.0
1402,4.015933116000782,0.0
1403,4.580731113468353,0.0
1404,5.350809897706517,0.0
1405,6.330353719240998,0.0
1406,7.413975338174451,0.0
1407,8.444067788378922,0.0
1408,9.376588012302287,0.0
1409,9.986078516189597,0.0
1410,10.151841830223905,0.0
1411,9.694871439394296,0.0
1412,8.641436642023692,0.0
1413,7.179329843814685,0.0
1414,5.392992447211336,0.0
1415,3.543003861572223,0.0
1416,1.9040928694919608,0.0
1417,0.7252410150253326,0.0
1418,0.23665792126393548,0.0
1419,0.3455118375917339,0.0
1420,0.975513777744847,0.0
1421,1.9505824507842446,0.0
1422,3.048963722406997,0.0
1423,4.034185674691035,0.0
1424,4.647021531342113,0.0
1425,4.82511597238192,0.0
1426,4.583333374184117,0.0
1427,4.160758819062489,0.0
1428,3.5796788284075363,0.0
1429,3.024736336124119,0.0
1430,2.6201951573666515,0.0
1431,2.445036963015291,0.0
1432,2.544311524868834,0.0
1433,2.8204720819135294,0.0
1434,3.1089941392799965,0.0
1435,3.394121641880705,0.0
1436,3.6011133123884633,0.0
1437,3.717116776497342,0.0
1438,3.6907759704422163,0.0
1439,3.6082945361043826,0.0
1440,3.4955627295020517,0.0
1441,3.4129413148916856,0.0
1442,3.3455570122097966,0.0
1443,3.326850761843751,0.0
1444,3.3248709828396006,0.0
1445,3.3464039839302098,0.0
1446,3.3670452866831333,0.0
1447,3.3805348071543047,0.0
1448,3.396901568592575,0.0
1449,3.3818382935850004,0.0
1450,3.360709312369861,0.0
1451,3.3134588019725593,0.0
1452,3.3171314593985635,0.0
1453,3.288896168148878,0.0
1454,3.2968225992199556,0.0
1455,3.287280717405795,0.0
1456,3.3210421222674498,0.0
1457,3.3058663230001972,0.0
1458,3.3172010475137017,0.0
1459,3.341786180994074,0.0
1460,3.3372882668350297,0.0
1461,3.3583627344460165,0.0
1462,3.349166849546759,0.0
1463,3.3563868377594197,0.0
1464,3.363776134432783,0.0
1465,3.3725216899385613,0.0
1466,3.3687218593579726,0.0
1467,3.359735128872581,0.0
1468,3.3766926443042933,0.0
1469,3.359966287290964,0.0
1470,3.3659986459367177,0.0
1471,3.3579253815178807,0.0
1472,3.368326910324621,0.0
1473,3.3701357429329124,0.0
1474,3.355441564835177,0.0
1475,3.3663943746989737,0.0
1476,3.3796578367412597,0.0
1477,3.3662085323565827,0.0
1478,3.370441341325033,0.0
1479,3.392926035135792,0.0
1480,3.3806270840368415,0.0
1481,3.4033356172347493,0.0
1482,3.4041871771536707,0.0
1483,3.406567575762701,0.0
1484,3.4122412856970366,0.0
1485,3.413987566354486,0.0
1486,3.4356754798233444,0.0
1487,3.4072484173540807,0.0
1488,3.4280736329157646,0.0
1489,3.4202888893938717,0.0
1490,3.4292079899314682,0.0
1491,3.4407037428651552,0.0
1492,3.4328274647546797,0.0
1493,3.436817293537697,0.0
1494,3.4349260712422884,0.0
1495,3.4251451547569896,0.0
1496,3.4310944437964412,0.0
1497,3.441053415248458,0.0
1498,3.466639000252665,0.0
1499,3.494994072996377,0.0
1500,3.638724797464296,0.0
1501,3.8428197498745926,0.0
1502,4.25003701073611,0.0
1503,4.808967978160512,0.0
1504,5.5977409927805235,0.0
1505,6.566540366948004,0.0
1506,7.644104122154642,0.0
1507,8.717286201205527,0.0
1508,9.629156002789689,0.0
1509,10.275123150872286,0.0
1510,10.431185639070273,0.0
1511,9.992023236217817,0.0
1512,8.968300949462048,0.0
1513,7.48989750449255,0.0
1514,5.72497052600559,0.0
1515,3.8692931081427084,0.0
1516,2.2036154504768954,0.0
1517,0.9977810654290664,0.0
1518,0.5163219225972675,0.0
1519,0.6175930185061729,0.0
1520,1.2288693751748379,0.0
1521,2.183245078610434,0.0
1522,3.2908623763232216,0.0
1523,4.297707089863653,0.0
1524,4.941758289481966,0.0
1525,5.124095660311834,0.0
1526,4.933784816802001,0.0
1527,4.4868162325455625,0.0
1528,3.9074906699280083,0.0
1529,3.387576233779709,0.0
1530,2.9194425731088782,0.0
1531,2.7830271176882797,0.0
1532,2.8488440371485817,0.0
1533,3.073805090327316,0.0
1534,3.3551899225403563,0.0
1535,3.617750354440675,0.0
1536,3.789619686898966,0.0
1537,3.871551061022732,0.0
1538,3.8482766553577235,0.0
1539,3.751004537422269,0.0
1540,3.6033528499074787,0.0
1541,3.4954856000328425,0.0
1542,3.4570570739640676,0.0
1543,3.4247752097543485,0.0
1544,3.4722984545385676,0.0
1545,3.49187805271854,0.0
1546,3.5378856056111996,0.0
1547,3.56948029589952,0.0
1548,3.5899927581848003,0.0
1549,3.596406539161711,0.0
1550,3.5911541525928863,0.0
1551,3.5987270708432857,0.0
1552,3.5725068523381722,0.0
1553,3.565717147967327,0.0
1554,3.5520812899058845,0.0
1555,3.56598791522582,0.0
1556,3.554560195249069,0.0
1557,3.548564903185457,0.0
1558,3.5384879343892632,0.0
1559,3.558554307681765,0.0
1560,3.551886314930156,0.0
1561,3.5518083592800376,0.0
1562,3.5586083914719606,0.0
1563,3.578322556803001,0.0
1564,3.576685608061791,0.0
1565,3.6119159940135357,0.0
1566,3.6020995374990856,0.0
1567,3.623797412073166,0.0
1568,3.644840890638311,0.0
1569,3.6540721109452607,0.0
1570,3.6785960142725753,0.0
1571,3.684225968612514,0.0
1572,3.6705966885830046,0.0
1573,3.695885207633458,0.0
1574,3.6738887836279495,0.0
1575,3.6613033357457576,0.0
1576,3.690230301722842,0.0
1577,3.65955731586604,0.0
1578,3.6613388436840206,0.0
1579,3.667034486296615,0.0
1580,3.6358197866547277,0.0
1581,3.626811324275828,0.0
1582,3.632205138671789,0.0
1583,3.6238824541548342,0.0
1584,3.634209351690464,0.0
1585,3.6172843892534288,0.0
1586,3.618411474973388,0.0
1587,3.609065128608745,0.0
1588,3.6198785369978754,0.0
1589,3.61794774815675,0.0
1590,3.631408145757656,0.0
1591,3.6194237091716026,0.0
1592,3.626691645706361,0.0
1593,3.6407860596515857,0.0
1594,3.647068190036067,0.0
1595,3.648911645033544,0.0
1596,3.673105300909866,0.0
1597,3.672124636642708,0.0
1598,3.700084960785641,0.0
1599,3.791943774519873,0.0
1600,3.8849923533492943,0.0
1601,4.133405269813812,0.0
1602,4.520156759105968,0.0
1603,5.101026551895283,0.0
1604,5.868253607076946,0.0
1605,6.827003364749224,0.0
1606,7.898115733880736,0.0
1607,8.948583614451938,0.0
1608,9.867317627340269,0.0
1609,10.494313605398382,0.0
1610,10.647869040257268,0.0
1611,10.23375376922315,0.0
1612,9.208256963879874,0.0
1613,7.745605365204469,0.0
1614,5.978800272401966,0.0
1615,4.132758819178908,0.0
1616,2.459920661311197,0.0
1617,1.2620155441737744,0.0
1618,0.7454556139541761,0.0
1619,0.8496798013767868,0.0
1620,1.4554993693866232,0.0
1621,2.3887109588813407,0.0
1622,3.5103805162860064,0.0
1623,4.542425257056416,0.0
1624,5.160790396929553,0.0
1625,5.350718490694435,0.0
1626,5.15263930767742,0.0
1627,4.720045328436779,0.0
1628,4.146094641514808,0.0
1629,3.5885142243128585,0.0
1630,3.18837678026211,0.0
1631,3.0015436575751036,0.0
1632,3.053685139159951,0.0
1633,3.2619190507413736,0.0
1634,3.5619750312056513,0.0
1635,3.8195212300039594,0.0
1636,4.0128755589789895,0.0
1637,4.104872316668608,0.0
1638,4.073545516566213,0.0
1639,3.993471357980458,0.0
1640,3.8512579389058463,0.0
1641,3.781556467181745,0.0
1642,3.691255809828266,0.0
1643,3.6788975127410093,0.0
1644,3.67925411400006,0.0
1645,3.728869217844385,0.0
1646,3.7570874097450955,0.0
1647,3.815997034693088,0.0
1648,3.835065867655238,0.0
1649,3.826358580827034,0.0
1650,3.821064493576976,0.0
1651,3.8268194737898575,0.0
1652,3.7997190072576377,0.0
1653,3.8154874074089906,0.0
1654,3.8257392806456694,0.0
1655,3.8175075954767097,0.0
1656,3.8263273573265373,0.0
1657,3.8495301499114922,0.0
1658,3.8428854728234874,0.0
1659,3.8494825252246097,0.0
1660,3.860814410066928,0.0
1661,3.8772537618911853,0.0
1662,3.842618041420573,0.0
1663,3.882932981102196,0.0
1664,3.8541326710797215,0.0
1665,3.868706050179789,0.0
1666,3.861952574783762,0.0
1667,3.85583162276624,0.0
1668,3.8493351983336255,0.0
1669,3.8591590550027344,0.0
1670,3.8480527500495967,0.0
1671,3.849441857202942,0.0
1672,3.8869673426573583,0.0
1673,3.8581458038624104,0.0
1674,3.8735661251764495,0.0
1675,3.869289710671483,0.0
1676,3.886923852559745,0.0
1677,3.906092113397726,0.0
1678,3.9027607203717016,0.0
1679,3.8840019722937233,0.0
1680,3.8897962276846,0.0
1681,3.9272151330592555,0.0
1682,3.9210739612123793,0.0
1683,3.9131435061066204,0.0
1684,3.9360748185550016,0.0
1685,3.9120296391567275,0.0
1686,3.932671409623168,0.0
1687,3.9295705345207064,0.0
1688,3.939902179969741,0.0
1689,3.947243807211973,0.0
1690,3.931235361289034,0.0
1691,3.9334257895167495,0.0
1692,3.9255917023140667,0.0
1693,3.92908418358225,0.0
1694,3.939753101918401,0.0
1695,3.9536440623928955,0.0
1696,3.924659879873416,0.0
1697,3.9526229645166966,0.0
1698,3.9726505245272152,0.0
1699,4.030496090772884,0.0
1700,4.144823998089774,0.0
1701,4.371918520913882,0.0
1702,4.75120368573443,0.0
1703,5.308372482749851,0.0
1704,6.0587419641472735,0.0
1705,7.028719217318304,0.0
1706,8.102988778090054,0.0
1707,9.146108288802182,0.0
1708,10.076813225209113,0.0
1709,10.731660976751249,0.0
1710,10.896799428250137,0.0
1711,10.499114452758032,0.0
1712,9.495141091958189,0.0
1713,8.028131953641617,0.0
1714,6.269030478512141,0.0
1715,4.423612899554511,0.0
1716,2.7454255736899285,0.0
1717,1.5471924268279316,0.0
1718,1.0171231186394945,0.0
1719,1.077651249042101,0.0
1720,1.6932013624193947,0.0
1721,2.6418086972207098,0.0
1722,3.734897208375819,0.0
1723,4.732209813298052,0.0
1724,5.404067065259234,0.0
1725,5.593106668877689,0.0
1726,5.400389593066663,0.0
1727,4.985046458666,0.0
1728,4.406560464666164,0.0
1729,3.8383086895401863,0.0
1730,3.401388208495411,0.0
1731,3.2260964122942264,0.0
1732,3.297430088455327,0.0
1733,3.502324197640518,0.0
1734,3.8165472217885443,0.0
1735,4.071105783417102,0.0
1736,4.254813787722135,0.0
1737,4.384810301919156,0.0
1738,4.349939997052753,0.0
1739,4.25991844135099,0.0
1740,4.148248622557296,0.0
1741,4.063135356880592,0.0
1742,4.019135711814346,0.0
1743,3.9489159066869832,0.0
1744,3.9730711477991587,0.0
1745,4.039896286154064,0.0
1746,4.090535575404302,0.0
1747,4.127362803085219,0.0
1748,4.165690797100296,0.0
1749,4.1618465340561475,0.0
1750,4.139277909233583,0.0
1751,4.1367106635125985,0.0
1752,4.108009347264324,0.0
1753,4.10694751661411,0.0
1754,4.116693899706211,0.0
1755,4.09239769651711,0.0
1756,4.11368435029115,0.0
1757,4.092613133202066,0.0
1758,4.1134370774998805,0.0
1759,4.099506792517104,0.0
1760,4.0943821697242155,0.0
1761,4.105229916550604,0.0
1762,4.082550610579639,0.0
1763,4.0853058680476835,0.0
1764,4.104580501622655,0.0
1765,4.091471781055446,0.0
1766,4.099807150357873,0.0
1767,4.103358096932863,0.0
1768,4.105099279970281,0.0
1769,4.11369034892619,0.0
1770,4.096207334905739,0.0
1771,4.118312092034005,0.0
1772,4.131946378048683,0.0
1773,4.108347880545946,0.0
1774,4.150783248853599,0.0
1775,4.125625386081953,0.0
1776,4.116135484974908,0.0
1777,4.129918570867452,0.0
1778,4.123222923193624,0.0
1779,4.1222788947267395,0.0
1780,4.136022264777819,0.0
1781,4.134971452904378,0.0
1782,4.122067052787599,0.0
1783,4.141331169741927,0.0
1784,4.143988742355902,0.0
1785,4.1534891680300445,0.0
1786,4.151090939384847,0.0
1787,4.1664647886421315,0.0
1788,4.161348544219563,0.0
1789,4.16696133696686,0.0
1790,4.184721414924537,0.0
1791,4.190002503486712,0.0
1792,4.172040343533283,0.0
1793,4.201578345163586,0.0
1794,4.204238523827847,0.0
1795,4.189718128733649,0.0
1796,4.194785484113199,0.0
1797,4.212863817846809,0.0
1798,4.240455290315667,0.0
1799,4.271635057104148,0.0
1800,4.4077101013029765,0.0
1801,4.638687406977133,0.0
1802,5.036370426156614,0.0
1803,5.567946234623631,0.0
1804,6.332602452721414,0.0
1805,7.297945042534037,0.0
1806,8.379516568773024,0.0
1807,9.431101961754333,0.0
1808,10.366968119013514,0.0
1809,11.046760894438318,0.0
1810,11.239972047984168,0.0
1811,10.841064215652903,0.0
1812,9.862714065852654,0.0
1813,8.38872079728668,0.0
1814,6.646834275823717,0.0
1815,4.795621680465998,0.0
1816,3.11037381148659,0.0
1817,1.854417270452137,0.0
1818,1.3047090709889564,0.0
1819,1.3979962415440377,0.0
1820,1.9758201427887063,0.0
1821,2.9104207082509963,0.0
1822,4.017808197943356,0.0
1823,5.045321182179126,0.0
1824,5.7133857891520226,0.0
1825,5.919014239354208,0.0
1826,5.737701329300221,0.0
1827,5.32372062358937,0.0
1828,4.756953937348189,0.0
1829,4.188238170833515,0.0
1830,3.7545867389140426,0.0
1831,3.558012250285099,0.0
1832,3.60789928069816,0.0
1833,3.8189998793550766,0.0
1834,4.088917574284589,0.0
1835,4.3354069841204295,0.0
1836,4.536117174190471,0.0
1837,4.61275858507004,0.0
1838,4.589120319948113,0.0
1839,4.494514520376359,0.0
1840,4.3414531265369565,0.0
1841,4.214508937868634,0.0
1842,4.168250601195482,0.0
1843,4.134876348107873,0.0
1844,4.146030735403088,0.0
1845,4.188387944939578,0.0
1846,4.220166105582093,0.0
1847,4.267730172542232,0.0
1848,4.280965300991928,0.0
1849,4.295300943088683,0.0
1850,4.305522601401835,0.0
1851,4.285497652166214,0.0
1852,4.266352096910012,0.0
1853,4.291443485905321,0.0
1854,4.279515037912872,0.0
1855,4.300815941321765,0.0
1856,4.3213713904017,0.0
1857,4.31925494149574,0.0
1858,4.316498360582264,0.0
1859,4.3137186209062675,0.0
1860,4.367009495052046,0.0
1861,4.326368945069168,0.0
1862,4.343277525224507,0.0
1863,4.331741266853407,0.0
1864,4.325405026955626,0.0
1865,4.323473932201734,0.0
1866,4.331638408652147,0.0
1867,4.319158410717147,0.0
1868,4.340756296669656,0.0
1869,4.320618841745316,0.0
1870,4.329578511857841,0.0
1871,4.343198651466074,0.0
1872,4.317790929767644,0.0
1873,4.3111858628249395,0.0
1874,4.325063701302348,0.0
1875,4.321253614826065,0.0
1876,4.322543115683347,0.0
1877,4.339503028450205,0.0
1878,4.333854787144797,0.0
1879,4.3385550771114785,0.0
1880,4.333912715696146,0.0
1881,4.340296751456304,0.0
1882,4.348766841253731,0.0
1883,4.347422140114186,0.0
1884,4.351284295189248,0.0
1885,4.343049938008572,0.0
1886,4.355964606404312,0.0
1887,4.341792914105457,0.0
1888,4.366751584879978,0.0
1889,4.362542301879548,0.0
1890,4.370620540466352,0.0
1891,4.375615192200215,0.0
1892,4.393830827354371,0.0
1893,4.390988501701519,0.0
1894,4.39723828879867,0.0
1895,4.39930956399948,0.0
1896,4.390805105411772,0.0
1897,4.390142412592526,0.0
1898,4.431662983767552,0.0
1899,4.464003179275539,0.0
1900,4.58705224546084,0.0
1901,4.809646540826721,0.0
1902,5.167659391999152,0.0
1903,5.7045057948155256,0.0
1904,6.460600340762895,0.0
1905,7.432609062971187,0.0
1906,8.474396906288217,0.0
1907,9.545622790820744,0.0
1908,10.468946712514708,0.0
1909,11.127647300827045,0.0
1910,11.359534947284569,0.0
1911,10.972316452115665,0.0
1912,9.951460232677032,0.0
1913,8.537006448454537,0.0
1914,6.795934772912167,0.0
1915,4.932892095933054,0.0
1916,3.239094857774515,0.0
1917,1.9871343678573181,0.0
1918,1.4502629674063385,0.0
1919,1.49402560711841,0.0
1920,2.0571670048673796,0.0
1921,3.0133235978590553,0.0
1922,4.104953909573477,0.0
1923,5.1426330500036705,0.0
1924,5.837117560363335,0.0
1925,6.04000099169417,0.0
1926,5.856263864377668,0.0
1927,5.450906346040204,0.0
1928,4.885455148183172,0.0
1929,4.337440201112923,0.0
1930,3.8769979306241376,0.0
1931,3.690044502590636,0.0
1932,3.7460589551739054,0.0
1933,3.955687656881933,0.0
1934,4.2464129707535125,0.0
1935,4.514219532665765,0.0
1936,4.704790330613391,0.0
1937,4.8412115232148,0.0
1938,4.8053518654394605,0.0
1939,4.721229667061661,0.0
1940,4.588799447787919,0.0
1941,4.48593948219276,0.0
1942,4.3988322559056785,0.0
1943,4.375196780946215,0.0
1944,4.378849417798732,0.0
1945,4.429153306057338,0.0
1946,4.4704029825298965,0.0
1947,4.511957493378195,0.0
1948,4.538407375637218,0.0
1949,4.531689332439784,0.0
1950,4.486755937750038,0.0
1951,4.4838171036129255,0.0
1952,4.514704931829538,0.0
1953,4.478374591301074,0.0
1954,4.49110486004839,0.0
1955,4.50074349609315,0.0
1956,4.479595917544414,0.0
1957,4.488390559054011,0.0
1958,4.502224407606673,0.0
1959,4.506037944475789,0.0
1960,4.509007920928473,0.0
1961,4.519841186022322,0.0
1962,4.493768951934898,0.0
1963,4.495357708217986,0.0
1964,4.498428389388333,0.0
1965,4.494569980934411,0.0
1966,4.483976100429265,0.0
1967,4.497142073148968,0.0
1968,4.5002512755855495,0.0
1969,4.473657006178692,0.0
1970,4.4768437265471706,0.0
1971,4.480132463823013,0.0
1972,4.473925770092016,0.0
1973,4.4883524414123395,0.0
1974,4.489163226733483,0.0
1975,4.515555899226822,0.0
1976,4.499645620007985,0.0
1977,4.504865066084562,0.0
1978,4.5152669804257295,0.0
1979,4.51392283598073,0.0
1980,4.536440843724918,0.0
1981,4.533716883895425,0.0
1982,4.562933005804628,0.0
1983,4.551267812122071,0.0
1984,4.568103003522827,0.0
1985,4.576567180628344,0.0
1986,4.580752801414976,0.0
1987,4.584046547784958,0.0
1988,4.602420238371098,0.0
1989,4.622221250021424,0.0
1990,4.6111556444703,0.0
1991,4.608518354877404,0.0
1992,4.627031420041672,0.0
1993,4.61298035511446,0.0
1994,4.598692084355526,0.0
1995,4.608703459107165,0.0
1996,4.609518001438496,0.0
1997,4.628592384078737,0.0
1998,4.634144544422222,0.0
1999,4.669092238780859,0.0
2000,4.789978726009159,0.0
2001,5.013833660408705,0.0
2002,5.384848507060385,0.0
2003,5.915352196616398,0.0
2004,6.656734792882437,0.0
2005,7.609329349674287,0.0
2006,8.673498122866537,0.0
2007,9.745849157593726,0.0
2008,10.693042721596221,0.0
2009,11.365302732250884,0.0
2010,11.606647535651438,0.0
2011,11.219074136409807,0.0
2012,10.255900276059561,0.0
2013,8.807861332066771,0.0
2014,7.094213744289127,0.0
2015,5.228542514012437,0.0
2016,3.5176536528155644,0.0
2017,2.2462314259563483,0.0
2018,1.6833451297238784,0.0
2019,1.7360199792173079,0.0
2020,2.294137490409346,0.0
2021,3.2488711823305216,0.0
2022,4.310406138596217,0.0
2023,5.331118521283644,0.0
2024,6.0354409383297085,0.0
2025,6.265479592940835,0.0
2026,6.105882479599465,0.0
2027,5.677064688623634,0.0
2028,5.10993437292294,0.0
2029,4.5343883927327875,0.0
2030,4.094059167202472,0.0
2031,3.8930272535325203,0.0
2032,3.959196727457233,0.0
2033,4.175179570327001,0.0
2034,4.448971258035258,0.0
2035,4.695278300829097,0.0
2036,4.909505459344392,0.0
2037,5.019808148934995,0.0
2038,5.01105716932245,0.0
2039,4.924944064497407,0.0
2040,4.783721383923331,0.0
2041,4.671378328193287,0.0
2042,4.610518436794068,0.0
2043,4.611409301536189,0.0
2044,4.598978963900367,0.0
2045,4.644683675706842,0.0
2046,4.675873667004311,0.0
2047,4.720096683110415,0.0
2048,4.7466571577139645,0.0
2049,4.74418893637012,0.0
2050,4.739982141083964,0.0
2051,4.726809026551507,0.0
2052,4.740786513524365,0.0
2053,4.729981790603872,0.0
2054,4.727899818707318,0.0
2055,4.733672501484432,0.0
2056,4.730171443778351,0.0
2057,4.741999498008777,0.0
2058,4.745099533354192,0.0
2059,4.759560115558456,0.0
2060,4.762548062910145,0.0
2061,4.744573108638663,0.0
2062,4.758421202124379,0.0
2063,4.768795123672629,0.0
2064,4.766927470330778,0.0
2065,4.758080994665753,0.0
2066,4.77701736502971,0.0
2067,4.7412272842229966,0.0
2068,4.75666809287489,0.0
2069,4.731730800423774,0.0
2070,4.753843477203805,0.0
2071,4.725606703294117,0.0
2072,4.758895237667944,0.0
2073,4.727407478604723,0.0
2074,4.742505654565105,0.0
2075,4.752268800097943,0.0
2076,4.742575777378046,0.0
2077,4.745287611111653,0.0
2078,4.749461482420907,0.0
2079,4.744305620181788,0.0
2080,4.76842333635006,0.0
2081,4.751084105739698,0.0
2082,4.752534394278956,0.0
2083,4.766525068125653,0.0
2084,4.773794197921878,0.0
2085,4.774076307062736,0.0
2086,4.7872723702460975,0.0
2087,4.778002323929011,0.0
2088,4.788598743348607,0.0
2089,4.787726494519024,0.0
2090,4.796962869586538,0.0
2091,4.79019328791559,0.0
2092,4.814615830863909,0.0
2093,4.8284160154902995,0.0
2094,4.780663888847889,0.0
2095,4.80881693904626,0.0
2096,4.7817990033810105,0.0
2097,4.787770398673676,0.0
2098,4.827008856126357,0.0
2099,4.8324932226914665,0.0
2100,4.972172400648211,0.0
2101,5.181311742760087,0.0
2102,5.5247291663423015,0.0
2103,6.060029238667658,0.0
2104,6.817870543486235,0.0
2105,7.779272297243495,0.0
2106,8.826676184450537,0.0
2107,9.926104843520722,0.0
2108,10.859322959400956,0.0
2109,11.53991286222236,0.0
2110,11.799847732439995,0.0
2111,11.427766007170261,0.0
2112,10.470975267814943,0.0
2113,9.054772252998868,0.0
2114,7.313171028054328,0.0
2115,5.46387252862054,0.0
2116,3.7625999615124384,0.0
2117,2.478384623842457,0.0
2118,1.8747213831033962,0.0
2119,1.8977225622918383,0.0
2120,2.4598591428029075,0.0
2121,3.3858958347733106,0.0
2122,4.466230073915991,0.0
2123,5.48546140887074,0.0
2124,6.195260877291579,0.0
2125,6.393011095605917,0.0
2126,6.262029013806284,0.0
2127,5.830285031156182,0.0
2128,5.265241613305204,0.0
2129,4.702856779022548,0.0
2130,4.251430931943289,0.0
2131,4.048498700045764,0.0
2132,4.088522699251907,0.0
2133,4.299875164108682,0.0
2134,4.578954546772857,0.0
2135,4.843852168918796,0.0
2136,5.01498346419267,0.0
2137,5.1364853676461815,0.0
2138,5.133234802676613,0.0
2139,5.057954368142578,0.0
2140,4.927282032441022,0.0
2141,4.814262114505048,0.0
2142,4.751853397597756,0.0
2143,4.721052467072624,0.0
2144,4.735400318502247,0.0
2145,4.758601152952197,0.0
2146,4.809009826172254,0.0
2147,4.844209723991681,0.0
2148,4.888043432133441,0.0
2149,4.907515935301424,0.0
2150,4.8690028487931825,0.0
2151,4.879626487687623,0.0
2152,4.8483043582776,0.0
2153,4.870770179644265,0.0
2154,4.874861517615479,0.0
2155,4.878912256324106,0.0
2156,4.899415998040005,0.0
2157,4.876769992117817,0.0
2158,4.887618199757062,0.0
2159,4.903850171466055,0.0
2160,4.900374922116518,0.0
2161,4.910358821567028,0.0
2162,4.909401168499041,0.0
2163,4.918600069494384,0.0
2164,4.9047982615325125,0.0
2165,4.900022405152972,0.0
2166,4.910553511965561,0.0
2167,4.909125256090227,0.0
2168,4.886625745137873,0.0
2169,4.908617615578208,0.0
2170,4.902553971538484,0.0
2171,4.892501756895994,0.0
2172,4.897061718375315,0.0
2173,4.915761702043431,0.0
2174,4.910811882846865,0.0
2175,4.927476299461436,0.0
2176,4.9341549897227335,0.0
2177,4.913154914054855,0.0
2178,4.9359296728255275,0.0
2179,4.9427091074697795,0.0
2180,4.939802427041928,0.0
2181,4.970415106735144,0.0
2182,4.936740263534914,0.0
2183,4.97201076652571,0.0
2184,4.975695026059434,0.0
2185,4.961594246479285,0.0
2186,4.954605619287452,0.0
2187,4.972240884843084,0.0
2188,4.9699070111030155,0.0
2189,4.956354573828137,0.0
2190,4.960129817917979,0.0
2191,4.952451843222951,0.0
2192,4.955548289397711,0.0
2193,5.00049343137491,0.0
2194,4.977244285660516,0.0
2195,4.974032321546993,0.0
2196,4.981169793054086,0.0
2197,4.983503717614706,0.0
2198,4.997331182936155,0.0
2199,5.057058360522206,0.0
2200,5.157619950086377,0.0
2201,5.396829961134448,0.0
2202,5.754991597314271,0.0
2203,6.290321001139516,0.0
2204,7.005086619936002,0.0
2205,7.97369617729397,0.0
2206,9.023449737314078,0.0
2207,10.07668709753006,0.0
2208,11.036248603446026,0.0
2209,11.71699038503782,0.0
2210,11.961564762333856,0.0
2211,11.603901316283078,0.0
2212,10.680761401046952,0.0
2213,9.264396935732847,0.0
2214,7.5276302349122695,0.0
2215,5.646586584666157,0.0
2216,3.9483647537345368,0.0
2217,2.6742829138957513,0.0
2218,2.043479051693517,0.0
2219,2.071220175913748,0.0
2220,2.614491872684698,0.0
2221,3.52148142982971,0.0
2222,4.640226701918912,0.0
2223,5.659916851461529,0.0
2224,6.387241773430016,0.0
2225,6.630935161601748,0.0
2226,6.485600841929509,0.0
2227,6.0879699257707935,0.0
2228,5.510284089262366,0.0
2229,4.943832237283436,0.0
2230,4.485238879086402,0.0
2231,4.279648689361225,0.0
2232,4.30784933285921,0.0
2233,4.520925761267567,0.0
2234,4.813821418439429,0.0
2235,5.0752687679809485,0.0
2236,5.254249421249551,0.0
2237,5.393103279534149,0.0
2238,5.374224283943648,0.0
2239,5.2832527838997665,0.0
2240,5.167569312924621,0.0
2241,5.049238175476103,0.0
2242,4.9791958626542305,0.0
2243,4.9459255870567835,0.0
2244,4.9469247426830165,0.0
2245,4.9910750271429825,0.0
2246,5.045710858100084,0.0
2247,5.100292160727893,0.0
2248,5.099298843094508,0.0
2249,5.116901574982023,0.0
2250,5.1200327475282235,0.0
2251,5.103672060618352,0.0
2252,5.109625862875305,0.0
2253,5.099425850017832,0.0
2254,5.086171804993687,0.0
2255,5.070980317180343,0.0
2256,5.085805550955783,0.0
2257,5.088594990328807,0.0
2258,5.101425228560921,0.0
2259,5.101323639706596,0.0
2260,5.08592920610051,0.0
2261,5.097430734983647,0.0
2262,5.090651531456451,0.0
2263,5.101434128421887,0.0
2264,5.100370526675651,0.0
2265,5.116584749468255,0.0
2266,5.090825864555315,0.0
2267,5.119808634697942,0.0
2268,5.094174803561212,0.0
2269,5.113476464897963,0.0
2270,5.120854802532879,0.0
2271,5.132040589453614,0.0
2272,5.124323710237678,0.0
2273,5.1413555501190285,0.0
2274,5.145448516854923,0.0
2275,5.14341439472673,0.0
2276,5.138761929524232,0.0
2277,5.158998840609404,0.0
2278,5.156474017446139,0.0
2279,5.144733708396596,0.0
2280,5.14905602258137,0.0
2281,5.1577310425938085,0.0
2282,5.165942741594307,0.0
2283,5.166559637917453,0.0
2284,5.182371250445235,0.0
2285,5.197744543240597,0.0
2286,5.202077967219757,0.0
2287,5.183669293261422,0.0
2288,5.203071411507947,0.0
2289,5.211617023615067,0.0
2290,5.175120119378388,0.0
2291,5.201352009419396,0.0
2292,5.2158847406645386,0.0
2293,5.207625455580035,0.0
2294,5.207291127066647,0.0
2295,5.206754246013166,0.0
2296,5.20825686633797,0.0
2297,5.204934206192627,0.0
2298,5.2222578505677495,0.0
2299,5.271612276300407,0.0
2300,5.402858158649747,0.0
2301,5.595521340183405,0.0
2302,5.971440056538263,0.0
2303,6.479782351378189,0.0
2304,7.210588707723739,0.0
2305,8.189870228193683,0.0
2306,9.237071032243213,0.0
2307,10.28799322426034,0.0
2308,11.293986842774054,0.0
2309,11.959441435792822,0.0
2310,12.241347906898744,0.0
2311,11.918989425897625,0.0
2312,10.996656709765215,0.0
2313,9.58332560396888,0.0
2314,7.871613585241516,0.0
2315,6.01402872170778,0.0
2316,4.268816895209608,0.0
2317,2.9904203379295202,0.0
2318,2.342161717193263,0.0
2319,2.352027801384191,0.0
2320,2.873823134014478,0.0
2321,3.7701197142709324,0.0
2322,4.831378159150204,0.0
2323,5.879855579203422,0.0
2324,6.615711665955875,0.0
2325,6.866157090181424,0.0
2326,6.701815721477185,0.0
2327,6.296561369847578,0.0
2328,5.732938974586348,0.0
2329,5.160325556514367,0.0
2330,4.700792273575382,0.0
2331,4.475930680187726,0.0
2332,4.498186664396005,0.0
2333,4.714321774916616,0.0
2334,4.999148206835723,0.0
2335,5.246673772648335,0.0
2336,5.452696563765122,0.0
2337,5.558759056791113,0.0
2338,5.566258917585728,0.0
2339,5.465089162532541,0.0
2340,5.34837542148788,0.0
2341,5.254673739675003,0.0
2342,5.187676618226507,0.0
2343,5.1485170128237145,0.0
2344,5.15066589657254,0.0
2345,5.187658785490258,0.0
2346,5.2260923653836375,0.0
2347,5.297637327771416,0.0
2348,5.303345128585671,0.0
2349,5.328526555567302,0.0
2350,5.319802663934145,0.0
2351,5.314769435444243,0.0
2352,5.325420467129162,0.0
2353,5.32071012227745,0.0
2354,5.314779401220692,0.0
2355,5.307406936126402,0.0
2356,5.3408485977904645,0.0
2357,5.33939139886072,0.0
2358,5.3424286479710394,0.0
2359,5.346809280442984,0.0
2360,5.3576565437636505,0.0
2361,5.343403618644396,0.0
2362,5.356867364563241,0.0
2363,5.352066300386193,0.0
2364,5.3342503159268055,0.0
2365,5.352986195719988,0.0
2366,5.358803111287339,0.0
2367,5.354085455211961,0.0
2368,5.337225601711365,0.0
2369,5.338166252453702,0.0
2370,5.335661741994524,0.0
2371,5.336990055423145,0.0
2372,5.313563805666673,0.0
2373,5.323375454784596,0.0
2374,5.3344327141700285,0.0
2375,5.331497985611446,0.0
2376,5.339130634051497,0.0
2377,5.347967702289549,0.0
2378,5.3455956804222025,0.0
2379,5.344869866771048,0.0
2380,5.370987351374166,0.0
2381,5.3508324912230245,0.0
2382,5.374316525343427,0.0
2383,5.35723607890524,0.0
2384,5.358095888238933,0.0
2385,5.353513826826533,0.0
2386,5.361298403577378,0.0
2387,5.359900188466198,0.0
2388,5.342430718189567,0.0
2389,5.358626838946354,0.0
2390,5.3411025457677095,0.0
2391,5.347323023878922,0.0
2392,5.347191458829016,0.0
2393,5.351994454736318,0.0
2394,5.322848373030205,0.0
2395,5.324331780539006,0.0
2396,5.315170454064208,0.0
2397,5.309079019638364,0.0
2398,5.32740591710838,0.0
2399,5.359914064783571,0.0
2400,5.497643469817589,0.0
2401,5.68452840105575,0.0
2402,6.032313817336608,0.0
2403,6.581159925676868,0.0
2404,7.308516298538062,0.0
2405,8.250848473449874,0.0
2406,9.310825108058516,0.0
2407,10.413686384841062,0.0
2408,11.358712342746209,0.0
2409,12.062795269576668,0.0
2410,12.348136612419928,0.0
2411,12.038697771535876,0.0
2412,11.10613697089643,0.0
2413,9.709106932360697,0.0
2414,7.991666168491436,0.0
2415,6.172874443229244,0.0
2416,4.4295100597531,0.0
2417,3.109925463470819,0.0
2418,2.453608185501722,0.0
2419,2.4606524391747993,0.0
2420,2.96823436014613,0.0
2421,3.8807009207191614,0.0
2422,4.973543182828644,0.0
2423,5.992083215908848,0.0
2424,6.737185984752145,0.0
2425,7.013140799482071,0.0
2426,6.874795663212614,0.0
2427,6.468551918626651,0.0
2428,5.910000966734034,0.0
2429,5.3472991921206505,0.0
2430,4.901139717981969,0.0
2431,4.664578143540132,0.0
2432,4.680597671482152,0.0
2433,4.910054237104303,0.0
2434,5.1679237651320165,0.0
2435,5.430824880146794,0.0
2436,5.643312335237965,0.0
2437,5.742069282208904,0.0
2438,5.781728475059874,0.0
2439,5.661527612706756,0.0
2440,5.536987845753564,0.0
2441,5.422326839666704,0.0
2442,5.380834126426311,0.0
2443,5.347738416880576,0.0
2444,5.354217140953186,0.0
2445,5.381754195321296,0.0
2446,5.435969585858993,0.0
2447,5.484996732589398,0.0
2448,5.526434851867158,0.0
2449,5.511584827099528,0.0
2450,5.512032906667002,0.0
2451,5.504063977370736,0.0
2452,5.482524932677918,0.0
2453,5.5036989284386815,0.0
2454,5.46657722665121,0.0
2455,5.4528482649833645,0.0
2456,5.466872403001325,0.0
2457,5.4412311836557254,0.0
2458,5.43772394331083,0.0
2459,5.448762506683717,0.0
2460,5.435562099999118,0.0
2461,5.422657826316629,0.0
2462,5.436472358187455,0.0
2463,5.437822979828625,0.0
2464,5.434868776792574,0.0
2465,5.44354904067891,0.0
2466,5.444435486897619,0.0
2467,5.455128659362621,0.0
2468,5.48298339918627,0.0
2469,5.472284736819713,0.0
2470,5.496574039549954,0.0
2471,5.492890031621832,0.0
2472,5.480755488204892,0.0
2473,5.519758642742264,0.0
2474,5.502318621425948,0.0
2475,5.525815891908404,0.0
2476,5.508527359512729,0.0
2477,5.504310152922933,0.0
2478,5.506885656065022,0.0
2479,5.506591493155491,0.0
2480,5.507204398511411,0.0
2481,5.4835162070355015,0.0
2482,5.524818323563309,0.0
2483,5.51016500024354,0.0
2484,5.50510929478519,0.0
2485,5.505966609964825,0.0
2486,5.525966143089072,0.0
2487,5.526520215897121,0.0
2488,5.5243174327318,0.0
2489,5.528982971370485,0.0
2490,5.543943687336713,0.0
2491,5.537872201176369,0.0
2492,5.5552497810893815,0.0
2493,5.557629990414327,0.0
2494,5.55786104735878,0.0
2495,5.566352673560965,0.0
2496,5.54921784495494,0.0
2497,5.552868702422785,0.0
2498,5.576038848284808,0.0
2499,5.6090114935077,0.0
2500,5.722537082990151,0.0
2501,5.919794221790881,0.0
2502,6.271815150725567,0.0
2503,6.793424314001331,0.0
2504,7.522993323196438,0.0
2505,8.457910103024924,0.0
2506,9.526703995652731,0.0
2507,10.59444699065993,0.0
2508,11.570335081734859,0.0
2509,12.293761245919473,0.0
2510,12.566732293379236,0.0
2511,12.298374845909928,0.0
2512,11.357899542863525,0.0
2513,9.96628198889656,0.0
2514,8.28315879795436,0.0
2515,6.430664781332606,0.0
2516,4.676089159955144,0.0
2517,3.3567683269603856,0.0
2518,2.6737707538880082,0.0
2519,2.64650803892364,0.0
2520,3.1721132178388687,0.0
2521,4.066952550592317,0.0
2522,5.144234783775759,0.0
2523,6.193080093252397,0.0
2524,6.9510702668279665,0.0
2525,7.196701523999081,0.0
2526,7.073685303540065,0.0
2527,6.677849974161629,0.0
2528,6.126574233875975,0.0
2529,5.534994398535681,0.0
2530,5.073262605772892,0.0
2531,4.817520762580862,0.0
2532,4.861801510856961,0.0
2533,5.039498260458849,0.0
2534,5.3506799008534305,0.0
2535,5.602936642600065,0.0
2536,5.80681080825283,0.0
2537,5.927894034143949,0.0
2538,5.944359111870104,0.0
2539,5.838680876466867,0.0
2540,5.712227829286905,0.0
2541,5.614734896332358,0.0
2542,5.55264211965405,0.0
2543,5.50778379061538,0.0
2544,5.529141921442308,0.0
2545,5.56195776754988,0.0
2546,5.595656386554461,0.0
2547,5.642725377301048,0.0
2548,5.663184516138965,0.0
2549,5.692948412514366,0.0
2550,5.673458806526267,0.0
2551,5.67094161023759,0.0
2552,5.6502126360931415,0.0
2553,5.641194674811335,0.0
2554,5.65174087649928,0.0
2555,5.635740663603951,0.0
2556,5.648106348816465,0.0
2557,5.658861201412169,0.0
2558,5.619166570285051,0.0
2559,5.643703544600877,0.0
2560,5.645118276881669,0.0
2561,5.671330752492328,0.0
2562,5.640768865056511,0.0
2563,5.6436248964591575,0.0
2564,5.638221218280993,0.0
2565,5.648304371968094,0.0
2566,5.652793545557915,0.0
2567,5.656142776698639,0.0
2568,5.648534919068071,0.0
2569,5.663746280179079,0.0
2570,5.647504240081584,0.0
2571,5.665349160107562,0.0
2572,5.684257511652289,0.0
2573,5.67628576416754,0.0
2574,5.67005656022998,0.0
2575,5.653526595679142,0.0
2576,5.670316566611521,0.0
2577,5.669844213686378,0.0
2578,5.676808586801161,0.0
2579,5.667992391778601,0.0
2580,5.65343964535847,0.0
2581,5.663584232530776,0.0
2582,5.663050924887202,0.0
2583,5.662104942929152,0.0
2584,5.661196487777399,0.0
2585,5.646650419317844,0.0
2586,5.671552692359588,0.0
2587,5.645953529532019,0.0
2588,5.653493077954193,0.0
2589,5.667124165399138,0.0
2590,5.639308900908022,0.0
2591,5.655777094658684,0.0
2592,5.656188039596634,0.0
2593,5.646387041529186,0.0
2594,5.662703574696088,0.0
2595,5.666168701071547,0.0
2596,5.67243975790896,0.0
2597,5.649340520983147,0.0
2598,5.678695901739706,0.0
2599,5.720218572204039,0.0
2600,5.836965947590793,0.0
2601,6.0551053382931554,0.0
2602,6.359833409359012,0.0
2603,6.876137594075792,0.0
2604,7.615525933798374,0.0
2605,8.559287258951867,0.0
2606,9.616767807738942,0.0
2607,10.701949577586053,0.0
2608,11.650377941733039,0.0
2609,12.354013456883347,0.0
2610,12.663854047911002,0.0
2611,12.383714797092107,0.0
2612,11.486463936980655,0.0
2613,10.111530760885854,0.0
2614,8.422522658094474,0.0
2615,6.555748641503186,0.0
2616,4.8113776826426164,0.0
2617,3.463149370291307,0.0
2618,2.765385246718108,0.0
2619,2.7208529671876445,0.0
2620,3.2042886568282145,0.0
2621,4.1120168807987785,0.0
2622,5.183896325954664,0.0
2623,6.223704564571843,0.0
2624,7.009033985570076,0.0
2625,7.273323770209169,0.0
2626,7.1622018617057,0.0
2627,6.774178489125349,0.0
2628,6.2383960661207585,0.0
2629,5.665702987014207,0.0
2630,5.183046589829797,0.0
2631,4.958815286753432,0.0
2632,4.974021104109083,0.0
2633,5.189440848711657,0.0
2634,5.444522863091192,0.0
2635,5.7432363290371,0.0
2636,5.930757079542988,0.0
2637,6.069510013452476,0.0
2638,6.087610242989127,0.0
2639,5.981546083867604,0.0
2640,5.867711407449747,0.0
2641,5.757436351985687,0.0
2642,5.66390051901786,0.0
2643,5.638275982383601,0.0
2644,5.632300497192139,0.0
2645,5.650737702073063,0.0
2646,5.707177427745427,0.0
2647,5.740524941518894,0.0
2648,5.760356007843829,0.0
2649,5.770990443028094,0.0
2650,5.762421774799981,0.0
2651,5.7639677024077205,0.0
2652,5.72733061929779,0.0
2653,5.720914048744165,0.0
2654,5.730993864068209,0.0
2655,5.737061004062879,0.0
2656,5.7425482038127535,0.0
2657,5.749508648063092,0.0
2658,5.763737478858135,0.0
2659,5.76414006291332,0.0
2660,5.752464751646156,0.0
2661,5.770230611313967,0.0
2662,5.759094242545242,0.0
2663,5.782214609820265,0.0
2664,5.775407592085582,0.0
2665,5.7734676817537025,0.0
2666,5.769691792984264,0.0
2667,5.7686904541056245,0.0
2668,5.7667487234422135,0.0
2669,5.752204959682581,0.0
2670,5.742354350529287,0.0
2671,5.757678430750532,0.0
2672,5.766896687744799,0.0
2673,5.754009986264741,0.0
2674,5.772578425667076,0.0
2675,5.755075423035925,0.0
2676,5.781612235003009,0.0
2677,5.784152761441772,0.0
2678,5.778690720264077,0.0
2679,5.775403453278684,0.0
2680,5.778190031639347,0.0
2681,5.798075801913546,0.0
2682,5.786319549847021,0.0
2683,5.793823953383895,0.0
2684,5.769867131663553,0.0
2685,5.786644695395916,0.0
2686,5.78758125554549,0.0
2687,5.786794842692941,0.0
2688,5.7678873376441775,0.0
2689,5.746404461802566,0.0
2690,5.769849651839294,0.0
2691,5.756035868059444,0.0
2692,5.758410647105789,0.0
2693,5.757880227802821,0.0
2694,5.744777129484067,0.0
2695,5.755680969873719,0.0
2696,5.7663417539320685,0.0
2697,5.770616260951114,0.0
2698,5.805558365248107,0.0
2699,5.821561802404502,0.0
2700,5.949544532348008,0.0
2701,6.137073475261058,0.0
2702,6.4951635710539435,0.0
2703,6.997930754008179,0.0
2704,7.725473765363478,0.0
2705,8.651490617599968,0.0
2706,9.69929066131685,0.0
2707,10.786108112633762,0.0
2708,11.7642580446365,0.0
2709,12.486401325210124,0.0
2710,12.785089954419298,0.0
2711,12.534258498488853,0.0
2712,11.630398553231991,0.0
2713,10.286521585713952,0.0
2714,8.59712596586592,0.0
2715,6.749163027800458,0.0
2716,5.008922469662181,0.0
2717,3.659671714531045,0.0
2718,2.963946446731069,0.0
2719,2.914163828975625,0.0
2720,3.4063599162570903,0.0
2721,4.272187623704513,0.0
2722,5.374318924236869,0.0
2723,6.399148792813691,0.0
2724,7.167946311680777,0.0
2725,7.46077436249176,0.0
2726,7.332179152431157,0.0
2727,6.918614181783158,0.0
2728,6.372938560508451,0.0
2729,5.791709757973381,0.0
2730,5.30904462632444,0.0
2731,5.03705010522878,0.0
2732,5.06410205753402,0.0
2733,5.250741214514767,0.0
2734,5.52640577470634,0.0
2735,5.784369757665163,0.0
2736,6.012374577589371,0.0
2737,6.154133309570223,0.0
2738,6.162577683198622,0.0
2739,6.09541944697207,0.0
2740,5.982408005809452,0.0
2741,5.87550484343262,0.0
2742,5.825280728651913,0.0
2743,5.783013342119152,0.0
2744,5.784571654162569,0.0
2745,5.821022663864383,0.0
2746,5.848787602531019,0.0
2747,5.897613826062815,0.0
2748,5.897715085589394,0.0
2749,5.905011498819938,0.0
2750,5.929211825033782,0.0
2751,5.89097115610979,0.0
2752,5.897215413695134,0.0
2753,5.875962287773355,0.0
2754,5.892827930819024,0.0
2755,5.871801438982428,0.0
2756,5.896070786132263,0.0
2757,5.903055451135573,0.0
2758,5.910665567955552,0.0
2759,5.907751928013835,0.0
2760,5.9441705246015974,0.0
2761,5.938405063585283,0.0
2762,5.939245508457723,0.0
2763,5.9530106958863955,0.0
2764,5.9402407363674055,0.0
2765,5.941042851629727,0.0
2766,5.935112819430604,0.0
2767,5.916452134755313,0.0
2768,5.939728563533483,0.0
2769,5.914425682903748,0.0
2770,5.927245920511795,0.0
2771,5.920414067640938,0.0
2772,5.913125381247621,0.0
2773,5.917042085171024,0.0
2774,5.917078367110028,0.0
2775,5.926907850661637,0.0
2776,5.942422450610669,0.0
2777,5.933399085585185,0.0
2778,5.937791889070717,0.0
2779,5.939917755357622,0.0
2780,5.9561131429442815,0.0
2781,5.928790071423424,0.0
2782,5.950071370255794,0.0
2783,5.930898271972517,0.0
2784,5.944432419373721,0.0
2785,5.940568258434493,0.0
2786,5.947795243457461,0.0
2787,5.943536629212224,0.0
2788,5.941658285306349,0.0
2789,5.949754369694681,0.0
2790,5.926704488126174,0.0
2791,5.9287186431745,0.0
2792,5.9202878472454525,0.0
2793,5.919457858577113,0.0
2794,5.924366030918281,0.0
2795,5.924208754554702,0.0
2796,5.928733004666557,0.0
2797,5.922586890891318,0.0
2798,5.9671757216468455,0.0
2799,5.991218602479593,0.0
2800,6.089037701906389,0.0
2801,6.29433237809682,0.0
2802,6.630171191876148,0.0
2803,7.137135657268658,0.0
2804,7.838601982354712,0.0
2805,8.75711627405861,0.0
2806,9.831038999630483,0.0
2807,10.901444683796676,0.0
2808,11.896227698805948,0.0
2809,12.625791905466148,0.0
2810,12.956765677351004,0.0
2811,12.698174568887644,0.0
2812,11.83200457338869,0.0
2813,10.467567351548166,0.0
2814,8.753291137636715,0.0
2815,6.895402545459368,0.0
2816,5.169321415497429,0.0
2817,3.789453728254292,0.0
2818,3.0512131869013395,0.0
2819,2.993079823076906,0.0
2820,3.4731394347556916,0.0
2821,4.339728646232878,0.0
2822,5.435923083398285,0.0
2823,6.472470070045446,0.0
2824,7.247200458375902,0.0
2825,7.561118330444472,0.0
2826,7.459051054848571,0.0
2827,7.083618128355279,0.0
2828,6.542799090659279,0.0
2829,5.955361884399997,0.0
2830,5.4873546875854835,0.0
2831,5.229269251102404,0.0
2832,5.236491064703827,0.0
2833,5.427091825394248,0.0
2834,5.69192397954303,0.0
2835,5.971145364666401,0.0
2836,6.185158013268903,0.0
2837,6.283063625285546,0.0
2838,6.303011673117388,0.0
2839,6.194094423921128,0.0
2840,6.089252207089077,0.0
2841,5.961840122686335,0.0
2842,5.870856056571474,0.0
2843,5.8547168598794235,0.0
2844,5.847562161120155,0.0
2845,5.902417875279346,0.0
2846,5.947622112943569,0.0
2847,5.9896203466507725,0.0
2848,6.01366824582648,0.0
2849,6.021785008529023,0.0
2850,6.049771441740202,0.0
2851,6.017684985959059,0.0
2852,6.017221031174428,0.0
2853,6.041559558365114,0.0
2854,6.019556227906229,0.0
2855,6.015637914798589,0.0
2856,6.004413583403816,0.0
2857,6.009441425047092,0.0
2858,6.034927985432408,0.0
2859,5.988692590049133,0.0
2860,6.008600731778225,0.0
2861,6.020601105624523,0.0
2862,6.010847344406944,0.0
2863,6.011655428790931,0.0
2864,6.006504998216595,0.0
2865,6.002434244208414,0.0
2866,6.000388882894867,0.0
2867,6.012367475077851,0.0
2868,6.037772005731837,0.0
2869,6.037233844986933,0.0
2870,6.022120069212656,0.0
2871,6.0378380220906624,0.0
2872,6.042269590432785,0.0
2873,6.028365969979675,0.0
2874,6.023148049545273,0.0
2875,6.029010935116581,0.0
2876,6.033578443319978,0.0
2877,6.011227314739626,0.0
2878,6.0225647935523146,0.0
2879,5.990221951437589,0.0
2880,6.011695973741182,0.0
2881,6.02223346327509,0.0
2882,6.0128991845710145,0.0
2883,5.996869568342632,0.0
2884,5.993092580345041,0.0
2885,6.022247063278757,0.0
2886,6.020423469172972,0.0
2887,6.0066729342225305,0.0
2888,6.011682425086107,0.0
2889,6.007930957879752,0.0
2890,6.036962563633446,0.0
2891,6.027971589939666,0.0
2892,6.025812909247049,0.0
2893,6.002864580934267,0.0
2894,6.014684380367897,0.0
2895,6.015431411926298,0.0
2896,5.99267135599993,0.0
2897,6.004084164907529,0.0
2898,6.004569171515121,0.0
2899,6.0348504244834436,0.0
2900,6.128592927179291,0.0
2901,6.323699962341223,0.0
2902,6.655576163243685,0.0
2903,7.12804080970738,0.0
2904,7.840611306641386,0.0
2905,8.755859648735221,0.0
2906,9.807833776882212,0.0
2907,10.898172178217557,0.0
2908,11.896867563785737,0.0
2909,12.622998789525894,0.0
2910,12.937207963176718,0.0
2911,12.751201585849284,0.0
2912,11.87568742716011,0.0
2913,10.528716069448496,0.0
2914,8.836810498403583,0.0
2915,7.012715512007265,0.0
2916,5.2374639927419295,0.0
2917,3.8748758765169975,0.0
2918,3.1283083476397677,0.0
2919,3.058185137622606,0.0
2920,3.522666375131809,0.0
2921,4.393270304478013,0.0
2922,5.474912468866972,0.0
2923,6.519189141628018,0.0
2924,7.304579516381519,0.0
2925,7.607872720362469,0.0
2926,7.526747356942401,0.0
2927,7.172112254582686,0.0
2928,6.626459515799445,0.0
2929,6.029760275053887,0.0
2930,5.5503665999347795,0.0
2931,5.3013517049790435,0.0
2932,5.321401341216883,0.0
2933,5.504976475602596,0.0
2934,5.773892832061966,0.0
2935,6.030211427365159,0.0
2936,6.274083513681957,0.0
2937,6.405742186650254,0.0
2938,6.421198061567268,0.0
2939,6.353523574737021,0.0
2940,6.2004185879935125,0.0
2941,6.1022326562023075,0.0
2942,6.026227612276823,0.0
2943,5.989790987346262,0.0
2944,5.972139395581271,0.0
2945,6.00190832993238,0.0
2946,6.045022297256801,0.0
2947,6.090643372931188,0.0
2948,6.1040515897114895,0.0
2949,6.100643700486402,0.0
2950,6.098707821335622,0.0
2951,6.084399673476759,0.0
2952,6.066549578009316,0.0
2953,6.071457566843682,0.0
2954,6.071372800812227,0.0
2955,6.0596504281868615,0.0
2956,6.093115712596965,0.0
2957,6.091769858130468,0.0
2958,6.099496562150979,0.0
2959,6.1062072914241,0.0
2960,6.090344002672937,0.0
2961,6.102022570169933,0.0
2962,6.109079050424135,0.0
2963,6.128390993740275,0.0
2964,6.105726863978744,0.0
2965,6.1201542142539,0.0
2966,6.120783492635839,0.0
2967,6.109467490513899,0.0
2968,6.122829438045437,0.0
2969,6.132016302826578,0.0
2970,6.130603533314543,0.0
2971,6.137611000135986,0.0
2972,6.150022516639583,0.0
2973,6.164629982233597,0.0
2974,6.179412021191424,0.0
2975,6.163774229367959,0.0
2976,6.167470894996432,0.0
2977,6.184853415809058,0.0
2978,6.179378624380863,0.0
2979,6.186387341238402,0.0
2980,6.204978461047196,0.0
2981,6.189749735078512,0.0
2982,6.202941919788131,0.0
2983,6.218193247876775,0.0
2984,6.2148939066479745,0.0
2985,6.195614328391182,0.0
2986,6.189606530805481,0.0
2987,6.205444519697396,0.0
2988,6.194461496275149,0.0
2989,6.212171753565979,0.0
2990,6.161470028082807,0.0
2991,6.185285606966129,0.0
2992,6.202662735260663,0.0
2993,6.175945859678456,0.0
2994,6.155265740855199,0.0
2995,6.178750322700741,0.0
2996,6.168599617698259,0.0
2997,6.178516772425269,0.0
2998,6.198975707932562,0.0
2999,6.217137571106543,0.0
3000,6.322393195126855,0.0
3001,6.520577050454247,0.0
3002,6.834803592707652,0.0
3003,7.365487151325254,0.0
3004,8.040715206596566,0.0
3005,8.964881821767136,0.0
3006,10.018586066898854,0.0
3007,11.095321774446404,0.0
3008,12.102731990942647,0.0
3009,12.840478062697976,0.0
3010,13.187697625702217,0.0
3011,12.971993548199663,0.0
3012,12.124411765275081,0.0
3013,10.763617769314443,0.0
3014,9.108869059361883,0.0
3015,7.253268762110187,0.0
3016,5.512307658952266,0.0
3017,4.111121238976763,0.0
3018,3.3642136172239643,0.0
3019,3.252904614967701,0.0
3020,3.707949918638849,0.0
3021,4.5653143460837855,0.0
3022,5.661913503356152,0.0
3023,6.712534884785751,0.0
3024,7.490634901117191,0.0
3025,7.824391497687742,0.0
3026,7.753819728638781,0.0
3027,7.358188291685945,0.0
3028,6.8413574500835965,0.0
3029,6.234587602969276,0.0
3030,5.750571677951463,0.0
3031,5.469028482893519,0.0
3032,5.474044376458089,0.0
3033,5.653633775157324,0.0
3034,5.941738891571807,0.0
3035,6.20805920068871,0.0
3036,6.432462849377212,0.0
3037,6.549140465412664,0.0
3038,6.569614820149628,0.0
3039,6.483538173232051,0.0
3040,6.380524851918939,0.0
3041,6.242050826802272,0.0
3042,6.185737831502513,0.0
3043,6.163651255654597,0.0
3044,6.152033551483316,0.0
3045,6.184692558970208,0.0
3046,6.223768211124478,0.0
3047,6.280065415525656,0.0
3048,6.299110932776183,0.0
3049,6.3129735384176335,0.0
3050,6.319597333018527,0.0
3051,6.311428965867559,0.0
3052,6.311132745672185,0.0
3053,6.313705204597278,0.0
3054,6.290950139571487,0.0
3055,6.308445440911429,0.0
3056,6.323441584001006,0.0
3057,6.325250193046907,0.0
3058,6.325401587820253,0.0
3059,6.33620779096156,0.0
3060,6.339543850920408,0.0
3061,6.357600205005877,0.0
3062,6.351638749082555,0.0
3063,6.363724968251657,0.0
3064,6.352808010130056,0.0
3065,6.3448338718816855,0.0
3066,6.347866874302236,0.0
3067,6.380393053369566,0.0
3068,6.350688298537691,0.0
3069,6.347508320146327,0.0
3070,6.3394530225857135,0.0
3071,6.326780472430804,0.0
3072,6.323735916766105,0.0
3073,6.317623424835651,0.0
3074,6.312660230517572,0.0
3075,6.321159257092463,0.0
3076,6.319413647371858,0.0
3077,6.325879581355336,0.0
3078,6.324760435413425,0.0
3079,6.331366963519824,0.0
3080,6.321804540946143,0.0
3081,6.3146545343558635,0.0
3082,6.311863317935441,0.0
3083,6.3076861448731085,0.0
3084,6.331896359290688,0.0
3085,6.333164171098865,0.0
3086,6.3322186732948635,0.0
3087,6.316253599937134,0.0
3088,6.313889901691446,0.0
3089,6.321386624542555,0.0
3090,6.322168192618912,0.0
3091,6.352847635412512,0.0
3092,6.330005583400071,0.0
3093,6.338328304474275,0.0
3094,6.336956657958477,0.0
3095,6.352274508828341,0.0
3096,6.3144784185917535,0.0
3097,6.3325014130245805,0.0
3098,6.347747615950996,0.0
3099,6.389208115952164,0.0
3100,6.466591184050093,0.0
3101,6.661532511348562,0.0
3102,7.003143972416003,0.0
3103,7.507311239089214,0.0
3104,8.162354057287532,0.0
3105,9.087209058517557,0.0
3106,10.15569983790661,0.0
3107,11.213585816399442,0.0
3108,12.196777590349381,0.0
3109,12.936841708296257,0.0
3110,13.317703657324147,0.0
3111,13.108213580233574,0.0
3112,12.273926554736581,0.0
3113,10.95157495311858,0.0
3114,9.27454702302385,0.0
3115,7.4008333466988825,0.0
3116,5.640972124107776,0.0
3117,4.247420849941161,0.0
3118,3.4659995689016436,0.0
3119,3.350241656696307,0.0
3120,3.8017330465464108,0.0
3121,4.6572252550692,0.0
3122,5.739660755940688,0.0
3123,6.803433500407495,0.0
3124,7.59179783755134,0.0
3125,7.944037811186401,0.0
3126,7.874106615888332,0.0
3127,7.51154622503748,0.0
3128,6.980421771761022,0.0
3129,6.406106066548079,0.0
3130,5.915995114635926,0.0
3131,5.630970863348729,0.0
3132,5.645238596305242,0.0
3133,5.81574782136641,0.0
3134,6.091239882113525,0.0
3135,6.3511289745112,0.0
3136,6.566117067320958,0.0
3137,6.675136445197873,0.0
3138,6.728680640663818,0.0
3139,6.622004936576173,0.0
3140,6.503510854226182,0.0
3141,6.372702157471344,0.0
3142,6.2896048238409845,0.0
3143,6.2473764131857115,0.0
3144,6.253940832596288,0.0
3145,6.259842659703108,0.0
3146,6.294293926736607,0.0
3147,6.347882953683457,0.0
3148,6.3748763478798365,0.0
3149,6.3686945547716025,0.0
3150,6.365955098124735,0.0
3151,6.378450290232149,0.0
3152,6.372296301762993,0.0
3153,6.3612707192090125,0.0
3154,6.349425459927926,0.0
3155,6.371960262461999,0.0
3156,6.367139415578852,0.0
3157,6.356982522114836,0.0
3158,6.376999637935488,0.0
3159,6.364619043187738,0.0
3160,6.374814544398122,0.0
3161,6.385271075990605,0.0
3162,6.379986419704398,0.0
3163,6.385158159799589,0.0
3164,6.382509634671282,0.0
3165,6.381655137410574,0.0
3166,6.3969596470397585,0.0
3167,6.40171730820387,0.0
3168,6.402407504996218,0.0
3169,6.4093537515904995,0.0
3170,6.400586843596795,0.0
3171,6.414590787495703,0.0
3172,6.40696433967497,0.0
3173,6.394111810129742,0.0
3174,6.413264550875079,0.0
3175,6.399963829232526,0.0
3176,6.406776802753484,0.0
3177,6.41650336256301,0.0
3178,6.406797016312718,0.0
3179,6.42275613555414,0.0
3180,6.398451413239136,0.0
3181,6.399768996324084,0.0
3182,6.410442919854458,0.0
3183,6.392909598241857,0.0
3184,6.396696078828965,0.0
3185,6.398144688961814,0.0
3186,6.412304215132269,0.0
3187,6.408147259476071,0.0
3188,6.4077390052222025,0.0
3189,6.422409841663601,0.0
3190,6.410210324052928,0.0
3191,6.433786608871935,0.0
3192,6.41069473205542,0.0
3193,6.440839007585623,0.0
3194,6.418008909138977,0.0
3195,6.418179839638428,0.0
3196,6.435251778568695,0.0
3197,6.449912357557531,0.0
3198,6.462829619489881,0.0
3199,6.488329536410461,0.0
3200,6.596277664881371,0.0
3201,6.772584056662414,0.0
3202,7.102559689227711,0.0
3203,7.577655478840285,0.0
3204,8.262442399151595,0.0
3205,9.15992103553127,0.0
3206,10.212751219559966,0.0
3207,11.27370706884018,0.0
3208,12.2780411234273,0.0
3209,13.034470592397202,0.0
3210,13.392974973913425,0.0
3211,13.180266514639769,0.0
3212,12.370285336949333,0.0
3213,11.037636340483514,0.0
3214,9.378718871612591,0.0
3215,7.523553215342617,0.0
3216,5.759125776362094,0.0
3217,4.317731398806188,0.0
3218,3.556886571362932,0.0
3219,3.4256653118928457,0.0
3220,3.8645223717329134,0.0
3221,4.71160252618653,0.0
3222,5.779681881244819,0.0
3223,6.847469923601261,0.0
3224,7.666208629130588,0.0
3225,8.015735548108074,0.0
3226,7.94972517726744,0.0
3227,7.590158868829738,0.0
3228,7.03712771551264,0.0
3229,6.470049344665751,0.0
3230,5.956764684424887,0.0
3231,5.695941353884861,0.0
3232,5.66800431389482,0.0
3233,5.877705121115272,0.0
3234,6.122216220499885,0.0
3235,6.403656877528849,0.0
3236,6.622723653199285,0.0
3237,6.765893033817919,0.0
3238,6.800244075263692,0.0
3239,6.7170875143748745,0.0
3240,6.592135192223045,0.0
3241,6.486869909194308,0.0
3242,6.417593551672524,0.0
3243,6.382170862322817,0.0
3244,6.385932813813266,0.0
3245,6.4022524761586,0.0
3246,6.467769358597803,0.0
3247,6.4896416643459975,0.0
3248,6.5206262666711545,0.0
3249,6.515753456532775,0.0
3250,6.509542476258997,0.0
3251,6.485066515901485,0.0
3252,6.4838770216887145,0.0
3253,6.495515931138395,0.0
3254,6.472457096348927,0.0
3255,6.488345986394048,0.0
3256,6.4711014885930265,0.0
3257,6.502758221722304,0.0
3258,6.497585149318944,0.0
3259,6.487988396607762,0.0
3260,6.514766685343959,0.0
3261,6.4953451743922574,0.0
3262,6.511210760134132,0.0
3263,6.508521021928697,0.0
3264,6.507045951392927,0.0
3265,6.5140342272074045,0.0
3266,6.491205494357827,0.0
3267,6.515849486250491,0.0
3268,6.501673354315679,0.0
3269,6.508674850971968,0.0
3270,6.496012466357612,0.0
3271,6.48787220210979,0.0
3272,6.484659862184136,0.0
3273,6.510699711612644,0.0
3274,6.477895730734035,0.0
3275,6.493248029626439,0.0
3276,6.508018495956299,0.0
3277,6.492503063488984,0.0
3278,6.504679871440203,0.0
3279,6.493297149668922,0.0
3280,6.51358405983972,0.0
3281,6.513990424519534,0.0
3282,6.5154702079100115,0.0
3283,6.498334160630703,0.0
3284,6.49302564098115,0.0
3285,6.49476840323128,0.0
3286,6.517635138976271,0.0
3287,6.4934810418767315,0.0
3288,6.509115606986808,0.0
3289,6.511694741169013,0.0
3290,6.493500225909223,0.0
3291,6.515406245581793,0.0
3292,6.537631646679749,0.0
3293,6.511776771804976,0.0
3294,6.514078730356193,0.0
3295,6.521246958496423,0.0
3296,6.52868714906481,0.0
3297,6.5386435937550464,0.0
3298,6.522730808037862,0.0
3299,6.574653932013584,0.0
3300,6.649940865202533,0.0
3301,6.8606047416110005,0.0
3302,7.167862560475934,0.0
3303,7.659888636162499,0.0
3304,8.359883731036614,0.0
3305,9.243945561652692,0.0
3306,10.301708790668407,0.0
3307,11.367254915748187,0.0
3308,12.361683373885802,0.0
3309,13.126324705722741,0.0
3310,13.52347079881375,0.0
3311,13.344064202728283,0.0
3312,12.53679822997682,0.0
3313,11.224282117827396,0.0
3314,9.559983648173068,0.0
3315,7.708867969110394,0.0
3316,5.934312927533414,0.0
3317,4.48101103691794,0.0
3318,3.6759654127904446,0.0
3319,3.542923590284257,0.0
3320,3.970098618264264,0.0
3321,4.771839084448227,0.0
3322,5.8552073279547585,0.0
3323,6.921039078056637,0.0
3324,7.722115498103337,0.0
3325,8.107386066170983,0.0
3326,8.06008611210424,0.0
3327,7.683969086720218,0.0
3328,7.144393676525315,0.0
3329,6.575286530225866,0.0
3330,6.0596298505418416,0.0
3331,5.809700826537887,0.0
3332,5.767441440375223,0.0
3333,5.950548314221502,0.0
3334,6.23119822929364,0.0
3335,6.504122339640959,0.0
3336,6.743134787079111,0.0
3337,6.902754046720651,0.0
3338,6.932374121984352,0.0
3339,6.871959894669443,0.0
3340,6.762924813340424,0.0
3341,6.645221737063234,0.0
3342,6.5838880657547945,0.0
3343,6.537743014728963,0.0
3344,6.5276342381677495,0.0
3345,6.583458288543241,0.0
3346,6.629576807490623,0.0
3347,6.645320282387911,0.0
3348,6.665587480534221,0.0
3349,6.65883401923711,0.0
3350,6.654089510957465,0.0
3351,6.653841796899738,0.0
3352,6.653681780339242,0.0
3353,6.625653362505031,0.0
3354,6.6081036275232385,0.0
3355,6.616867741966022,0.0
3356,6.609908573468957,0.0
3357,6.625261315868846,0.0
3358,6.620037544156739,0.0
3359,6.623288048138362,0.0
3360,6.6305975698089625,0.0
3361,6.630908253275212,0.0
3362,6.621022931767086,0.0
3363,6.647202126149832,0.0
3364,6.631760946761549,0.0
3365,6.647206436493229,0.0
3366,6.629023011141643,0.0
3367,6.648750762201288,0.0
3368,6.6233359788087816,0.0
3369,6.635927278458413,0.0
3370,6.634767140300422,0.0
3371,6.617676013138649,0.0
3372,6.615421269897116,0.0
3373,6.6439436598746315,0.0
3374,6.611781152742393,0.0
3375,6.613861619770647,0.0
3376,6.633915542825051,0.0
3377,6.6445588309190615,0.0
3378,6.63425433966677,0.0
3379,6.638547104547904,0.0
3380,6.641223777141908,0.0
3381,6.6472089166087835,0.0
3382,6.6580776930754055,0.0
3383,6.652707605754098,0.0
3384,6.6600637942011645,0.0
3385,6.682376769866267,0.0
3386,6.677027585233797,0.0
3387,6.675212891216727,0.0
3388,6.692407968554114,0.0
3389,6.711682106158004,0.0
3390,6.697426480557276,0.0
3391,6.710603549890516,0.0
3392,6.711990764349352,0.0
3393,6.7102500210500695,0.0
3394,6.713884449859066,0.0
3395,6.713194525293043,0.0
3396,6.6973868194874395,0.0
3397,6.696545448097978,0.0
3398,6.7019054050942115,0.0
3399,6.734995095383546,0.0
3400,6.81592708283696,0.0
3401,7.0096309561451475,0.0
3402,7.309816889784748,0.0
3403,7.803309029938819,0.0
3404,8.47247186254222,0.0
3405,9.364337488548871,0.0
3406,10.389055301202989,0.0
3407,11.481972334714136,0.0
3408,12.475875717622918,0.0
3409,13.260685978869347,0.0
3410,13.645381011004666,0.0
3411,13.489463082597336,0.0
3412,12.69374208083913,0.0
3413,11.416583486697881,0.0
3414,9.73975414028386,0.0
3415,7.91482722685951,0.0
3416,6.1387975910976085,0.0
3417,4.705535447451232,0.0
3418,3.8701054203311616,0.0
3419,3.736216685487196,0.0
3420,4.1649155608963015,0.0
3421,4.97008693415501,0.0
3422,6.056364416304519,0.0
3423,7.104898547975976,0.0
3424,7.943625282622338,0.0
3425,8.317499776931722,0.0
3426,8.273994062482812,0.0
3427,7.91511784147234,0.0
3428,7.377911916479035,0.0
3429,6.796255298605445,0.0
3430,6.294056938585234,0.0
3431,5.979965482853678,0.0
3432,5.942401122814907,0.0
3433,6.12377422100826,0.0
3434,6.392361670046798,0.0
3435,6.641598088938153,0.0
3436,6.8718751784696614,0.0
3437,7.020585162461183,0.0
3438,7.037199857964152,0.0
3439,6.974645820357162,0.0
3440,6.853535027294039,0.0
3441,6.716009641832535,0.0
3442,6.645336028272148,0.0
3443,6.605513845348826,0.0
3444,6.617177747667446,0.0
3445,6.633918678377527,0.0
3446,6.663220369154766,0.0
3447,6.723259911018775,0.0
3448,6.730724738595969,0.0
3449,6.753633664799674,0.0
3450,6.761862950669546,0.0
3451,6.751022718939988,0.0
3452,6.728664357534534,0.0
3453,6.726315783563828,0.0
3454,6.708725467521296,0.0
3455,6.706688631569255,0.0
3456,6.7206753636816625,0.0
3457,6.7519156136918514,0.0
3458,6.73564594534429,0.0
3459,6.749394238283512,0.0
3460,6.74035872301249,0.0
3461,6.737385645891765,0.0
3462,6.76161760164521,0.0
3463,6.756458604093498,0.0
3464,6.735287486662311,0.0
3465,6.73167490951796,0.0
3466,6.762720318009107,0.0
3467,6.753950123012418,0.0
3468,6.752033898788882,0.0
3469,6.758124201834769,0.0
3470,6.755822364115858,0.0
3471,6.749945574545508,0.0
3472,6.747000206123405,0.0
3473,6.745401605485634,0.0
3474,6.751235765670203,0.0
3475,6.753169494288962,0.0
3476,6.7317592871497345,0.0
3477,6.746827805507728,0.0
3478,6.756746965038017,0.0
3479,6.7370134230795475,0.0
3480,6.744555395112514,0.0
3481,6.767362561591732,0.0
3482,6.75423708667591,0.0
3483,6.740726963579743,0.0
3484,6.732564698848494,0.0
3485,6.7295117286343675,0.0
3486,6.741691584635487,0.0
3487,6.723365292228225,0.0
3488,6.712620202146564,0.0
3489,6.721934196124079,0.0
3490,6.701711151069479,0.0
3491,6.709571436540764,0.0
3492,6.715366649832071,0.0
3493,6.715511033681768,0.0
3494,6.730354207732704,0.0
3495,6.731532606391089,0.0
3496,6.745484073383702,0.0
3497,6.740115614533887,0.0
3498,6.7458201589054125,0.0
3499,6.788826032245712,0.0
3500,6.897515356814996,0.0
3501,7.0886527666425865,0.0
3502,7.390463540626352,0.0
3503,7.866301325707205,0.0
3504,8.532287552092164,0.0
3505,9.438878804190159,0.0
3506,10.464432399120025,0.0
3507,11.536951354404593,0.0
3508,12.533965602279459,0.0
3509,13.310093768900668,0.0
3510,13.725276966655734,0.0
3511,13.580079195223393,0.0
3512,12.800161214661646,0.0
3513,11.504797869133737,0.0
3514,9.826894668264954,0.0
3515,8.011347704690131,0.0
3516,6.206773205227642,0.0
3517,4.758094974376865,0.0
3518,3.927950148224388,0.0
3519,3.7786408941157776,0.0
3520,4.170755675708396,0.0
3521,4.988976056679528,0.0
3522,6.045214797242629,0.0
3523,7.131735216108204,0.0
3524,7.939651261150971,0.0
3525,8.34062311608442,0.0
3526,8.305457581818999,0.0
3527,7.944014392080849,0.0
3528,7.431018861400813,0.0
3529,6.8294927723566285,0.0
3530,6.322173777150272,0.0
3531,6.020721624311983,0.0
3532,5.988274863532798,0.0
3533,6.159822492734216,0.0
3534,6.432857050780353,0.0
3535,6.695745649279137,0.0
3536,6.917274002082183,0.0
3537,7.076635239058723,0.0
3538,7.102588932094022,0.0
3539,7.018848528754113,0.0
3540,6.914859361715708,0.0
3541,6.79876229864114,0.0
3542,6.719076653385208,0.0
3543,6.65005854017437,0.0
3544,6.6786164327256765,0.0
3545,6.703186046144458,0.0
3546,6.739988181623431,0.0
3547,6.802010266098127,0.0
3548,6.82447497178964,0.0
3549,6.83751800926735,0.0
3550,6.819526597192247,0.0
3551,6.798630142910367,0.0
3552,6.8062436073295745,0.0
3553,6.784079070636154,0.0
3554,6.795581435865142,0.0
3555,6.797227870090882,0.0
3556,6.773997326437828,0.0
3557,6.773333591244542,0.0
3558,6.7864929012936415,0.0
3559,6.779291929411272,0.0
3560,6.750594795876603,0.0
3561,6.784360056194568,0.0
3562,6.777889112895133,0.0
3563,6.770433258548135,0.0
3564,6.800023334898251,0.0
3565,6.805176015598381,0.0
3566,6.786834929878355,0.0
3567,6.8129261308682585,0.0
3568,6.806838269797547,0.0
3569,6.842832123931036,0.0
3570,6.81699391302671,0.0
3571,6.821350341729383,0.0
3572,6.860245898948952,0.0
3573,6.844452547410795,0.0
3574,6.8433988241564085,0.0
3575,6.863372026679634,0.0
3576,6.833367700557726,0.0
3577,6.8763065011399025,0.0
3578,6.832244564707672,0.0
3579,6.826930973100116,0.0
3580,6.844195282794257,0.0
3581,6.822277042629484,0.0
3582,6.837492884735243,0.0
3583,6.810170379004806,0.0
3584,6.823448778327023,0.0
3585,6.807219321209182,0.0
3586,6.825758793277837,0.0
3587,6.8336885001924115,0.0
3588,6.809976917902846,0.0
3589,6.814236897668788,0.0
3590,6.809587828779723,0.0
3591,6.827356700133096,0.0
3592,6.813941647704587,0.0
3593,6.822392764011153,0.0
3594,6.828065579159987,0.0
3595,6.811600452334997,0.0
3596,6.815057396416585,0.0
3597,6.825106300035524,0.0
3598,6.832646773446687,0.0
3599,6.854508868365868,0.0
3600,6.96298954298204,0.0
3601,7.121253638088539,0.0
3602,7.438774880197625,0.0
3603,7.912802075939805,0.0
3604,8.591698045848656,0.0
3605,9.46543961371789,0.0
3606,10.504472383486497,0.0
3607,11.577453866417024,0.0
3608,12.592259342075472,0.0
3609,13.373286439549425,0.0
3610,13.805770773295016,0.0
3611,13.647234874279397,0.0
3612,12.877402924073508,0.0
3613,11.593697548330484,0.0
3614,9.969502878262968,0.0
3615,8.094820806266807,0.0
3616,6.321302810039514,0.0
3617,4.854140251276898,0.0
3618,4.010750042832814,0.0
3619,3.8389378290989957,0.0
3620,4.228635851007043,0.0
3621,5.015484936968169,0.0
3622,6.0944517824335165,0.0
3623,7.179489481573978,0.0
3624,8.004971097475497,0.0
3625,8.436773775454403,0.0
3626,8.391001031736609,0.0
3627,8.063690460537758,0.0
3628,7.5470000084841,0.0
3629,6.952202222631615,0.0
3630,6.4795354499014435,0.0
3631,6.141325759315003,0.0
3632,6.108698418395421,0.0
3633,6.282274315947365,0.0
3634,6.550893551185404,0.0
3635,6.816096339850052,0.0
3636,7.030001166412541,0.0
3637,7.1896929184434875,0.0
3638,7.218945551835616,0.0
3639,7.148031109849625,0.0
3640,7.025970429251895,0.0
3641,6.916151851157881,0.0
3642,6.824500964832351,0.0
3643,6.77928344856504,0.0
3644,6.784901283953828,0.0
3645,6.807312270350679,0.0
3646,6.843923618582013,0.0
3647,6.882652593409717,0.0
3648,6.924439010423499,0.0
3649,6.945411298848199,0.0
3650,6.94686451303138,0.0
3651,6.935380766629567,0.0
3652,6.93432429362515,0.0
3653,6.929877099651863,0.0
3654,6.905645322914988,0.0
3655,6.922877331958543,0.0
3656,6.885175453153476,0.0
3657,6.914569188995452,0.0
3658,6.9234152981378605,0.0
3659,6.903801659568811,0.0
3660,6.894076593610821,0.0
3661,6.89013689226487,0.0
3662,6.88021370475563,0.0
3663,6.885582133953297,0.0
3664,6.864465386228435,0.0
3665,6.8656957227765245,0.0
3666,6.880652300644953,0.0
3667,6.869089491279956,0.0
3668,6.842352192003654,0.0
3669,6.869077736316489,0.0
3670,6.8617190847347755,0.0
3671,6.871933675945031,0.0
3672,6.865192892275533,0.0
3673,6.888001809992245,0.0
3674,6.911077778134848,0.0
3675,6.904950861899057,0.0
3676,6.8990706176149175,0.0
3677,6.909971650828041,0.0
3678,6.9229086735108405,0.0
3679,6.976524481082512,0.0
3680,6.962519601667563,0.0
3681,6.957382068895712,0.0
3682,6.968234478752423,0.0
3683,6.979011591798842,0.0
3684,6.960933449154018,0.0
3685,6.962000355430454,0.0
3686,6.962389367733496,0.0
3687,6.96794949210395,0.0
3688,6.958155913401168,0.0
3689,6.936131639368073,0.0
3690,6.950624010286077,0.0
3691,6.939704099972732,0.0
3692,6.9270396009374675,0.0
3693,6.915558831656907,0.0
3694,6.911335795455288,0.0
3695,6.925073750666006,0.0
3696,6.935753962087428,0.0
3697,6.933518922332781,0.0
3698,6.943358939870104,0.0
3699,6.987259128268894,0.0
3700,7.07127438975707,0.0
3701,7.286464610518606,0.0
3702,7.573177223084625,0.0
3703,8.036381877938677,0.0
3704,8.71170932336282,0.0
3705,9.609532209764799,0.0
3706,10.611371376788284,0.0
3707,11.704258286099037,0.0
3708,12.706575279412318,0.0
3709,13.510717526035128,0.0
3710,13.950950643089001,0.0
3711,13.825349957892016,0.0
3712,13.067801739956618,0.0
3713,11.790565177796317,0.0
3714,10.14602023435218,0.0
3715,8.308591523601407,0.0
3716,6.506415398255588,0.0
3717,5.043032123296409,0.0
3718,4.149867045104212,0.0
3719,3.953598561803383,0.0
3720,4.332365775913511,0.0
3721,5.128452377204287,0.0
3722,6.166184188782906,0.0
3723,7.282919868922903,0.0
3724,8.135569368747117,0.0
3725,8.531535173374616,0.0
3726,8.521657136241387,0.0
3727,8.191397342013772,0.0
3728,7.65794610783244,0.0
3729,7.07931525764572,0.0
3730,6.583119530992548,0.0
3731,6.251410018463476,0.0
3732,6.203192383868844,0.0
3733,6.364937105090399,0.0
3734,6.634579696556428,0.0
3735,6.928717439863271,0.0
3736,7.167580909093273,0.0
3737,7.302266830629204,0.0
3738,7.318357831813582,0.0
3739,7.257290916748678,0.0
3740,7.15000502365617,0.0
3741,7.022982915535013,0.0
3742,6.941899190042651,0.0
3743,6.888064986644261,0.0
3744,6.881036052524719,0.0
3745,6.920062894942945,0.0
3746,6.95207988775878,0.0
3747,6.984157606773229,0.0
3748,7.018911172123334,0.0
3749,7.027833526441409,0.0
3750,7.033580229113879,0.0
3751,7.019530920238358,0.0
3752,7.027976633717193,0.0
3753,6.997757832517919,0.0
3754,6.9931811943045386,0.0
3755,6.98470289587861,0.0
3756,7.01143826950206,0.0
3757,7.011278863618793,0.0
3758,7.020611364320534,0.0
3759,7.007463809568657,0.0
3760,7.018071221448151,0.0
3761,7.004804386227958,0.0
3762,7.011585742746682,0.0
3763,7.024062176968422,0.0
3764,6.993271279233081,0.0
3765,6.99553568949438,0.0
3766,6.995398844471513,0.0
3767,7.024247336142634,0.0
3768,7.002861944272282,0.0
3769,6.993491227699948,0.0
3770,7.005623455839894,0.0
3771,6.996449941448992,0.0
3772,6.9865694695731,0.0
3773,6.997703139284575,0.0
3774,7.004959791031482,0.0
3775,7.018746978501862,0.0
3776,7.027682197902984,0.0
3777,7.023549900106281,0.0
3778,7.030758474318966,0.0
3779,7.049824742320682,0.0
3780,7.066600009465082,0.0
3781,7.0570226342679145,0.0
3782,7.065847001343715,0.0
3783,7.052176123792328,0.0
3784,7.064855370738256,0.0
3785,7.087056572183204,0.0
3786,7.041693218231912,0.0
3787,7.062764969511435,0.0
3788,7.054563908005514,0.0
3789,7.025584964640233,0.0
3790,7.048496788851228,0.0
3791,7.025817077636155,0.0
3792,7.059455102092461,0.0
3793,7.051652687007391,0.0
3794,7.043553469354352,0.0
3795,7.056393381061569,0.0
3796,7.048768757342769,0.0
3797,7.0742447943098945,0.0
3798,7.105558209025993,0.0
3799,7.123740650177081,0.0
3800,7.228691127959151,0.0
3801,7.447193824095481,0.0
3802,7.706521854463737,0.0
3803,8.188467429256843,0.0
3804,8.8605235561084,0.0
3805,9.743222219896115,0.0
3806,10.764187670738362,0.0
3807,11.818966779264347,0.0
3808,12.826576476557943,0.0
3809,13.611000205466762,0.0
3810,14.04244258032205,0.0
3811,13.941586388535422,0.0
3812,13.179618328171873,0.0
3813,11.942479626162427,0.0
3814,10.259645411059651,0.0
3815,8.428925893393895,0.0
3816,6.619833403717727,0.0
3817,5.128351812679147,0.0
3818,4.23472456161497,0.0
3819,4.046653081611266,0.0
3820,4.4338004129892035,0.0
3821,5.192528051668688,0.0
3822,6.264013692269249,0.0
3823,7.3459640648248214,0.0
3824,8.227629639908017,0.0
3825,8.656520372941147,0.0
3826,8.602289012851308,0.0
3827,8.295939857085035,0.0
3828,7.762721909331199,0.0
3829,7.206568011662715,0.0
3830,6.6538767534966,0.0
3831,6.35404716248787,0.0
3832,6.323383597394734,0.0
3833,6.48154131474946,0.0
3834,6.751465663795292,0.0
3835,7.006210917337174,0.0
3836,7.226715542902037,0.0
3837,7.368868536699375,0.0
3838,7.412857933645183,0.0
3839,7.353825301239065,0.0
3840,7.253336188339645,0.0
3841,7.101673557513019,0.0
3842,7.025223812400871,0.0
3843,6.977466234373606,0.0
3844,6.971656156854657,0.0
3845,6.975841435223362,0.0
3846,7.008511942962788,0.0
3847,7.060371791866271,0.0
3848,7.07868460478714,0.0
3849,7.107138236093056,0.0
3850,7.076209466419315,0.0
3851,7.086605949386471,0.0
3852,7.069301753266998,0.0
3853,7.0600328210656675,0.0
3854,7.0571967668839894,0.0
3855,7.067324193053256,0.0
3856,7.049657434424975,0.0
3857,7.076690485770332,0.0
3858,7.08672108633947,0.0
3859,7.092976533813946,0.0
3860,7.095048322950545,0.0
3861,7.088385130995341,0.0
3862,7.089486468018929,0.0
3863,7.114546484790989,0.0
3864,7.107226788585497,0.0
3865,7.103130115961818,0.0
3866,7.1111764450917745,0.0
3867,7.128570016838178,0.0
3868,7.12047525523381,0.0
3869,7.106155259831255,0.0
3870,7.128944538192997,0.0
3871,7.127709963988894,0.0
3872,7.1152028626887835,0.0
3873,7.114397636790647,0.0
3874,7.118143775235686,0.0
3875,7.104026317231607,0.0
3876,7.112416257121145,0.0
3877,7.1186319999625685,0.0
3878,7.088775861130932,0.0
3879,7.110387052542135,0.0
3880,7.097820526949022,0.0
3881,7.111361399196266,0.0
3882,7.117930064306174,0.0
3883,7.11194099291952,0.0
3884,7.131660525357164,0.0
3885,7.1107354899513675,0.0
3886,7.098219764582942,0.0
3887,7.13090014405606,0.0
3888,7.1360098682899125,0.0
3889,7.1321912509779875,0.0
3890,7.129927228149851,0.0
3891,7.145230193798675,0.0
3892,7.159997330104604,0.0
3893,7.144771242574332,0.0
3894,7.143860132993582,0.0
3895,7.133405409770481,0.0
3896,7.145846533959701,0.0
3897,7.151731319333844,0.0
3898,7.134093910760331,0.0
3899,7.177691261037279,0.0
3900,7.269960872622239,0.0
3901,7.426845074759922,0.0
3902,7.705964240018089,0.0
3903,8.162759280984943,0.0
3904,8.83780566557918,0.0
3905,9.699420203504292,0.0
3906,10.733778409833112,0.0
3907,11.796834847888956,0.0
3908,12.820355002844458,0.0
3909,13.637979797120018,0.0
3910,14.06756230841626,0.0
3911,13.98714043694174,0.0
3912,13.260445866774981,0.0
3913,12.006609845235367,0.0
3914,10.390412865299858,0.0
3915,8.563112936186995,0.0
3916,6.7593758229410845,0.0
3917,5.265475418672496,0.0
3918,4.334807323491162,0.0
3919,4.141910058155396,0.0
3920,4.486782560857971,0.0
3921,5.25250338625363,0.0
3922,6.312281025673308,0.0
3923,7.377408152975569,0.0
3924,8.251392756891004,0.0
3925,8.669425987475538,0.0
3926,8.657503709401785,0.0
3927,8.363827203071558,0.0
3928,7.843171746834107,0.0
3929,7.2294637688318435,0.0
3930,6.732130256616369,0.0
3931,6.393141072108378,0.0
3932,6.35780267334799,0.0
3933,6.519671416804372,0.0
3934,6.771411179597306,0.0
3935,7.075623532404503,0.0
3936,7.298116016983323,0.0
3937,7.464829390763764,0.0
3938,7.510338808947396,0.0
3939,7.4599372585647465,0.0
3940,7.3661973089380774,0.0
3941,7.232851084154013,0.0
3942,7.161299652233611,0.0
3943,7.137779615631287,0.0
3944,7.118537776281668,0.0
3945,7.138108328871496,0.0
3946,7.155622755574665,0.0
3947,7.198169767158774,0.0
3948,7.245668586129611,0.0
3949,7.240526164858292,0.0
3950,7.222823563440329,0.0
3951,7.210657890012164,0.0
3952,7.191187849335858,0.0
3953,7.189420411002196,0.0
3954,7.180381562409736,0.0
3955,7.180785874159461,0.0
3956,7.174988516937691,0.0
3957,7.183113702902353,0.0
3958,7.164283195348621,0.0
3959,7.196507626967823,0.0
3960,7.218846838768172,0.0
3961,7.2265039497746315,0.0
3962,7.234675778761046,0.0
3963,7.223752992987937,0.0
3964,7.202402932032881,0.0
3965,7.209010286226639,0.0
3966,7.229497667876814,0.0
3967,7.221416081133175,0.0
3968,7.229186221120369,0.0
3969,7.231910105918373,0.0
3970,7.215561153272188,0.0
3971,7.207255044438528,0.0
3972,7.223138491291518,0.0
3973,7.1872752735379555,0.0
3974,7.199016506210484,0.0
3975,7.220535591971355,0.0
3976,7.2079254489070825,0.0
3977,7.206737749525046,0.0
3978,7.205850354561314,0.0
3979,7.212357926104852,0.0
3980,7.203427126336165,0.0
3981,7.207035799727897,0.0
3982,7.208844810777802,0.0
3983,7.217951382588711,0.0
3984,7.202335188892075,0.0
3985,7.220058841265888,0.0
3986,7.210816547786029,0.0
3987,7.213776974042471,0.0
3988,7.210453555137336,0.0
3989,7.234783553851788,0.0
3990,7.21449510707739,0.0
3991,7.2165521214819615,0.0
3992,7.231376594197708,0.0
3993,7.213229952636389,0.0
3994,7.210367956452719,0.0
3995,7.219146637084493,0.0
3996,7.212774503067401,0.0
3997,7.216647823063511,0.0
3998,7.217425139040825,0.0
3999,7.233844489295716,0.0
4000,7.296175093591244,0.0
4001,7.461942437514631,0.0
4002,7.742174320556097,0.0
4003,8.226083878386598,0.0
4004,8.864566449540577,0.0
4005,9.748682826946505,0.0
4006,10.776444132377947,0.0
4007,11.848064849826244,0.0
4008,12.884394960302473,0.0
4009,13.712580871283343,0.0
4010,14.151640539682809,0.0
4011,14.080477959119568,0.0
4012,13.388155118262937,0.0
4013,12.15704399467846,0.0
4014,10.534200874181847,0.0
4015,8.703655436318318,0.0
4016,6.889270324028531,0.0
4017,5.397039773599165,0.0
4018,4.469225603163794,0.0
4019,4.242702058326053,0.0
4020,4.588759333434846,0.0
4021,5.369911318101345,0.0
4022,6.405064951993482,0.0
4023,7.483002682705996,0.0
4024,8.354944076644818,0.0
4025,8.801881142283285,0.0
4026,8.825345759936928,0.0
4027,8.484514460610272,0.0
4028,7.958469932339608,0.0
4029,7.3916849166332605,0.0
4030,6.871043389959649,0.0
4031,6.541043736503037,0.0
4032,6.501059303232047,0.0
4033,6.646241057219587,0.0
4034,6.893070258301393,0.0
4035,7.160251666860354,0.0
4036,7.39794388468325,0.0
4037,7.586039311930651,0.0
4038,7.616195203169569,0.0
4039,7.555796952849499,0.0
4040,7.446941154429987,0.0
4041,7.3152927837738355,0.0
4042,7.232103029393802,0.0
4043,7.164158344442774,0.0
4044,7.174072943309483,0.0
4045,7.1893130458935275,0.0
4046,7.21882799058614,0.0
4047,7.271253758108005,0.0
4048,7.2868006079697905,0.0
4049,7.302644061534869,0.0
4050,7.296950488916747,0.0
4051,7.270615354250662,0.0
4052,7.25738485940663,0.0
4053,7.24933983134784,0.0
4054,7.2703211065406395,0.0
4055,7.26249216708483,0.0
4056,7.2511341863142516,0.0
4057,7.252416682771835,0.0
4058,7.271525189728877,0.0
4059,7.267531409734992,0.0
4060,7.247397393381265,0.0
4061,7.255180979370773,0.0
4062,7.2534882429751875,0.0
4063,7.279651232600458,0.0
4064,7.270472114249029,0.0
4065,7.264293628141065,0.0
4066,7.288569521816746,0.0
4067,7.270756888537982,0.0
4068,7.2862330790071335,0.0
4069,7.307330216918786,0.0
4070,7.283308857729955,0.0
4071,7.282937622541264,0.0
4072,7.288662884590024,0.0
4073,7.299327720745634,0.0
4074,7.288849680484314,0.0
4075,7.287896270824119,0.0
4076,7.306179116104439,0.0
4077,7.290049515261322,0.0
4078,7.273705252250633,0.0
4079,7.268689568399675,0.0
4080,7.272103531500838,0.0
4081,7.263975789201731,0.0
4082,7.287817079280826,0.0
4083,7.277197402257009,0.0
4084,7.285802264711627,0.0
4085,7.282099723322246,0.0
4086,7.268047134658009,0.0
4087,7.268624164447244,0.0
4088,7.287437389841643,0.0
4089,7.274716204980003,0.0
4090,7.2690031252744784,0.0
4091,7.2516390097693115,0.0
4092,7.296121971376547,0.0
4093,7.279358591564403,0.0
4094,7.28616413082929,0.0
4095,7.2967429226946745,0.0
4096,7.3195856357457325,0.0
4097,7.293662811498442,0.0
4098,7.296137328788226,0.0
4099,7.331989021251182,0.0
4100,7.4271994162776585,0.0
4101,7.58675218253875,0.0
4102,7.87671518566662,0.0
4103,8.334475186371042,0.0
4104,8.973850208248711,0.0
4105,9.814861486831784,0.0
4106,10.857463296810685,0.0
4107,11.91106005830311,0.0
4108,12.948683259215347,0.0
4109,13.785907944528875,0.0
4110,14.25693589180818,0.0
4111,14.190354765870236,0.0
4112,13.499525937883313,0.0
4113,12.26984677427031,0.0
4114,10.670050136131811,0.0
4115,8.858786617231832,0.0
4116,7.017780081165865,0.0
4117,5.5152872371252215,0.0
4118,4.572033080063185,0.0
4119,4.323598531225385,0.0
4120,4.663755204497075,0.0
4121,5.4223423537633835,0.0
4122,6.4673806570761325,0.0
4123,7.538849128897663,0.0
4124,8.425332406672306,0.0
4125,8.86495454081932,0.0
4126,8.873120123544616,0.0
4127,8.541777266597284,0.0
4128,8.035586364781697,0.0
4129,7.4187022387195904,0.0
4130,6.900728763907475,0.0
4131,6.53669010662985,0.0
4132,6.463017285694088,0.0
4133,6.623832664682548,0.0
4134,6.864592442623388,0.0
4135,7.150027853174355,0.0
4136,7.373825526750373,0.0
4137,7.555592563827107,0.0
4138,7.6029406832246345,0.0
4139,7.542007790750689,0.0
4140,7.423927360089873,0.0
4141,7.326745797829459,0.0
4142,7.259689715777486,0.0
4143,7.2004940018032535,0.0
4144,7.220539278659688,0.0
4145,7.254841638282613,0.0
4146,7.295002182251126,0.0
4147,7.323616681518846,0.0
4148,7.375833089879012,0.0
4149,7.394912433837207,0.0
4150,7.377441366421098,0.0
4151,7.3721404855250166,0.0
4152,7.36723089699138,0.0
4153,7.360048780515172,0.0
4154,7.329771642748886,0.0
4155,7.349671008136399,0.0
4156,7.346433397402565,0.0
4157,7.351591061194399,0.0
4158,7.35295031477074,0.0
4159,7.336972562722284,0.0
4160,7.334884395469118,0.0
4161,7.329385709920094,0.0
4162,7.345858978220066,0.0
4163,7.345968122649881,0.0
4164,7.316898214299861,0.0
4165,7.326926998134169,0.0
4166,7.35236964334167,0.0
4167,7.350186553482626,0.0
4168,7.335676717257781,0.0
4169,7.338010610131409,0.0
4170,7.340200707616403,0.0
4171,7.367446877394622,0.0
4172,7.37976973740387,0.0
4173,7.37474386005284,0.0
4174,7.37164676355129,0.0
4175,7.354157150534674,0.0
4176,7.36724999545616,0.0
4177,7.351756905526103,0.0
4178,7.348251503832555,0.0
4179,7.349653196157373,0.0
4180,7.366397588796287,0.0
4181,7.361728179723216,0.0
4182,7.369043702754705,0.0
4183,7.348272609854503,0.0
4184,7.335416249913402,0.0
4185,7.348400938707511,0.0
4186,7.361047677152605,0.0
4187,7.3374505169586,0.0
4188,7.340542995984473,0.0
4189,7.363104293764772,0.0
4190,7.3467367558791405,0.0
4191,7.313785809113737,0.0
4192,7.337741303562076,0.0
4193,7.341762512470613,0.0
4194,7.328210890061753,0.0
4195,7.3216050595930975,0.0
4196,7.323370982991723,0.0
4197,7.3330068364245475,0.0
4198,7.342467628310342,0.0
4199,7.3674450804171165,0.0
4200,7.437434817696899,0.0
4201,7.608271877171621,0.0
4202,7.904329303865055,0.0
4203,8.36521131442045,0.0
4204,8.987338444998507,0.0
4205,9.858940922844736,0.0
4206,10.871961479200245,0.0
4207,11.95088362842747,0.0
4208,12.970283561196183,0.0
4209,13.823853403633276,0.0
4210,14.307290424442773,0.0
4211,14.242357509647254,0.0
4212,13.570833654906156,0.0
4213,12.351316184837216,0.0
4214,10.759769417765467,0.0
4215,8.918684387989774,0.0
4216,7.129944573750839,0.0
4217,5.5966424414693225,0.0
4218,4.668103517854927,0.0
4219,4.394756209189778,0.0
4220,4.704241667038796,0.0
4221,5.502058286452513,0.0
4222,6.528246776315289,0.0
4223,7.626563242382518,0.0
4224,8.510852814955914,0.0
4225,8.97678421585373,0.0
4226,8.978603418611934,0.0
4227,8.675987754039364,0.0
4228,8.149463565406338,0.0
4229,7.5458396034512,0.0
4230,7.016231408739435,0.0
4231,6.654076341274497,0.0
4232,6.569081475521424,0.0
4233,6.70852144711352,0.0
4234,6.958218970460681,0.0
4235,7.237604029948274,0.0
4236,7.479700435255823,0.0
4237,7.624034152200749,0.0
4238,7.68199272690565,0.0
4239,7.6501129099515754,0.0
4240,7.549079647426435,0.0
4241,7.425852178913768,0.0
4242,7.338107057830686,0.0
4243,7.285241700453377,0.0
4244,7.275304481883465,0.0
4245,7.298350074778158,0.0
4246,7.32942120954387,0.0
4247,7.361494484732078,0.0
4248,7.412080423019825,0.0
4249,7.411685249370564,0.0
4250,7.411284552978561,0.0
4251,7.412952505779212,0.0
4252,7.365772862291777,0.0
4253,7.37406208058642,0.0
4254,7.366289017392265,0.0
4255,7.372115932978314,0.0
4256,7.381783082324885,0.0
4257,7.408244005462008,0.0
4258,7.402689020894079,0.0
4259,7.442730758082019,0.0
4260,7.460034334474342,0.0
4261,7.476720550573038,0.0
4262,7.472725173531336,0.0
4263,7.491160395904913,0.0
4264,7.487357416173472,0.0
4265,7.487453178823338,0.0
4266,7.48563935968493,0.0
4267,7.477303815468935,0.0
4268,7.469151165106016,0.0
4269,7.455587708133843,0.0
4270,7.431923985717354,0.0
4271,7.442730392258871,0.0
4272,7.420453057010158,0.0
4273,7.391437432676478,0.0
4274,7.395028475137189,0.0
4275,7.395460242761433,0.0
4276,7.385948738378347,0.0
4277,7.399838302618821,0.0
4278,7.384084253749259,0.0
4279,7.378849290414867,0.0
4280,7.379229614743112,0.0
4281,7.379643396871946,0.0
4282,7.380604490547117,0.0
4283,7.381928465086284,0.0
4284,7.394146737493099,0.0
4285,7.403308343732129,0.0
4286,7.392851883943597,0.0
4287,7.4049544793041715,0.0
4288,7.413195357249715,0.0
4289,7.412909089697906,0.0
4290,7.414867507138882,0.0
4291,7.413900772151705,0.0
4292,7.429189062326095,0.0
4293,7.415936025483373,0.0
4294,7.432384517293174,0.0
4295,7.43414513775573,0.0
4296,7.4248475569466565,0.0
4297,7.425020470319639,0.0
4298,7.426543649116177,0.0
4299,7.4570811853274535,0.0
4300,7.527193928726057,0.0
4301,7.69058730051905,0.0
4302,7.984742329089201,0.0
4303,8.427727116125576,0.0
4304,9.073331634669744,0.0
4305,9.922769769240535,0.0
4306,10.933442843011678,0.0
4307,12.009140553716671,0.0
4308,13.041777569951108,0.0
4309,13.888024129170432,0.0
4310,14.357304846103549,0.0
4311,14.355760704388604,0.0
4312,13.66578646338388,0.0
4313,12.474809096257436,0.0
4314,10.877153269725241,0.0
4315,9.041596121860447,0.0
4316,7.217630345875911,0.0
4317,5.696078658620408,0.0
4318,4.718069000653411,0.0
4319,4.4523434530882025,0.0
4320,4.759041140133215,0.0
4321,5.50435837249143,0.0
4322,6.526286176135349,0.0
4323,7.618754487725349,0.0
4324,8.50449030891499,0.0
4325,8.98808628220406,0.0
4326,9.050617277645127,0.0
4327,8.748339261746018,0.0
4328,8.21379727046601,0.0
4329,7.643055880138521,0.0
4330,7.121674508189078,0.0
4331,6.760926320090734,0.0
4332,6.715732751436852,0.0
4333,6.867196946133821,0.0
4334,7.092272555437078,0.0
4335,7.381123659150108,0.0
4336,7.62584869506226,0.0
4337,7.790621518222925,0.0
4338,7.8533983993890395,0.0
4339,7.813361101114756,0.0
4340,7.683151130563785,0.0
4341,7.555784585002513,0.0
4342,7.47765764799636,0.0
4343,7.410929893548254,0.0
4344,7.418703744511267,0.0
4345,7.4345864457275335,0.0
4346,7.467344269855363,0.0
4347,7.5127323436020506,0.0
4348,7.548077988153841,0.0
4349,7.558345155782121,0.0
4350,7.537752167233751,0.0
4351,7.515570593388847,0.0
4352,7.52666046381003,0.0
4353,7.48923148000844,0.0
4354,7.509654102606324,0.0
4355,7.511783955521257,0.0
4356,7.511308232894412,0.0
4357,7.52739075092026,0.0
4358,7.50879913789975,0.0
4359,7.517706078635217,0.0
4360,7.512482790509967,0.0
4361,7.532166982824889,0.0
4362,7.518016274445243,0.0
4363,7.5134978879853795,0.0
4364,7.529291145815845,0.0
4365,7.507046082859182,0.0
4366,7.525766962940697,0.0
4367,7.509322099933864,0.0
4368,7.512161039065251,0.0
4369,7.505866044690489,0.0
4370,7.536906968612501,0.0
4371,7.52997027429678,0.0
4372,7.502449849720839,0.0
4373,7.50974197386671,0.0
4374,7.513597533511993,0.0
4375,7.506911645402131,0.0
4376,7.490820701725526,0.0
4377,7.4780765943546825,0.0
4378,7.487589360741872,0.0
4379,7.49333909848177,0.0
4380,7.482071656705152,0.0
4381,7.447344329303818,0.0
4382,7.4649661260978295,0.0
4383,7.443361236095461,0.0
4384,7.444365063889213,0.0
4385,7.442803044923364,0.0
4386,7.430587789202018,0.0
4387,7.446932324012079,0.0
4388,7.45153493117489,0.0
4389,7.436798494671571,0.0
4390,7.434082073451373,0.0
4391,7.4463681534793125,0.0
4392,7.480402829587194,0.0
4393,7.464712209304517,0.0
4394,7.479368500585434,0.0
4395,7.476273312162727,0.0
4396,7.490097664276536,0.0
4397,7.490832440685954,0.0
4398,7.508705586329034,0.0
4399,7.540288445607201,0.0
4400,7.62354820550066,0.0
4401,7.793498234542841,0.0
4402,8.0991728797429,0.0
4403,8.540351514462671,0.0
4404,9.167620499317787,0.0
4405,10.0146823495371,0.0
4406,11.045022043558182,0.0
4407,12.096884022021097,0.0
4408,13.128468612845591,0.0
4409,13.96197966514503,0.0
4410,14.456107183460816,0.0
4411,14.412920767785442,0.0
4412,13.761890676217746,0.0
4413,12.559314314251623,0.0
4414,10.978256841451216,0.0
4415,9.126393440292933,0.0
