timestamp,value-0,is_anomaly
0,-1.6918299217680899,0
1,-1.4969743996013056,0
2,-1.0446337588140016,0
3,-0.33844263266621155,0
4,0.5413492029198976,0
5,1.577290783815979,0
6,2.644881477779001,0
7,3.651714236371175,0
8,4.4655735570404005,0
9,4.9582394937689145,0
10,4.928463202413033,0
11,4.2581831579728835,0
12,3.039609864093343,0
13,1.443475303943579,0
14,-0.37277802189596576,0
15,-2.2133865101937,0
16,-3.734357367007707,0
17,-4.700429830759825,0
18,-4.985495742739954,0
19,-4.675848683596956,0
20,-3.9014707913522724,0
21,-2.862499054269686,0
22,-1.7633193792331878,0
23,-0.8387076950549186,0
24,-0.35953846277063284,0
25,-0.28735695179448295,0
26,-0.593515307172561,0
27,-1.0494263160024042,0
28,-1.6479264067838968,0
29,-2.1604187455102513,0
30,-2.487509962426735,0
31,-2.587898903166177,0
32,-2.4152965419685213,0
33,-2.1645665628758213,0
34,-1.905231111354069,0
35,-1.6751286209294174,0
36,-1.5255256168746636,0
37,-1.4922849182317628,0
38,-1.542177129595192,0
39,-1.662991822427009,0
40,-1.7999743417456404,0
41,-1.8833454646724987,0
42,-1.928922731130041,0
43,-1.9629229450860972,0
44,-1.909532565847163,0
45,-1.8697390861790966,0
46,-1.8220400529312981,0
47,-1.7786613464905472,0
48,-1.7303999354055335,0
49,-1.7547669327353312,0
50,-1.750780661980581,0
51,-1.7321431989043297,0
52,-1.7329782806220575,0
53,-1.728684129304794,0
54,-1.7279118214234732,0
55,-1.697647737936891,0
56,-1.7019832932320529,0
57,-1.6705232995151837,0
58,-1.6679428551088489,0
59,-1.6643178466220505,0
60,-1.6910179585921168,0
61,-1.671140193953844,0
62,-1.661914886672285,0
63,-1.6771464662511986,0
64,-1.6879895112195904,0
65,-1.6724348240206106,0
66,-1.699892114213425,0
67,-1.6948791011974422,0
68,-1.6896546125621879,0
69,-1.7125394086723935,0
70,-1.690768351969974,0
71,-1.6823421797754503,0
72,-1.7144699340294727,0
73,-1.7028578832388315,0
74,-1.7068762326839675,0
75,-1.6921545779520495,0
76,-1.6858426272232478,0
77,-1.6673731623623882,0
78,-1.6725315232135496,0
79,-1.6399041881435659,0
80,-1.6360529471584313,0
81,-1.6228544964995726,0
82,-1.6261368131184948,0
83,-1.6494856376181086,0
84,-1.6046511058381558,0
85,-1.614317975151099,0
86,-1.620500128615814,0
87,-1.618883007793014,0
88,-1.5912480340326896,0
89,-1.5817882434047659,0
90,-1.6096998944547973,0
91,-1.6021912389585864,0
92,-1.60175668376691,0
93,-1.5990037354798317,0
94,-1.5797860715529328,0
95,-1.592371339855467,0
96,-1.5794741383546895,0
97,-1.5959036266914262,0
98,-1.5506765302067866,0
99,-1.4523308022194785,0
100,-1.2893338286426062,0
101,-0.9989845967210256,0
102,-0.5639778916165195,0
103,0.07275113881307038,0
104,0.9426590739519611,0
105,1.978009960487922,0
106,3.0610626928141027,0
107,4.079552812324102,0
108,4.932448769809932,0
109,5.4639882113724685,0
110,5.4245026803722425,0
111,4.7664337592265404,0
112,3.587608136136307,0
113,1.989083323240196,0
114,0.15885571196861026,0
115,-1.6771829667213414,0
116,-3.205540846103182,0
117,-4.194644271412923,0
118,-4.472637498269971,0
119,-4.19663620101306,0
120,-3.4427121061094947,0
121,-2.4176042746743382,0
122,-1.3138505139583834,0
123,-0.40987991142977553,0
124,0.09057420260113935,0
125,0.12801874273836744,0
126,-0.1614820695262269,0
127,-0.6572689647845712,0
128,-1.2077592737354437,0
129,-1.7144045543252369,0
130,-2.1095573604885622,0
131,-2.1706110358977253,0
132,-2.025701282962161,0
133,-1.7550926647709104,0
134,-1.4514782591206703,0
135,-1.2310328670695543,0
136,-1.0515582439163218,0
137,-0.9967240914752922,0
138,-1.0378896389114889,0
139,-1.1493392241703386,0
140,-1.2544562744911578,0
141,-1.3669512822114829,0
142,-1.4160608226349733,0
143,-1.3960251407176598,0
144,-1.396575919133664,0
145,-1.3679702013275374,0
146,-1.362420011760152,0
147,-1.314858789778082,0
148,-1.2971547678100905,0
149,-1.2847711013575644,0
150,-1.2811938130527387,0
151,-1.327264346752037,0
152,-1.3314661977710611,0
153,-1.317036650494212,0
154,-1.2907712333781922,0
155,-1.2915950907611884,0
156,-1.282820699068654,0
157,-1.2564662268851599,0
158,-1.2633517802004688,0
159,-1.2675166837635055,0
160,-1.243843389581052,0
161,-1.2515869679706628,0
162,-1.2485399021372545,0
163,-1.2600285490049077,0
164,-1.2438357484486466,0
165,-1.224930600423696,0
166,-1.2247266805027996,0
167,-1.2379954088164074,0
168,-1.2471537155837942,0
169,-1.2190676525094064,0
170,-1.232759781887674,0
171,-1.236120889023394,0
172,-1.2311967535421102,0
173,-1.2173493744716586,0
174,-1.2037041642205537,0
175,-1.1953068725433997,0
176,-1.1919971299287264,0
177,-1.1876455533019354,0
178,-1.1636500864016242,0
179,-1.1362156945793986,0
180,-1.156741598055647,0
181,-1.138311682881515,0
182,-1.113088567123038,0
183,-1.109466517675919,0
184,-1.0967207585087295,0
185,-1.0930538714789222,0
186,-1.08007189465795,0
187,-1.070018620331425,0
188,-1.0689791635093304,0
189,-1.0796605316517864,0
190,-1.0745572201703304,0
191,-1.0693221824959056,0
192,-1.0592715738877196,0
193,-1.073713873654332,0
194,-1.0530292442688416,0
195,-1.0547606245261656,0
196,-1.0797387554396431,0
197,-1.0583533549799078,0
198,-1.0230297952717164,0
199,-0.9436372203912017,0
200,-0.7801368878442929,0
201,-0.4964916412253637,0
202,-0.0841842543671989,0
203,0.5679975004409488,0
204,1.4148922948678142,0
205,2.426196912711453,0
206,3.522234586407664,0
207,4.532120214162897,0
208,5.407897096275839,0
209,5.909252204289027,0
210,5.8977530455294955,0
211,5.261947635296776,0
212,4.082710301569119,0
213,2.512604250959846,0
214,0.680801337308456,0
215,-1.1381774235849935,0
216,-2.677330825463548,0
217,-3.692240529015522,0
218,-3.996410056772885,0
219,-3.722394174226544,0
220,-2.9804690111043164,0
221,-1.9497609086651084,0
222,-0.8471358629560234,0
223,0.0576625228398191,0
224,0.560460475233681,0
225,0.5936618092203916,0
226,0.32297022460966607,0
227,-0.1892178063171479,0
228,-0.7700545703956376,0
229,-1.2978098520811157,0
230,-1.6623332723531328,0
231,-1.7389733355846357,0
232,-1.6022529370868672,0
233,-1.3278865932252448,0
234,-1.0524753227776547,0
235,-0.7916891314828796,0
236,-0.6420085747202037,0
237,-0.566847381818032,0
238,-0.6168632117511412,0
239,-0.6994267072103296,0
240,-0.8298662035928852,0
241,-0.9162653457092542,0
242,-0.977532698903733,0
243,-0.996251220843967,0
244,-0.9725820199895381,0
245,-0.9279954979922668,0
246,-0.8791995541581246,0
247,-0.8247739398366745,0
248,-0.8261157401725487,0
249,-0.8228253913092515,0
250,-0.8172061063004866,0
251,-0.8194929057103217,0
252,-0.8311633475729209,0
253,-0.8394011528486303,0
254,-0.8037365955151787,0
255,-0.7941696084034977,0
256,-0.7767510427877551,0
257,-0.7774136328365017,0
258,-0.7586117414534203,0
259,-0.7659549188076106,0
260,-0.7471714239406966,0
261,-0.7596006007492817,0
262,-0.7544150852248815,0
263,-0.7544844291462655,0
264,-0.7449787647329599,0
265,-0.7482654441716667,0
266,-0.7591530059992929,0
267,-0.7727425733933508,0
268,-0.7814926096763153,0
269,-0.7703120315177794,0
270,-0.7864427336152806,0
271,-0.7870612945392366,0
272,-0.7871403349444996,0
273,-0.7958903635160774,0
274,-0.7730661954803372,0
275,-0.7731759796509923,0
276,-0.7528604682384326,0
277,-0.7540094121853963,0
278,-0.7509486332717011,0
279,-0.7262316551481494,0
280,-0.7145801082498487,0
281,-0.7123550586643805,0
282,-0.7141265198008638,0
283,-0.7026663576000846,0
284,-0.7094708232051901,0
285,-0.6903194086403269,0
286,-0.6875752362364824,0
287,-0.6975993531800909,0
288,-0.6806348264434344,0
289,-0.6889633276179121,0
290,-0.6698452337137554,0
291,-0.6873942946739658,0
292,-0.669933483186782,0
293,-0.6697995046322712,0
294,-0.6754748167336172,0
295,-0.6752439033821073,0
296,-0.6705510621001171,0
297,-0.6638777011437742,0
298,-0.6278923811525163,0
299,-0.5532488499029249,0
300,-0.4237769064379129,0
301,-0.10491497347413503,0
302,0.30293426375484067,0
303,0.9358033788075647,0
304,1.7798047118578704,0
305,2.7986557337150497,0
306,3.8992606784963395,0
307,4.913239776563274,0
308,5.77445810655441,0
309,6.3084384367506185,0
310,6.327559177399878,0
311,5.703471797803009,0
312,4.524672645739211,0
313,2.964441831952348,0
314,1.1585021798983206,0
315,-0.6670997599318157,0
316,-2.2210273499668722,0
317,-3.231048175603416,0
318,-3.557227785412687,0
319,-3.293428213957001,0
320,-2.570350982408646,0
321,-1.5331000991012629,0
322,-0.45808690602044444,0
323,0.44190836068822714,0
324,0.9755050757583559,0
325,1.0172315855596268,0
326,0.7433207919703516,0
327,0.22852180196706595,0
328,-0.3471294354958537,0
329,-0.881674897058974,0
330,-1.2723921433376306,0
331,-1.3386480476705491,0
332,-1.1905644346780013,0
333,-0.9412644227952573,0
334,-0.652837812910424,0
335,-0.39425204460707264,0
336,-0.2255404932942488,0
337,-0.14841852603261352,0
338,-0.1888819846003102,0
339,-0.2926841736556087,0
340,-0.40152766534172485,0
341,-0.5010213678423628,0
342,-0.5261456525164465,0
343,-0.5509899162654877,0
344,-0.5368113231494932,0
345,-0.492240662341203,0
346,-0.45156515487051496,0
347,-0.41598382759632174,0
348,-0.4018083052937133,0
349,-0.4233881788180824,0
350,-0.40649272763891936,0
351,-0.44731760908741053,0
352,-0.4425993539681043,0
353,-0.42721790129771575,0
354,-0.41479037848349787,0
355,-0.44281848018984804,0
356,-0.41944273057274084,0
357,-0.42214730289553537,0
358,-0.4037978316274917,0
359,-0.4006541187639737,0
360,-0.40960035147416163,0
361,-0.4148199673668724,0
362,-0.39873847304316956,0
363,-0.38355698542242317,0
364,-0.40391600183907433,0
365,-0.40641219429655145,0
366,-0.39732959774986915,0
367,-0.40023988678908556,0
368,-0.39332063346113,0
369,-0.39015666396844095,0
370,-0.38767137943527036,0
371,-0.3828691667516633,0
372,-0.38299936649446154,0
373,-0.379551275027703,0
374,-0.37035877379260346,0
375,-0.363445500972226,0
376,-0.3585057481589733,0
377,-0.35906399430618696,0
378,-0.3764864756104805,0
379,-0.35707943575043494,0
380,-0.31287440291972135,0
381,-0.3237854718806018,0
382,-0.32285350779439115,0
383,-0.3125647644106995,0
384,-0.30668229280375026,0
385,-0.30306931696656203,0
386,-0.2917414641910566,0
387,-0.29855366347708545,0
388,-0.28982895210287807,0
389,-0.285805558952155,0
390,-0.27919093033376935,0
391,-0.27857703246823073,0
392,-0.28839773864551943,0
393,-0.257252263628014,0
394,-0.26373706410591563,0
395,-0.25612012563154485,0
396,-0.25567603903423014,0
397,-0.23872506452727865,0
398,-0.22705875706154843,0
399,-0.15456478173290916,0
400,0.00886490562977904,0
401,0.2767232992977087,0
402,0.7113554672982102,0
403,1.3264932650075938,0
404,2.158730390454883,0
405,3.1702369980314655,0
406,4.230001042656709,0
407,5.268981762763831,0
408,6.146991295062829,0
409,6.665253930407514,0
410,6.669465795961407,0
411,6.0695793082106775,0
412,4.927039834683597,0
413,3.3524299760333354,0
414,1.564691503606616,0
415,-0.26272638895057565,0
416,-1.8100692145263222,0
417,-2.8480355249246694,0
418,-3.1756136628344445,0
419,-2.8970873978784555,0
420,-2.196693120171225,0
421,-1.206104597707537,0
422,-0.10278455876777134,0
423,0.8325040972249382,0
424,1.361167400383271,0
425,1.4047228776366252,0
426,1.114456561723471,0
427,0.6363287404551434,0
428,0.04752739881159308,0
429,-0.4970673273726406,0
430,-0.8600694317448654,0
431,-0.9445746539847414,0
432,-0.8338856564740104,0
433,-0.569084166366534,0
434,-0.27383718220767156,0
435,-0.032852500354250455,0
436,0.13865564513361162,0
437,0.2223117509939582,0
438,0.18056817474332432,0
439,0.08078677733598251,0
440,-0.031680639729767375,0
441,-0.12165926703526032,0
442,-0.16939607585809902,0
443,-0.16609702643780577,0
444,-0.16884419484686514,0
445,-0.10439110603545587,0
446,-0.07780917941617824,0
447,-0.039982093522813386,0
448,-0.007002471971739095,0
449,-0.0073586841761893625,0
450,-0.02648422556208622,0
451,-0.04538364129184809,0
452,-0.045310449689707766,0
453,-0.05759277740355222,0
454,-0.03754827147147559,0
455,-0.048639516447304666,0
456,-0.02999285936593673,0
457,-0.031271852668369696,0
458,-0.01062615056461394,0
459,-0.03186324122275853,0
460,-0.02039947114292171,0
461,-0.012072394918622706,0
462,-0.0017918530674327082,0
463,-0.00012683499794355346,0
464,0.008672473164488596,0
465,0.03836942276474785,0
466,0.03676844134678503,0
467,0.032669945683334645,0
468,0.02109293636209954,0
469,0.027094102228913085,0
470,0.05812184616310975,0
471,0.052881780861856104,0
472,0.050992185750047436,0
473,0.06698168193165005,0
474,0.06474365098931557,0
475,0.06327141818000956,0
476,0.07209073403174811,0
477,0.07136843195413303,0
478,0.09246069649422317,0
479,0.05600794534140519,0
480,0.09035034484420063,0
481,0.09117453831466686,0
482,0.10020563856416198,0
483,0.09178973381187144,0
484,0.08244192550904361,0
485,0.08544350069907261,0
486,0.07995838835343419,0
487,0.0774094956849537,0
488,0.09030775125200734,0
489,0.08417890969490284,0
490,0.11406993481863587,0
491,0.1091641944792863,0
492,0.09981334032165955,0
493,0.12330259677389471,0
494,0.10321429258763731,0
495,0.11952351145329454,0
496,0.11812595536798329,0
497,0.1454931353810887,0
498,0.16719401269089512,0
499,0.23372885327234486,0
500,0.37654721863328344,0
501,0.6740570611195044,0
502,1.083795621064275,0
503,1.7149980947825945,0
504,2.5544169882323535,0
505,3.5629165648320646,0
506,4.642658494413716,0
507,5.670795342979534,0
508,6.564746134337337,0
509,7.100098695766826,0
510,7.1425605515299795,0
511,6.545342555368247,0
512,5.404609839396038,0
513,3.8391090368314083,0
514,2.030100850825879,0
515,0.1884290344662125,0
516,-1.3773489358657305,0
517,-2.4276662759852266,0
518,-2.786153335629316,0
519,-2.5358900367606023,0
520,-1.8490158146850784,0
521,-0.8102096976242061,0
522,0.28340371363207517,0
523,1.2369381470276122,0
524,1.7775515152406993,0
525,1.8438053973426627,0
526,1.5957950896323596,0
527,1.106790778611601,0
528,0.5391515939947293,0
529,-0.008648710400505855,0
530,-0.396119774911346,0
531,-0.49245975022722777,0
532,-0.35225134884707276,0
533,-0.10396783600252646,0
534,0.17523284814975665,0
535,0.39882059101667194,0
536,0.6032652767082463,0
537,0.6482758167132451,0
538,0.5907930769136644,0
539,0.48727417571022386,0
540,0.36503596863902105,0
541,0.28892823681114477,0
542,0.20725693857554572,0
543,0.19095478632205307,0
544,0.23479538604116756,0
545,0.26594401911921783,0
546,0.3134718837672926,0
547,0.34371387026852807,0
548,0.3564738901714964,0
549,0.3616472039556001,0
550,0.35681869911258096,0
551,0.3504679758733008,0
552,0.36123520093624084,0
553,0.3267528237875437,0
554,0.32459503533639567,0
555,0.3291200998875278,0
556,0.3459519840612666,0
557,0.3407905494912122,0
558,0.3425056501546608,0
559,0.3613331299976143,0
560,0.3435418457981556,0
561,0.35452173116310526,0
562,0.3662542657136127,0
563,0.3635938802741057,0
564,0.3935971890133072,0
565,0.3899594724863182,0
566,0.4018673405739003,0
567,0.42159184320329096,0
568,0.4334823854002673,0
569,0.4548772492140413,0
570,0.4593497797307197,0
571,0.461585832770664,0
572,0.46526841997045165,0
573,0.4825719065850926,0
574,0.4855101536804217,0
575,0.48352802940932643,0
576,0.4733607641756234,0
577,0.487303686958559,0
578,0.5024331312678944,0
579,0.49608184741749617,0
580,0.4983628269263843,0
581,0.49223021610512074,0
582,0.5108679004337545,0
583,0.49935033937843387,0
584,0.505997825088779,0
585,0.5107588763019195,0
586,0.5260831593899669,0
587,0.5105398375702527,0
588,0.5224525424928609,0
589,0.520808733677076,0
590,0.5185348515666431,0
591,0.5313882183615031,0
592,0.5508234251468489,0
593,0.5545956513777478,0
594,0.5354920002578801,0
595,0.5376733855362159,0
596,0.5396648764971886,0
597,0.5296657870779542,0
598,0.5781103605550846,0
599,0.6445720840592097,0
600,0.7898830213098147,0
601,1.056912490065884,0
602,1.4740849340508495,0
603,2.0905223454033806,0
604,2.9245891317951878,0
605,3.9175686977901716,0
606,5.027948958591371,0
607,6.073061660872176,0
608,6.935625665698053,0
609,7.507663840505214,0
610,7.5281745512815235,0
611,6.9805405914805885,0
612,5.830101564394326,0
613,4.294661452271911,0
614,2.4846847916692,0
615,0.6332315990706592,0
616,-0.9271894892366747,0
617,-1.977198135254823,0
618,-2.340808657061491,0
619,-2.107572147081271,0
620,-1.4236271064061354,0
621,-0.4225373646688799,0
622,0.68681850999246,0
623,1.6200637847897723,0
624,2.1730203549468534,0
625,2.2378360380235076,0
626,1.9929180253603944,0
627,1.5100892213743498,0
628,0.9246274491901151,0
629,0.4006445285054657,0
630,0.00991573824724401,0
631,-0.11264138626285858,0
632,0.008041617828868808,0
633,0.2541142479155852,0
634,0.5408264821106975,0
635,0.7973349743185525,0
636,0.9720744102481338,0
637,1.05308810110267,0
638,1.012439031981862,0
639,0.9075247655512311,0
640,0.7811144911638679,0
641,0.6777986450307991,0
642,0.6206433591689747,0
643,0.5975674001545487,0
644,0.6277901622483198,0
645,0.666061521120422,0
646,0.7165973412349266,0
647,0.7405647218941864,0
648,0.7653662893727046,0
649,0.7659684944096945,0
650,0.7697941233373812,0
651,0.7498663984812914,0
652,0.7346517399906942,0
653,0.7317559075460932,0
654,0.7372223577833275,0
655,0.749159266610017,0
656,0.7510458047858934,0
657,0.7621632344199096,0
658,0.7647162019159448,0
659,0.7886218077463127,0
660,0.7770373293172215,0
661,0.7913881284928455,0
662,0.7905546646741713,0
663,0.8108584126993978,0
664,0.7919294150595138,0
665,0.7975966127196968,0
666,0.7956567141575351,0
667,0.8011349885446947,0
668,0.8072935348686311,0
669,0.8184124191429399,0
670,0.8223443709227788,0
671,0.8339384215257444,0
672,0.8293609882488341,0
673,0.8461909033139953,0
674,0.8198218089649958,0
675,0.848822627892362,0
676,0.8598714490074354,0
677,0.8679381433682141,0
678,0.8583487374831672,0
679,0.864432745580862,0
680,0.8655172659607907,0
681,0.8703226501380275,0
682,0.8795512393865124,0
683,0.868926348198011,0
684,0.8557407236878236,0
685,0.8797776629423584,0
686,0.88612489579716,0
687,0.882893352218453,0
688,0.8905392123288176,0
689,0.8849690893722475,0
690,0.8889816841258529,0
691,0.9124620346895566,0
692,0.909757818881173,0
693,0.8976177147566942,0
694,0.8880080182885036,0
695,0.9004534335858945,0
696,0.8974044208739803,0
697,0.8991705694373412,0
698,0.9479231944906169,0
699,1.0122857403336494,0
700,1.1725482970055654,0
701,1.4564677313613414,0
702,1.86907668299216,0
703,2.462970327727308,0
704,3.302132786066304,0
705,4.314567970566116,0
706,5.4079305145477985,0
707,6.431668278420818,0
708,7.3131176192605665,0
709,7.888932289680848,0
710,7.9459745629896545,0
711,7.3883849395255305,0
712,6.257162824802335,0
713,4.69566240109096,0
714,2.904835116738075,0
715,1.045932035937082,0
716,-0.5547091045509164,0
717,-1.6157821563655181,0
718,-2.0110132138339276,0
719,-1.8024942636226984,0
720,-1.1170849383641617,0
721,-0.10154270415465083,0
722,0.9943224117891017,0
723,1.9551420728736653,0
724,2.5265499904566293,0
725,2.6232162767285536,0
726,2.3717176489611833,0
727,1.905566682492331,0
728,1.3313530661572794,0
729,0.8072015993265815,0
730,0.4176749378125112,0
731,0.31781321962022435,0
732,0.4180707572873815,0
733,0.6794377002176657,0
734,0.9680082554564865,0
735,1.1922826309916705,0
736,1.370094926739589,0
737,1.4465174829729117,0
738,1.3917015462333842,0
739,1.2746174910558103,0
740,1.1501264520729537,0
741,1.053690384102102,0
742,0.99722079747749,0
743,0.9709787561382,0
744,0.9973814974480054,0
745,1.0497654165817327,0
746,1.0642804226907954,0
747,1.114500461495965,0
748,1.1426357648351515,0
749,1.1506290067874554,0
750,1.1469109493503857,0
751,1.1316541336826833,0
752,1.141001859273544,0
753,1.134803488246386,0
754,1.133709387255299,0
755,1.1674371105349501,0
756,1.167388068559536,0
757,1.180430765909085,0
758,1.186467452878181,0
759,1.1896025594281983,0
760,1.186851580697383,0
761,1.1857425067354257,0
762,1.1882143736386117,0
763,1.2022571897590173,0
764,1.207895559553109,0
765,1.1956327285284851,0
766,1.2156676477560793,0
767,1.2108260942131177,0
768,1.2013010592174216,0
769,1.1931451461244629,0
770,1.2095767826519142,0
771,1.2118077601855977,0
772,1.2181950654715796,0
773,1.2233205852965068,0
774,1.2202873402683063,0
775,1.2264185561112655,0
776,1.2374721211624589,0
777,1.2361930047348828,0
778,1.2409096222823963,0
779,1.2756489204253336,0
780,1.2668008003887183,0
781,1.2592673202661755,0
782,1.2515613194998625,0
783,1.2865670763905435,0
784,1.2795610660083359,0
785,1.3088523503247125,0
786,1.2986980669572337,0
787,1.281118995447074,0
788,1.3259254880364904,0
789,1.33025146073586,0
790,1.332981470749157,0
791,1.334292231036716,0
792,1.30244865205906,0
793,1.3181475241906526,0
794,1.2991016882005453,0
795,1.3045079554898669,0
796,1.3104064340559551,0
797,1.2939117126928519,0
798,1.3343608964913343,0
799,1.3936130176580717,0
800,1.5425582177331731,0
801,1.797209701160881,0
802,2.198560515877556,0
803,2.8275096223592304,0
804,3.6269997750415426,0
805,4.643864473717647,0
806,5.723707083628163,0
807,6.790191989173457,0
808,7.668911072882798,0
809,8.241543252909523,0
810,8.341682228867217,0
811,7.807087497904415,0
812,6.682615042452062,0
813,5.147145234884228,0
814,3.335475778113257,0
815,1.4952869279838352,0
816,-0.11032517385053042,0
817,-1.1995256519555586,0
818,-1.606153319387434,0
819,-1.4021523550977026,0
820,-0.7403881046774248,0
821,0.26697581162008266,0
822,1.3550385972520878,0
823,2.329213942054369,0
824,2.8774621219696312,0
825,3.0008030101318304,0
826,2.724860105515128,0
827,2.2696829698042857,0
828,1.6773526105240608,0
829,1.146566028039257,0
830,0.754925024712803,0
831,0.6248922622421981,0
832,0.7432989585505575,0
833,0.9945002679135237,0
834,1.2682852948966201,0
835,1.5158865175736504,0
836,1.687286850768077,0
837,1.7673946800879823,0
838,1.7491602731345521,0
839,1.6192528439559069,0
840,1.5237457083177381,0
841,1.4193899926705853,0
842,1.3962336312304071,0
843,1.3505714902706007,0
844,1.386090830559156,0
845,1.4049720334029216,0
846,1.4522226810817451,0
847,1.4858663069661862,0
848,1.518017409419056,0
849,1.513130249109496,0
850,1.5166635985034256,0
851,1.4972778770416537,0
852,1.473211906815426,0
853,1.4767800961675581,0
854,1.4751921176826566,0
855,1.464013610186486,0
856,1.4709730556006317,0
857,1.4573988462285408,0
858,1.4368507685702105,0
859,1.4613427836237833,0
860,1.474548698556863,0
861,1.4669900350699734,0
862,1.475792002573456,0
863,1.4719273440520095,0
864,1.4858385478873344,0
865,1.480944910444112,0
866,1.5057138210675622,0
867,1.4942463748112176,0
868,1.4883247429231814,0
869,1.5167613864513547,0
870,1.5232109651536752,0
871,1.5320790643008486,0
872,1.5308098575322988,0
873,1.5324923985165426,0
874,1.546214903497947,0
875,1.5552958212904928,0
876,1.541871855615967,0
877,1.5534683095292372,0
878,1.5421755840491687,0
879,1.539766268006309,0
880,1.5434608873231186,0
881,1.55350979160334,0
882,1.545635071277359,0
883,1.571042920304596,0
884,1.5592250982475895,0
885,1.556869981396438,0
886,1.5588604618040505,0
887,1.5681530470229248,0
888,1.5672493426009055,0
889,1.5875797508292104,0
890,1.5862966386471886,0
891,1.5975922723404226,0
892,1.5889194108612243,0
893,1.5990847329481614,0
894,1.6058025440247374,0
895,1.5880533457311488,0
896,1.6076165865350505,0
897,1.6013744884236307,0
898,1.6114945798297018,0
899,1.6612785790753761,0
900,1.8236247743467562,0
901,2.072383266692161,0
902,2.4853995652382856,0
903,3.106861515412385,0
904,3.879687541602941,0
905,4.9090425050864175,0
906,5.9647971854488535,0
907,7.013993399457775,0
908,7.923544530533192,0
909,8.501364924903871,0
910,8.577581522431624,0
911,8.059524856411546,0
912,6.9347462602577545,0
913,5.4158187433741425,0
914,3.6259828303854476,0
915,1.7793012646586535,0
916,0.1732468046069673,0
917,-0.9270231820143968,0
918,-1.3487825448367359,0
919,-1.1479095626848135,0
920,-0.48361740811041676,0
921,0.5263476468895703,0
922,1.634099674197809,0
923,2.6154112760879005,0
924,3.1932730796154942,0
925,3.313087098829886,0
926,3.101258330549441,0
927,2.634258039092779,0
928,2.069884582769198,0
929,1.548162521439454,0
930,1.1322969078546294,0
931,0.9945877462490519,0
932,1.1200319427859142,0
933,1.351157851510511,0
934,1.6426616718175697,0
935,1.8444894628423358,0
936,2.0398245579171634,0
937,2.1201069549001716,0
938,2.0823318005819367,0
939,1.9468816058137282,0
940,1.824868415051466,0
941,1.72423762503105,0
942,1.6755747602428317,0
943,1.6499741938312202,0
944,1.6540908882394205,0
945,1.7097772593921587,0
946,1.7363131022676372,0
947,1.779527986048215,0
948,1.8053417241774083,0
949,1.809368736647412,0
950,1.794217257650356,0
951,1.783234563766623,0
952,1.7869758474365678,0
953,1.7953311355069002,0
954,1.7923845339538564,0
955,1.7932236695598731,0
956,1.8067948389864652,0
957,1.8124116975069637,0
958,1.827968554933947,0
959,1.8278450815243168,0
960,1.8560667204476842,0
961,1.8443447237253985,0
962,1.8585190210113567,0
963,1.875450005551893,0
964,1.87609028712388,0
965,1.8765375866390552,0
966,1.892856421705304,0
967,1.9166289185843155,0
968,1.906395349805129,0
969,1.9208566456373943,0
970,1.943672861553125,0
971,1.931728086366872,0
972,1.917435683366537,0
973,1.9330746596384663,0
974,1.9435637611015248,0
975,1.9346411352287796,0
976,1.9197895643437293,0
977,1.9172348468001073,0
978,1.9198234629985256,0
979,1.8975312709368712,0
980,1.875691154513531,0
981,1.91296568961546,0
982,1.905913933424102,0
983,1.9218986686395767,0
984,1.9058700373067894,0
985,1.9270946844714296,0
986,1.9243816958450901,0
987,1.9400626933527363,0
988,1.9310294660556384,0
989,1.9581575871786245,0
990,1.9439297117574637,0
991,1.9514337545803095,0
992,1.9460520875410423,0
993,1.9428047634986765,0
994,1.969481752084967,0
995,1.9534504769199488,0
996,1.991798958629137,0
997,1.9598745192134222,0
998,2.0005231428924035,0
999,2.0450032271393375,0
1000,2.205702653916231,0
1001,2.443414921626891,0
1002,2.845736881785292,0
1003,3.449515888978179,0
1004,4.244465527428056,0
1005,5.2425631308849585,0
1006,6.337437790643847,0
1007,7.372069871696615,0
1008,8.276654486136119,0
1009,8.83763202346781,0
1010,8.98457866829936,0
1011,8.453708557222482,0
1012,7.355019144048609,0
1013,5.863201560743908,0
1014,4.091513463501496,0
1015,2.2554356039294525,0
1016,0.6229269823674102,0
1017,-0.5010862767445006,0
1018,-0.9162736353395116,0
1019,-0.745773082824833,0
1020,-0.08158760108635299,0
1021,0.9103750826524406,0
1022,2.0041091201199848,0
1023,2.9602532773726544,0
1024,3.553616586179593,0
1025,3.6632726158815294,0
1026,3.4270646192621603,0
1027,2.957673652165175,0
1028,2.3799432428327574,0
1029,1.8155249920645387,0
1030,1.3973316799710125,0
1031,1.2713897941364705,0
1032,1.356654096340066,0
1033,1.5976548162213589,0
1034,1.910893553197422,0
1035,2.1335901414781557,0
1036,2.338746602190951,0
1037,2.437942009964531,0
1038,2.40191872798976,0
1039,2.2995746105946355,0
1040,2.182786537679794,0
1041,2.0899308890459705,0
1042,2.0288214925401924,0
1043,2.0235377466661526,0
1044,2.041164787176873,0
1045,2.0892975561258678,0
1046,2.1240361264531122,0
1047,2.1561678063736918,0
1048,2.1767934193446115,0
1049,2.1957300823462456,0
1050,2.1764678982386463,0
1051,2.18728002021101,0
1052,2.184596806297101,0
1053,2.1852671350003465,0
1054,2.1781405358683084,0
1055,2.189284208445577,0
1056,2.1956321547697755,0
1057,2.216219659392058,0
1058,2.221100256889316,0
1059,2.2211081718282295,0
1060,2.21430142702571,0
1061,2.2170483101239107,0
1062,2.229173477928502,0
1063,2.2403053442843874,0
1064,2.2428414964036243,0
1065,2.24937929988986,0
1066,2.233222158606544,0
1067,2.2258099792098562,0
1068,2.232277959749163,0
1069,2.226538933261973,0
1070,2.224054090081686,0
1071,2.2323324681322614,0
1072,2.2247782256403026,0
1073,2.247138877216557,0
1074,2.257204682125708,0
1075,2.2496927103993904,0
1076,2.2662295371960766,0
1077,2.2636468077448417,0
1078,2.2981094567730946,0
1079,2.286054567308114,0
1080,2.270505249622874,0
1081,2.2831009228012293,0
1082,2.2738885860082205,0
1083,2.29966387886763,0
1084,2.3039089694706285,0
1085,2.2863264273568014,0
1086,2.309173738276478,0
1087,2.307918813846418,0
1088,2.301404474852948,0
1089,2.3019790577166894,0
1090,2.3401114082216377,0
1091,2.331432762051487,0
1092,2.319550590834654,0
1093,2.3270527299042736,0
1094,2.331609584832332,0
1095,2.318592397173873,0
1096,2.3280804772461536,0
1097,2.3291254128081946,0
1098,2.3461930800807442,0
1099,2.432231608332999,0
1100,2.56227728353759,0
1101,2.793774771560196,0
1102,3.2177045232323533,0
1103,3.822121506034074,0
1104,4.600002007672856,0
1105,5.597876349543364,0
1106,6.673597586774248,0
1107,7.726894743296075,0
1108,8.649075376215068,0
1109,9.24880705922959,0
1110,9.35030999939325,0
1111,8.86724996148756,0
1112,7.785556341009268,0
1113,6.263841215930677,0
1114,4.503153036642151,0
1115,2.624569609809456,0
1116,0.9904258914996205,0
1117,-0.16462528327341985,0
1118,-0.5916769026474391,0
1119,-0.43896862409215176,0
1120,0.219818498722129,0
1121,1.1952095675717223,0
1122,2.2708148034272373,0
1123,3.2633949627608048,0
1124,3.8617893023202465,0
1125,4.001428145984657,0
1126,3.7723441480342896,0
1127,3.3299511590848074,0
1128,2.755653073124094,0
1129,2.2057037709962004,0
1130,1.7852213203085414,0
1131,1.6374608760335942,0
1132,1.7674547548516828,0
1133,1.9905365634451493,0
1134,2.2658680010216727,0
1135,2.5213895576055347,0
1136,2.707148780432755,0
1137,2.7987980731275295,0
1138,2.7568154445534963,0
1139,2.6742248261311112,0
1140,2.5403686715315565,0
1141,2.432636520583821,0
1142,2.384586187629579,0
1143,2.364851156096145,0
1144,2.3741153788735203,0
1145,2.435262744759356,0
1146,2.451412243377771,0
1147,2.5061183167584167,0
1148,2.5179269206703183,0
1149,2.5271059170355303,0
1150,2.528493214092833,0
1151,2.5088037222233495,0
1152,2.498879921024229,0
1153,2.507795582475426,0
1154,2.5054610096168854,0
1155,2.508968142986885,0
1156,2.519391080240026,0
1157,2.508641609775258,0
1158,2.5305113381518054,0
1159,2.514233164952844,0
1160,2.530123661898912,0
1161,2.5082538595664166,0
1162,2.5251168500211816,0
1163,2.525998204819143,0
1164,2.5143318117850177,0
1165,2.528187625932838,0
1166,2.533666642947105,0
1167,2.5490228193229836,0
1168,2.548036604050795,0
1169,2.5679841041723996,0
1170,2.5752839961175704,0
1171,2.578857654345547,0
1172,2.576693609720124,0
1173,2.5927184878551732,0
1174,2.6040579630106486,0
1175,2.5910399342997845,0
1176,2.6217716085018865,0
1177,2.612044272603015,0
1178,2.6151102759834624,0
1179,2.637215432191608,0
1180,2.629031137701545,0
1181,2.6376370116257033,0
1182,2.6380302619052247,0
1183,2.6302042356769038,0
1184,2.6351445275278143,0
1185,2.6225786280474073,0
1186,2.623890399965203,0
1187,2.608978589810151,0
1188,2.607134632103347,0
1189,2.610369909646381,0
1190,2.6048325546568147,0
1191,2.5821366046061707,0
1192,2.6115316756786147,0
1193,2.616613951614127,0
1194,2.6090220456340147,0
1195,2.6089119109768895,0
1196,2.598522128636585,0
1197,2.629511977999391,0
1198,2.6342631907429253,0
1199,2.712273208122328,0
1200,2.857162442953266,0
1201,3.101045694648464,0
1202,3.4921177616754253,0
1203,4.058633080632246,0
1204,4.8507387255433425,0
1205,5.861343126394269,0
1206,6.922244708817107,0
1207,8.0122069990512,0
1208,8.90028138229632,0
1209,9.504368095185935,0
1210,9.604159291628033,0
1211,9.126865416747327,0
1212,8.050837347883004,0
1213,6.576179100853517,0
1214,4.788037771401299,0
1215,2.939741286320781,0
1216,1.311817190315986,0
1217,0.1666838941867148,0
1218,-0.2921198872665176,0
1219,-0.146645918664829,0
1220,0.4978607378902429,0
1221,1.4713416795254826,0
1222,2.582291840971179,0
1223,3.5636250532477005,0
1224,4.182249869528801,0
1225,4.30311353601847,0
1226,4.100179745316197,0
1227,3.6304209184075287,0
1228,3.0540403487338526,0
1229,2.498345265202996,0
1230,2.0851291970691785,0
1231,1.9345442014565521,0
1232,2.0053954688212645,0
1233,2.250500879036533,0
1234,2.545656207410742,0
1235,2.76663062242205,0
1236,2.9668891124806738,0
1237,3.0736681501569154,0
1238,3.0289875953961687,0
1239,2.9119325830061484,0
1240,2.7986968808056814,0
1241,2.718900213737863,0
1242,2.640048155011541,0
1243,2.619011642562387,0
1244,2.648250257718313,0
1245,2.693191227150781,0
1246,2.7259431254967774,0
1247,2.7847516513846267,0
1248,2.790845562053056,0
1249,2.820284482514755,0
1250,2.80557267279488,0
1251,2.7949308943424906,0
1252,2.794907009602595,0
1253,2.7818362238285865,0
1254,2.7940407460530037,0
1255,2.7958252213234567,0
1256,2.7965100031367496,0
1257,2.7962359278630506,0
1258,2.82875492848611,0
1259,2.802959496574049,0
1260,2.8130058431440554,0
1261,2.797051449806583,0
1262,2.8208704033749035,0
1263,2.8297073953129144,0
1264,2.8400072288128007,0
1265,2.835416540557105,0
1266,2.8291982328460668,0
1267,2.834760401689642,0
1268,2.836079513388264,0
1269,2.863869435697956,0
1270,2.836455806158597,0
1271,2.836712530718015,0
1272,2.860082259152301,0
1273,2.845566180383209,0
1274,2.83921276461791,0
1275,2.844838425577439,0
1276,2.8753031774370976,0
1277,2.862542567594101,0
1278,2.858787497119166,0
1279,2.8649560292169274,0
1280,2.8544192275427713,0
1281,2.8675031271768643,0
1282,2.860389163801508,0
1283,2.887966731596389,0
1284,2.885276290968727,0
1285,2.883770575230107,0
1286,2.9079816231163926,0
1287,2.901391276120704,0
1288,2.9064356101195004,0
1289,2.9179930112700108,0
1290,2.9141794374800964,0
1291,2.934993803543014,0
1292,2.9286737983822344,0
1293,2.914128666970969,0
1294,2.9320411744399335,0
1295,2.933686257173184,0
1296,2.9329519425546002,0
1297,2.943833201875898,0
1298,2.963184402048761,0
1299,3.0076913690600375,0
1300,3.1493922176893143,0
1301,3.3863939470979045,0
1302,3.7702260669592653,0
1303,4.350014152540279,0
1304,5.1444363099730985,0
1305,6.101998325381335,0
1306,7.194111257531153,0
1307,8.237044110172333,0
1308,9.1533463475636,0
1309,9.762183285090302,0
1310,9.906820629731964,0
1311,9.427440748704297,0
1312,8.356374130322292,0
1313,6.892356599397393,0
1314,5.116537631132468,0
1315,3.2603858363296183,0
1316,1.616252424891648,0
1317,0.4367522469352023,0
1318,-0.02436268826277521,0
1319,0.10828773234793942,0
1320,0.7615505092745294,0
1321,1.717174311062714,0
1322,2.8140035967215784,0
1323,3.7973717893207857,0
1324,4.430558997158318,0
1325,4.572896122364445,0
1326,4.367027686747952,0
1327,3.929002343834897,0
1328,3.3322464568556844,0
1329,2.776507407365329,0
1330,2.362075555035555,0
1331,2.2054983310649083,0
1332,2.2954709239143183,0
1333,2.5440598631169355,0
1334,2.8274785338795834,0
1335,3.081337410582169,0
1336,3.2698369937143017,0
1337,3.3606400662738936,0
1338,3.3463977330578083,0
1339,3.223190921275912,0
1340,3.104295776943297,0
1341,2.999091000965542,0
1342,2.9447084108375403,0
1343,2.9261485976048185,0
1344,2.9292203236627437,0
1345,2.9640971306498707,0
1346,2.9929370033978255,0
1347,3.034256335526706,0
1348,3.063122326856257,0
1349,3.0527149808477643,0
1350,3.0566562027775763,0
1351,3.0422890851836275,0
1352,3.0376183200058415,0
1353,3.0332633026033125,0
1354,3.034729998386338,0
1355,3.0473501869392874,0
1356,3.059561337715693,0
1357,3.054359433487411,0
1358,3.0840713535581368,0
1359,3.0704164378924523,0
1360,3.1054232712056073,0
1361,3.0750201246122044,0
1362,3.0955810160452946,0
1363,3.1150765762701007,0
1364,3.1174817710849223,0
1365,3.1121291577441825,0
1366,3.116195062569758,0
1367,3.1243206854239487,0
1368,3.131319441447514,0
1369,3.1256270973440903,0
1370,3.144928101283674,0
1371,3.1286722577318633,0
1372,3.1252824444986103,0
1373,3.1120871384083792,0
1374,3.121473478031237,0
1375,3.1435268870611344,0
1376,3.1243428991305215,0
1377,3.1230349347543624,0
1378,3.1474615109032547,0
1379,3.1399587440711363,0
1380,3.137049092663937,0
1381,3.138879187122013,0
1382,3.145620500658801,0
1383,3.1312142559320586,0
1384,3.1395827461221923,0
1385,3.1610321316494265,0
1386,3.1463412594004816,0
1387,3.1409123210000596,0
1388,3.1646413019984365,0
1389,3.163033762372925,0
1390,3.1556551603546037,0
1391,3.1787530024921895,0
1392,3.1628368304340007,0
1393,3.1698475878302363,0
1394,3.1531540934015814,0
1395,3.1655393864557424,0
1396,3.1631738626160413,0
1397,3.164697586752493,0
1398,3.162149241621098,0
1399,3.220849725313342,0
1400,3.3665988312479302,0
1401,3.5887935691774784,0
1402,3.9732812717274286,0
1403,4.511347119373764,0
1404,5.307059482175129,0
1405,6.291459726906826,0
1406,7.356895593333795,0
1407,8.415189051602209,0
1408,9.345905525014722,0
1409,9.945329903204023,0
1410,10.114155796747456,0
1411,9.631451768070432,0
1412,8.58034301051119,0
1413,7.08685806599269,0
1414,5.316631507233698,0
1415,3.480160258232538,0
1416,1.8262771075397835,0
1417,0.6416525473839387,0
1418,0.16680463279178426,0
1419,0.2985198004177865,0
1420,0.9237467688040182,0
1421,1.8789540860014626,0
1422,2.9920108938876964,0
1423,3.9953874668199654,0
1424,4.603005488012462,0
1425,4.790970876297616,0
1426,4.57976626623706,0
1427,4.144679405552809,0
1428,3.60214831587272,0
1429,3.0369753527101175,0
1430,2.6266113158932822,0
1431,2.4733506058544044,0
1432,2.5589320513169556,0
1433,2.7832964058128002,0
1434,3.0675787099958947,0
1435,3.326495231457847,0
1436,3.5047089732039836,0
1437,3.5983520969295952,0
1438,3.560650773112022,0
1439,3.491913043355089,0
1440,3.3518966041893576,0
1441,3.2371158026080105,0
1442,3.153386447806365,0
1443,3.140914448823382,0
1444,3.1667933248039266,0
1445,3.2038508930222203,0
1446,3.2217073048507325,0
1447,3.2830614712396153,0
1448,3.2940634257155805,0
1449,3.2860016446131977,0
1450,3.2871152087932525,0
1451,3.275561322566112,0
1452,3.2354842439589406,0
1453,3.257072121970496,0
1454,3.2458151274166687,0
1455,3.2538097611147165,0
1456,3.275798500746656,0
1457,3.2711178912081715,0
1458,3.260503733150491,0
1459,3.2663174371151094,0
1460,3.267375749762858,0
1461,3.3041039176623794,0
1462,3.28422002178742,0
1463,3.3169755621876456,0
1464,3.3092331207013475,0
1465,3.308417325444882,0
1466,3.3389712435323333,0
1467,3.353921339358495,0
1468,3.357232245867115,0
1469,3.3779673544617927,0
1470,3.367719145522157,0
1471,3.37752560275732,0
1472,3.379447285044444,0
1473,3.3726854953990086,0
1474,3.3911541847809543,0
1475,3.3932016882121725,0
1476,3.4232095554688367,0
1477,3.375897955480001,0
1478,3.389061510077702,0
1479,3.388748753710878,0
1480,3.4053420411676796,0
1481,3.380193047077707,0
1482,3.3854062660137068,0
1483,3.389308409656341,0
1484,3.4047843747457094,0
1485,3.384009781699641,0
1486,3.3951768952409513,0
1487,3.3902791192678787,0
1488,3.3741934080856613,0
1489,3.3950431823743585,0
1490,3.3957860091297283,0
1491,3.3908534456411816,0
1492,3.404242157362653,0
1493,3.406085934448606,0
1494,3.4359289804584767,0
1495,3.440145362304804,0
1496,3.4523108349768488,0
1497,3.4536326483367885,0
1498,3.463910602116966,0
1499,3.552742056880804,0
1500,3.6825125513883146,0
1501,3.92586426827883,0
1502,4.283685352954713,0
1503,4.868359957781345,0
1504,5.610683892660301,0
1505,6.5744377539377155,0
1506,7.618807900403212,0
1507,8.701034654367541,0
1508,9.588148671782255,0
1509,10.205332720010503,0
1510,10.371395945391335,0
1511,9.91862776490651,0
1512,8.867859263381185,0
1513,7.407278958195727,0
1514,5.669126001567241,0
1515,3.805580603322891,0
1516,2.123422043286265,0
1517,0.9651282997676938,0
1518,0.45880504918133536,0
1519,0.5952919716861325,0
1520,1.2190008190537882,0
1521,2.1729456939468506,0
1522,3.291656210905831,0
1523,4.291184030935317,0
1524,4.956899799473217,0
1525,5.143302679055261,0
1526,4.9438770039131565,0
1527,4.510684852335849,0
1528,3.9627108274310183,0
1529,3.4099579074098223,0
1530,2.96705597196616,0
1531,2.804309057290684,0
1532,2.872816461586753,0
1533,3.090702281704731,0
1534,3.357850936448375,0
1535,3.620700587031366,0
1536,3.790591746356903,0
1537,3.853035000312701,0
1538,3.8373261553806417,0
1539,3.7335157077681496,0
1540,3.604833233259748,0
1541,3.482916506795178,0
1542,3.439717624954574,0
1543,3.402486305666743,0
1544,3.442370741601806,0
1545,3.4800527596554423,0
1546,3.534685595402417,0
1547,3.5743611648769127,0
1548,3.619210487613278,0
1549,3.6187948602086775,0
1550,3.6280660853308633,0
1551,3.626212456217216,0
1552,3.621398911660708,0
1553,3.631963933354981,0
1554,3.6398831360842085,0
1555,3.627171129661422,0
1556,3.625334413325183,0
1557,3.610649011847318,0
1558,3.6145536993190115,0
1559,3.6117945768518043,0
1560,3.6120203543977194,0
1561,3.6209394083240376,0
1562,3.5948260675214363,0
1563,3.601679996947607,0
1564,3.5856562188476646,0
1565,3.5865089132345553,0
1566,3.5977600269007546,0
1567,3.5738255729179116,0
1568,3.578081106899341,0
1569,3.5738513269320538,0
1570,3.593231291729587,0
1571,3.5785352614671995,0
1572,3.5693162737859483,0
1573,3.598669010651676,0
1574,3.6140718443010313,0
1575,3.5894674855061863,0
1576,3.625841809262236,0
1577,3.620066517152486,0
1578,3.6042796196719227,0
1579,3.605565964272786,0
1580,3.6244224612239013,0
1581,3.6479121279562188,0
1582,3.6602834868442757,0
1583,3.6353870672762283,0
1584,3.6582448655758126,0
1585,3.6647879103545637,0
1586,3.6832963647649675,0
1587,3.6713626917009403,0
1588,3.689705543087833,0
1589,3.6835943778750906,0
1590,3.6773732678564026,0
1591,3.6818074354997345,0
1592,3.686710736381836,0
1593,3.6667218400346226,0
1594,3.6944310786541514,0
1595,3.673016134870161,0
1596,3.6745221490073217,0
1597,3.682696082583632,0
1598,3.7040594437933825,0
1599,3.76298333245101,0
1600,3.9001840457677264,0
1601,4.118394864412983,0
1602,4.503614800270651,0
1603,5.064481586227971,0
1604,5.8399079730349195,0
1605,6.800481111422608,0
1606,7.891373507584936,0
1607,8.937382734638073,0
1608,9.855656499927026,0
1609,10.501099158677917,0
1610,10.680519085184415,0
1611,10.263004477594697,0
1612,9.231590437956758,0
1613,7.766861787662679,0
1614,6.009866485284821,0
1615,4.162703298133048,0
1616,2.490597268412232,0
1617,1.295314806427304,0
1618,0.7793515721523159,0
1619,0.8768222908106531,0
1620,1.4656829694549782,0
1621,2.4282566207148006,0
1622,3.518639059133111,0
1623,4.519332596751152,0
1624,5.149207579545944,0
1625,5.340301827947575,0
1626,5.129698225283734,0
1627,4.699685960773772,0
1628,4.101375562877687,0
1629,3.53409833796307,0
1630,3.115091983901129,0
1631,2.9255240640962477,0
1632,3.0066892392241265,0
1633,3.2420450365325553,0
1634,3.512048025496998,0
1635,3.7961434001392567,0
1636,3.968199253202209,0
1637,4.060633408410186,0
1638,4.060306043336641,0
1639,3.9659155780613817,0
1640,3.8460734763057274,0
1641,3.762245293029633,0
1642,3.6926259460758604,0
1643,3.6841124094071422,0
1644,3.718314037242117,0
1645,3.7501064000751816,0
1646,3.816695710562724,0
1647,3.867048812575184,0
1648,3.8916934325657064,0
1649,3.8862562623110666,0
1650,3.8877209284507246,0
1651,3.864068795371582,0
1652,3.870432884412883,0
1653,3.854126361921124,0
1654,3.834516585647027,0
1655,3.8483182259648436,0
1656,3.8389728040512163,0
1657,3.8272938915269608,0
1658,3.8094726798602307,0
1659,3.8157829489798587,0
1660,3.7949063593040964,0
1661,3.7974990900310797,0
1662,3.7912302779342966,0
1663,3.783388357926511,0
1664,3.8040043854519903,0
1665,3.7925697823934623,0
1666,3.8110723315292407,0
1667,3.8101017115830986,0
1668,3.812237105657873,0
1669,3.8278876657714296,0
1670,3.8172048781962324,0
1671,3.838420296174355,0
1672,3.862137926287318,0
1673,3.840863905754938,0
1674,3.8624162610521147,0
1675,3.840737860708386,0
1676,3.8470964658097517,0
1677,3.8431169884377474,0
1678,3.817385203769893,0
1679,3.826374902824485,0
1680,3.8286987956509377,0
1681,3.8114964876656057,0
1682,3.813843868388374,0
1683,3.7903175517582426,0
1684,3.802097128023683,0
1685,3.8049448893530675,0
1686,3.816102691105703,0
1687,3.8034039490422957,0
1688,3.7924488982696625,0
1689,3.80494350262654,0
1690,3.817970957340549,0
1691,3.825489465007411,0
1692,3.834140385243177,0
1693,3.821055790743247,0
1694,3.831956812386197,0
1695,3.8397320919536693,0
1696,3.8578862772860463,0
1697,3.83223471097139,0
1698,3.8629076429372495,0
1699,3.914582898002681,0
1700,4.0501153520006765,0
1701,4.255334519876542,0
1702,4.6606077044727545,0
1703,5.195185765501238,0
1704,5.9842098849594,0
1705,6.94671857834341,0
1706,8.01340910890813,0
1707,9.05134865883537,0
1708,9.997015349007295,0
1709,10.63905605202772,0
1710,10.84290080702133,0
1711,10.407375522611956,0
1712,9.421088033880725,0
1713,7.956865902829293,0
1714,6.1943634487001225,0
1715,4.341359512070455,0
1716,2.666473432607872,0
1717,1.4291949648042275,0
1718,0.8937888057767669,0
1719,1.0043255040633237,0
1720,1.5944210937794967,0
1721,2.5371317202548744,0
1722,3.6439134393181813,0
1723,4.6350277309218475,0
1724,5.2959658989498415,0
1725,5.479836616538099,0
1726,5.30377561207663,0
1727,4.868341209558443,0
1728,4.294774963020843,0
1729,3.7160508035924544,0
1730,3.2890925138494698,0
1731,3.1174597882518906,0
1732,3.1829105339165222,0
1733,3.4145396329844053,0
1734,3.7080122449402486,0
1735,3.945879066369725,0
1736,4.121010771635448,0
1737,4.242596484445179,0
1738,4.232140346281031,0
1739,4.128800445700072,0
1740,4.03795032011062,0
1741,3.916052351737356,0
1742,3.858088521589632,0
1743,3.8524202617117638,0
1744,3.863117564364088,0
1745,3.907695738826574,0
1746,3.960324708056438,0
1747,3.9884611423016705,0
1748,4.019951563978304,0
1749,4.030841144225786,0
1750,4.024594857716974,0
1751,4.020872246734343,0
1752,4.01663460749887,0
1753,4.012491288232922,0
1754,4.015594613404545,0
1755,4.010908855884066,0
1756,4.001072420550213,0
1757,4.0055873710308045,0
1758,3.999837909232758,0
1759,4.009276033199253,0
1760,4.0202572448741085,0
1761,3.992380956530624,0
1762,3.9924595598566563,0
1763,4.008741804003458,0
1764,3.986468427862254,0
1765,4.004627730159362,0
1766,3.97735308196883,0
1767,3.9887113740873734,0
1768,3.987154659024054,0
1769,3.993671515095858,0
1770,4.007670287281596,0
1771,3.999754337454423,0
1772,3.995329327559143,0
1773,4.0044115700517935,0
1774,4.0348775696563015,0
1775,4.0143161763793955,0
1776,4.007726787726081,0
1777,4.030991274939315,0
1778,4.006692547418602,0
1779,4.033137862969043,0
1780,4.031990905665271,0
1781,4.026835763015469,0
1782,4.047407016398855,0
1783,4.040131470203279,0
1784,4.034055079226214,0
1785,4.039791281903527,0
1786,4.026180785287815,0
1787,4.030151551679975,0
1788,4.031551761956818,0
1789,4.036462450358412,0
1790,4.019812456288043,0
1791,4.02321401047961,0
1792,4.011593844989009,0
1793,4.028737435583854,0
1794,4.009207316315183,0
1795,4.008684554881781,0
1796,4.017893581256105,0
1797,4.003624319610018,0
1798,4.005615107429117,0
1799,4.059572843056745,0
1800,4.200245721739112,0
1801,4.440227798120989,0
1802,4.818219724255859,0
1803,5.3480636717576875,0
1804,6.126953393129309,0
1805,7.087587768308577,0
1806,8.158713086708165,0
1807,9.228760479574088,0
1808,10.205929879173691,0
1809,10.848585041893223,0
1810,11.075613129789119,0
1811,10.668053084488143,0
1812,9.693543360782597,0
1813,8.235619820758332,0
1814,6.494867787921217,0
1815,4.646764589768524,0
1816,2.957699398672874,0
1817,1.7316293205357716,0
1818,1.1685305328567357,0
1819,1.2417607502408394,0
1820,1.8200739651641613,0
1821,2.7464856342991215,0
1822,3.8707050802654788,0
1823,4.869850718902895,0
1824,5.529978398779992,0
1825,5.734646020560163,0
1826,5.55570992212281,0
1827,5.13883142444638,0
1828,4.555195898720845,0
1829,3.995018181505782,0
1830,3.5371128579084035,0
1831,3.3491689314139412,0
1832,3.4357575847791755,0
1833,3.6308126721621843,0
1834,3.9394207963359946,0
1835,4.201976402349705,0
1836,4.38900094077333,0
1837,4.521670029739953,0
1838,4.513304679653548,0
1839,4.423441097389787,0
1840,4.296562916674546,0
1841,4.195923876575028,0
1842,4.131896857498319,0
1843,4.0839267686502545,0
1844,4.121671244667437,0
1845,4.157055968869714,0
1846,4.201611046751053,0
1847,4.228388974414781,0
1848,4.257912962682484,0
1849,4.229687913656801,0
1850,4.235736417406779,0
1851,4.219888685718692,0
1852,4.22416083099088,0
1853,4.214603326098678,0
1854,4.197568025379211,0
1855,4.202750477407512,0
1856,4.211981027248179,0
1857,4.195346133286303,0
1858,4.222886367983858,0
1859,4.239910255581101,0
1860,4.201618630420113,0
1861,4.219627893237906,0
1862,4.213821636464813,0
1863,4.226951248806453,0
1864,4.243856534095398,0
1865,4.235099852308354,0
1866,4.2391172214247925,0
1867,4.246321276211858,0
1868,4.25456019160918,0
1869,4.264964204264702,0
1870,4.255471107824172,0
1871,4.248533780318558,0
1872,4.270625903062206,0
1873,4.270436704325527,0
1874,4.2815967135502575,0
1875,4.278262240619072,0
1876,4.29585117417983,0
1877,4.2696650045918085,0
1878,4.286928040145573,0
1879,4.291353524356865,0
1880,4.309383842704269,0
1881,4.293242384258715,0
1882,4.302849594356894,0
1883,4.320095450654807,0
1884,4.3179136247016565,0
1885,4.313100570144473,0
1886,4.32563633853976,0
1887,4.290562272444457,0
1888,4.31511539552376,0
1889,4.285565590718902,0
1890,4.3105278159319695,0
1891,4.304958872750581,0
1892,4.30364342537728,0
1893,4.285150883947018,0
1894,4.307609493475766,0
1895,4.287162907356227,0
1896,4.293576445193343,0
1897,4.292710243321876,0
1898,4.300865513188884,0
1899,4.370415827332669,0
1900,4.482157011667363,0
1901,4.7309000380585555,0
1902,5.077307062900216,0
1903,5.625695759619627,0
1904,6.378948622979099,0
1905,7.35791849584294,0
1906,8.441211029265553,0
1907,9.4944636660765,0
1908,10.437100434397589,0
1909,11.108869384008461,0
1910,11.310233626446653,0
1911,10.913396301954377,0
1912,9.943343521328881,0
1913,8.523192372543079,0
1914,6.768541256532042,0
1915,4.9070741213717435,0
1916,3.20062753773013,0
1917,1.9664257679781554,0
1918,1.3945193196591,0
1919,1.4647956716020678,0
1920,2.050984485645569,0
1921,2.9711951780982826,0
1922,4.068504678350347,0
1923,5.093559586058207,0
1924,5.774735284565279,0
1925,5.968981156554906,0
1926,5.8133536799517636,0
1927,5.406465377318169,0
1928,4.830573063966108,0
1929,4.28111743288972,0
1930,3.818950280278434,0
1931,3.6273094328292026,0
1932,3.690948797424938,0
1933,3.9172837914719008,0
1934,4.196651255287815,0
1935,4.462335449996825,0
1936,4.6257550487873775,0
1937,4.751832544783424,0
1938,4.753015465316951,0
1939,4.6601942835688615,0
1940,4.53076408636995,0
1941,4.3988953323246776,0
1942,4.347367437303276,0
1943,4.308832575704485,0
1944,4.326311205366183,0
1945,4.374315996306678,0
1946,4.424032415470386,0
1947,4.4336667051145815,0
1948,4.486328960726566,0
1949,4.485825278288593,0
1950,4.489589742711064,0
1951,4.460455705287881,0
1952,4.454698065744002,0
1953,4.442826045105402,0
1954,4.460042016912282,0
1955,4.4468929441779395,0
1956,4.457376946959297,0
1957,4.468862373917141,0
1958,4.470432334799209,0
1959,4.458511612485142,0
1960,4.473158791249815,0
1961,4.479173575844478,0
1962,4.495807353462002,0
1963,4.487019760316053,0
1964,4.48668382438045,0
1965,4.488781072506981,0
1966,4.479683687533084,0
1967,4.472943509126798,0
1968,4.467272193633166,0
1969,4.486296342073331,0
1970,4.490276533034723,0
1971,4.5038332507675705,0
1972,4.524425576295003,0
1973,4.500421831776523,0
1974,4.488237310983912,0
1975,4.509559578077844,0
1976,4.5246449209344295,0
1977,4.524734022742153,0
1978,4.51046223682058,0
1979,4.557362178754264,0
1980,4.561527426588281,0
1981,4.564047528471139,0
1982,4.553423113039405,0
1983,4.5684574724123035,0
1984,4.554475179675062,0
1985,4.551506147600135,0
1986,4.569216923777217,0
1987,4.535872347903811,0
1988,4.566193270531933,0
1989,4.5681476852939245,0
1990,4.555801897044713,0
1991,4.554032321244255,0
1992,4.5584759807433,0
1993,4.550989943339585,0
1994,4.5483895640360466,0
1995,4.568973712525563,0
1996,4.553053298471421,0
1997,4.53987624141578,0
1998,4.56858067261418,0
1999,4.619568347618492,0
2000,4.742348566186226,0
2001,4.964887343231439,0
2002,5.334285928315365,0
2003,5.866400275126077,0
2004,6.608488883828985,0
2005,7.567042472478846,0
2006,8.643582791385933,0
2007,9.70311901165238,0
2008,10.646906309124653,0
2009,11.34326011199187,0
2010,11.56690375618955,0
2011,11.205526238033563,0
2012,10.227135051075717,0
2013,8.810300055011204,0
2014,7.074505154827042,0
2015,5.2342182184655055,0
2016,3.527424036476212,0
2017,2.2786316674641247,0
2018,1.7021969607495864,0
2019,1.7332035316763164,0
2020,2.3209141100616746,0
2021,3.2379453299128205,0
2022,4.332920957494168,0
2023,5.387311153839879,0
2024,6.056229154101169,0
2025,6.279985197436067,0
2026,6.097122508002454,0
2027,5.672242130105005,0
2028,5.110840396831075,0
2029,4.52246924793496,0
2030,4.054367554547084,0
2031,3.8543897923247474,0
2032,3.9162642469695443,0
2033,4.121958117903591,0
2034,4.4159071166208745,0
2035,4.670214155888718,0
2036,4.8877960812517,0
2037,4.99275628412096,0
2038,4.986936460886109,0
2039,4.89276838997565,0
2040,4.741397972435691,0
2041,4.655842988679605,0
2042,4.589214593170343,0
2043,4.534905986312382,0
2044,4.5972996094962495,0
2045,4.618609245250771,0
2046,4.68045279482752,0
2047,4.6952885897340275,0
2048,4.733452098453386,0
2049,4.7093635996393655,0
2050,4.728788481376347,0
2051,4.7061523022080936,0
2052,4.70055992587467,0
2053,4.708082814814542,0
2054,4.701856024668346,0
2055,4.700245903426681,0
2056,4.718862901139301,0
2057,4.722820992150314,0
2058,4.712151332271344,0
2059,4.7058527519120155,0
2060,4.71501793038916,0
2061,4.7371755859060025,0
2062,4.730784883827428,0
2063,4.714890239794879,0
2064,4.731201554361904,0
2065,4.723205382142352,0
2066,4.719816032817821,0
2067,4.753005521190939,0
2068,4.740401671229881,0
2069,4.7543031163739,0
2070,4.753183534063663,0
2071,4.754547749741705,0
2072,4.7528825684722475,0
2073,4.75038783457451,0
2074,4.763148670747136,0
2075,4.775203275503675,0
2076,4.7591770790349015,0
2077,4.768538861031627,0
2078,4.766454696978264,0
2079,4.780215323938052,0
2080,4.765901379669598,0
2081,4.757062724441196,0
2082,4.785995075173759,0
2083,4.7771479834209885,0
2084,4.781337260012302,0
2085,4.781659202160893,0
2086,4.791635447520659,0
2087,4.788239988730571,0
2088,4.7846101369074665,0
2089,4.805070149738347,0
2090,4.825670418510459,0
2091,4.814118245326425,0
2092,4.8195550070053175,0
2093,4.808328201629142,0
2094,4.816509919929186,0
2095,4.8301958374708445,0
2096,4.824791170366527,0
2097,4.843272433442861,0
2098,4.839095565366266,0
2099,4.901930098454658,0
2100,5.0293897103933976,0
2101,5.25913699532793,0
2102,5.590693870300073,0
2103,6.151642702789061,0
2104,6.865612661377105,0
2105,7.841236396157058,0
2106,8.88136694440389,0
2107,9.973775159665202,0
2108,10.907851396123984,0
2109,11.584388602524205,0
2110,11.823088452052374,0
2111,11.442246555613426,0
2112,10.489424724269519,0
2113,9.055526145375861,0
2114,7.343926614270765,0
2115,5.477384906351814,0
2116,3.771185278068846,0
2117,2.5007790455055474,0
2118,1.8952050559099085,0
2119,1.938473089923026,0
2120,2.4870177818562573,0
2121,3.4037598016185324,0
2122,4.49393111525037,0
2123,5.536134977816966,0
2124,6.23037322413794,0
2125,6.479383707973767,0
2126,6.314775848381587,0
2127,5.8945628754169,0
2128,5.334676089902339,0
2129,4.777919758811217,0
2130,4.306237308674744,0
2131,4.092993919791767,0
2132,4.130300473448103,0
2133,4.357641994198449,0
2134,4.599704461088113,0
2135,4.876804607427096,0
2136,5.087463036716082,0
2137,5.165441481269707,0
2138,5.187112161015429,0
2139,5.054307233686491,0
2140,4.934993276186015,0
2141,4.830476622181094,0
2142,4.78202484295205,0
2143,4.761563212502767,0
2144,4.770021540662899,0
2145,4.805296579175434,0
2146,4.863435083963995,0
2147,4.90124437334552,0
2148,4.939167367398691,0
2149,4.963530655850961,0
2150,4.9212429100862085,0
2151,4.960200634808,0
2152,4.942529611396453,0
2153,4.936311095359286,0
2154,4.947728068773914,0
2155,4.944259716885728,0
2156,4.913849039902223,0
2157,4.935297837515852,0
2158,4.927421920923141,0
2159,4.931758782219252,0
2160,4.931935963773532,0
2161,4.926098644722858,0
2162,4.928549300467651,0
2163,4.908478366773985,0
2164,4.908603881325364,0
2165,4.926356586770012,0
2166,4.919999601439035,0
2167,4.91075529125828,0
2168,4.916843589753357,0
2169,4.925245564010293,0
2170,4.925549798540683,0
2171,4.942526583875188,0
2172,4.948308144555002,0
2173,4.966063183950648,0
2174,4.970457124163578,0
2175,4.965959275305959,0
2176,4.976314637634568,0
2177,4.986278175804288,0
2178,4.994559389965882,0
2179,5.005877813464479,0
2180,4.979288679846998,0
2181,5.026012369956347,0
2182,4.992561403146993,0
2183,5.015306223834216,0
2184,4.98196535110685,0
2185,4.979335585058108,0
2186,4.9714565916434985,0
2187,4.961610692487224,0
2188,4.96347556722304,0
2189,4.956009163636979,0
2190,4.945738357882444,0
2191,4.944711722867955,0
2192,4.954320796896312,0
2193,4.93570962119955,0
2194,4.9301521079309225,0
2195,4.968873530178081,0
2196,4.938583017356444,0
2197,4.952038418465314,0
2198,4.9674282674092005,0
2199,5.029642888893901,0
2200,5.143130135620423,0
2201,5.370560361706463,0
2202,5.706999500803858,0
2203,6.232196985908844,0
2204,6.967100074062944,0
2205,7.926823751643723,0
2206,8.975885813214978,0
2207,10.06419058685271,0
2208,11.003872806884793,0
2209,11.708908396214568,0
2210,11.946746765703619,0
2211,11.616663708852423,0
2212,10.639328196118296,0
2213,9.237243836694802,0
2214,7.501043144536927,0
2215,5.650282091892009,0
2216,3.954333547780437,0
2217,2.6449515525231986,0
2218,2.032792676523195,0
2219,2.079835696729756,0
2220,2.6179577831682272,0
2221,3.5257001739099074,0
2222,4.609971783584305,0
2223,5.661750611827593,0
2224,6.37253762199845,0
2225,6.608582295757492,0
2226,6.461464596650576,0
2227,6.032508039778364,0
2228,5.481518588494641,0
2229,4.9253387490106295,0
2230,4.45522662482859,0
2231,4.245933437250098,0
2232,4.277475061203044,0
2233,4.485473933689172,0
2234,4.759215233487402,0
2235,5.017179200926958,0
2236,5.216562536578715,0
2237,5.337013873059336,0
2238,5.323327376508169,0
2239,5.244700374671003,0
2240,5.098027131119299,0
2241,4.99394483275361,0
2242,4.943699409727331,0
2243,4.914639726777593,0
2244,4.926934172097347,0
2245,4.953985337567442,0
2246,4.994759154381558,0
2247,5.0379922580511325,0
2248,5.059924889390823,0
2249,5.08562974233948,0
2250,5.084273019388855,0
2251,5.041560571879983,0
2252,5.065177149440301,0
2253,5.032535244673821,0
2254,5.035370487642011,0
2255,5.026392051375608,0
2256,5.030238859806955,0
2257,5.05239287611226,0
2258,5.046838664504741,0
2259,5.021273542090726,0
2260,5.028635140607038,0
2261,5.0422777817360345,0
2262,5.043819861722806,0
2263,5.061542003913166,0
2264,5.074937102738738,0
2265,5.063461325135615,0
2266,5.075165831088274,0
2267,5.085171240454745,0
2268,5.105596164450389,0
2269,5.111774813614987,0
2270,5.100405388844845,0
2271,5.114457484192996,0
2272,5.121666650202673,0
2273,5.114030107800391,0
2274,5.0794879808210665,0
2275,5.101284510563476,0
2276,5.09146531898803,0
2277,5.080143122662869,0
2278,5.061449595759591,0
2279,5.057160236384257,0
2280,5.052189205517277,0
2281,5.044615986307801,0
2282,5.046281850816485,0
2283,5.044638716413041,0
2284,5.049444687659242,0
2285,5.057090698937653,0
2286,5.092892942293024,0
2287,5.078107073897264,0
2288,5.077824305108291,0
2289,5.113423945218377,0
2290,5.134097994483049,0
2291,5.129463412883017,0
2292,5.141876215687318,0
2293,5.157673249151372,0
2294,5.137910261744298,0
2295,5.162804829481598,0
2296,5.1415285091756715,0
2297,5.138328529596408,0
2298,5.158796684384061,0
2299,5.204844235552819,0
2300,5.2951108530793505,0
2301,5.492483644222294,0
2302,5.853156501435481,0
2303,6.389272022183551,0
2304,7.115598688441668,0
2305,8.06197691904728,0
2306,9.131182216281083,0
2307,10.207763921507535,0
2308,11.144405165945189,0
2309,11.853409790154206,0
2310,12.128660259135701,0
2311,11.803557835859639,0
2312,10.884977429710402,0
2313,9.472121589090584,0
2314,7.769138782685584,0
2315,5.896221433661903,0
2316,4.171496486067253,0
2317,2.869152806959907,0
2318,2.243390600896454,0
2319,2.233626241879434,0
2320,2.76397171774512,0
2321,3.6886925969924036,0
2322,4.774412789310312,0
2323,5.790737335906161,0
2324,6.533821055780745,0
2325,6.7704732111435,0
2326,6.6414705212467675,0
2327,6.225739854862132,0
2328,5.666034260691197,0
2329,5.08979664594538,0
2330,4.625491960621445,0
2331,4.39739458295152,0
2332,4.447453870125923,0
2333,4.657508033744989,0
2334,4.916754715148633,0
2335,5.195161459473229,0
2336,5.411007208076126,0
2337,5.521719959695011,0
2338,5.526862383686837,0
2339,5.453676349775108,0
2340,5.308735244979351,0
2341,5.231266262624188,0
2342,5.164439446677241,0
2343,5.129348120250021,0
2344,5.146642267884128,0
2345,5.1906461246096365,0
2346,5.228244071945134,0
2347,5.271552138635333,0
2348,5.298990812223154,0
2349,5.287455048769236,0
2350,5.310401162311032,0
2351,5.286266190784354,0
2352,5.280722681264571,0
2353,5.277836860780036,0
2354,5.271403386332588,0
2355,5.286529834907301,0
2356,5.280205195788096,0
2357,5.267979277553035,0
2358,5.2868754847976005,0
2359,5.295288571471883,0
2360,5.2808577200146,0
2361,5.292455943112657,0
2362,5.2856281197113555,0
2363,5.2814545005009155,0
2364,5.280806736690866,0
2365,5.288611549044712,0
2366,5.305705960544064,0
2367,5.322113612733796,0
2368,5.3234204700692125,0
2369,5.3253559058406035,0
2370,5.326766517718778,0
2371,5.325105991445576,0
2372,5.339849380798844,0
2373,5.343659278674439,0
2374,5.3406578328607806,0
2375,5.3424573387499334,0
2376,5.332433351662051,0
2377,5.332236224342885,0
2378,5.3255753900074545,0
2379,5.322609584031969,0
2380,5.3320605653985,0
2381,5.318060867179691,0
2382,5.335716002088205,0
2383,5.320021747386734,0
2384,5.311056094133524,0
2385,5.304899299267262,0
2386,5.318606282109174,0
2387,5.297153510467707,0
2388,5.279935453580158,0
2389,5.264144968756234,0
2390,5.259111726020092,0
2391,5.274875231690297,0
2392,5.284990473240787,0
2393,5.290389531339064,0
2394,5.300609771168299,0
2395,5.292010874833401,0
2396,5.298269443716321,0
2397,5.323549933156811,0
2398,5.330749741207512,0
2399,5.3833873951511455,0
2400,5.497021256426537,0
2401,5.7198849992689835,0
2402,6.080947671830361,0
2403,6.5899427372064014,0
2404,7.34598801457104,0
2405,8.30162613701931,0
2406,9.356380449263522,0
2407,10.40865392381296,0
2408,11.363698015771043,0
2409,12.068084014921604,0
2410,12.34061174253541,0
2411,12.027027037505356,0
2412,11.105733166648122,0
2413,9.692663396342265,0
2414,8.00422014112028,0
2415,6.130597552430567,0
2416,4.411715647215147,0
2417,3.090240618815176,0
2418,2.4144745531211296,0
2419,2.4184873882502784,0
2420,2.9630047152871506,0
2421,3.8336362491022955,0
2422,4.921482505450041,0
2423,5.968770655723606,0
2424,6.705639310829896,0
2425,6.968969129005972,0
2426,6.826728181021696,0
2427,6.434413099452149,0
2428,5.884153362152931,0
2429,5.313990931678491,0
2430,4.846525931444501,0
2431,4.610161215285984,0
2432,4.63485014936192,0
2433,4.835947243669823,0
2434,5.120330929999865,0
2435,5.400446489067362,0
2436,5.597784744022846,0
2437,5.723024948746317,0
2438,5.7313546558593975,0
2439,5.649250464855947,0
2440,5.507525064334378,0
2441,5.4199652392504465,0
2442,5.346074792334778,0
2443,5.32513207958307,0
2444,5.3364264547824085,0
2445,5.344820493893014,0
2446,5.404668197769194,0
2447,5.4362386857439,0
2448,5.456673179009058,0
2449,5.472254658103487,0
2450,5.4586478177862565,0
2451,5.451113717090311,0
2452,5.4430017860678,0
2453,5.425268514832587,0
2454,5.425830728716996,0
2455,5.435858447994808,0
2456,5.42904470199912,0
2457,5.448182283738444,0
2458,5.430783656281724,0
2459,5.448885304416607,0
2460,5.4677670894337504,0
2461,5.442870989543958,0
2462,5.45469473368639,0
2463,5.437029444974534,0
2464,5.453063246690621,0
2465,5.4522084130892425,0
2466,5.4488130001345265,0
2467,5.454228448497361,0
2468,5.457789000111821,0
2469,5.481955045384098,0
2470,5.460851157764188,0
2471,5.467231256362657,0
2472,5.471860080792845,0
2473,5.469344315652733,0
2474,5.45352586344642,0
2475,5.463929806636311,0
2476,5.479090121470298,0
2477,5.4717773849699185,0
2478,5.471925514297925,0
2479,5.477754914881136,0
2480,5.481255628530035,0
2481,5.493525204820443,0
2482,5.48305890560334,0
2483,5.483386461178669,0
2484,5.468432741703648,0
2485,5.493392078633341,0
2486,5.472275007950169,0
2487,5.499943408801397,0
2488,5.486926408054561,0
2489,5.500089322019932,0
2490,5.519207145789684,0
2491,5.502099882688002,0
2492,5.501895476377512,0
2493,5.513542431010459,0
2494,5.506262417171024,0
2495,5.492356292745095,0
2496,5.495106050228706,0
2497,5.474295241173292,0
2498,5.495607091328185,0
2499,5.541633256423813,0
2500,5.630199892777254,0
2501,5.851965939329988,0
2502,6.190075069050516,0
2503,6.720491004967148,0
2504,7.441629235539991,0
2505,8.390611252040799,0
2506,9.458611885022545,0
2507,10.538390296992253,0
2508,11.516417645099963,0
2509,12.212718809950164,0
2510,12.53578363543389,0
2511,12.228348380051811,0
2512,11.325746786039362,0
2513,9.94221479340059,0
2514,8.250362504626214,0
2515,6.38668149826281,0
2516,4.623636594930015,0
2517,3.298172364679275,0
2518,2.61806567949645,0
2519,2.595225664632402,0
2520,3.0874942978207778,0
2521,3.9882973308812173,0
2522,5.070900883886372,0
2523,6.107359778411991,0
2524,6.857338774727715,0
2525,7.121736233900548,0
2526,7.004984755430354,0
2527,6.624095156329092,0
2528,6.058335013006797,0
2529,5.491163888460272,0
2530,5.037202629774182,0
2531,4.792634185245369,0
2532,4.815583293174865,0
2533,5.007688380472888,0
2534,5.292719262578326,0
2535,5.567663918054084,0
2536,5.773931547668237,0
2537,5.890540844678693,0
2538,5.897240045388942,0
2539,5.804754017319377,0
2540,5.667689124101597,0
2541,5.56251430271009,0
2542,5.479268151829958,0
2543,5.455378552453083,0
2544,5.46059347113891,0
2545,5.49746326052082,0
2546,5.537731567960933,0
2547,5.585480628056213,0
2548,5.616049061642262,0
2549,5.637279861775757,0
2550,5.618056250384102,0
2551,5.625877112425315,0
2552,5.603153579448324,0
2553,5.619411999388304,0
2554,5.582559559713571,0
2555,5.589804091928784,0
2556,5.617061002928623,0
2557,5.614550111877222,0
2558,5.598442138154565,0
2559,5.6202707627529,0
2560,5.615879103632965,0
2561,5.6026157255258235,0
2562,5.61116288872172,0
2563,5.640760871480275,0
2564,5.6153523410193955,0
2565,5.607365614040581,0
2566,5.616886901744779,0
2567,5.650960776930512,0
2568,5.6229765363859565,0
2569,5.633495542236094,0
2570,5.635036177344845,0
2571,5.627786522034882,0
2572,5.621869601063576,0
2573,5.627747699683182,0
2574,5.619467909665823,0
2575,5.633216478496488,0
2576,5.628008927720169,0
2577,5.629605560811183,0
2578,5.649658180149396,0
2579,5.649883636055582,0
2580,5.6360299810079,0
2581,5.623820657988906,0
2582,5.638212915358756,0
2583,5.634140636826581,0
2584,5.652339038932338,0
2585,5.659158697909068,0
2586,5.633700713174391,0
2587,5.644413418010911,0
2588,5.6471399321672076,0
2589,5.658302130332923,0
2590,5.629621902157934,0
2591,5.6497913086816,0
2592,5.674607013113115,0
2593,5.628181499381353,0
2594,5.650635133384001,0
2595,5.659854322215098,0
2596,5.636362009575186,0
2597,5.637590961759718,0
2598,5.672800067583505,0
2599,5.703558868534418,0
2600,5.813773606378706,0
2601,6.01544751819032,0
2602,6.357232531949748,0
2603,6.874923878551884,0
2604,7.589580544274378,0
2605,8.536917269790239,0
2606,9.594550062306721,0
2607,10.682041347285711,0
2608,11.652885979182964,0
2609,12.392493384188139,0
2610,12.6774670684369,0
2611,12.409402336851839,0
2612,11.529812008400292,0
2613,10.112587035533632,0
2614,8.425589376849285,0
2615,6.585861152551658,0
2616,4.819011974391622,0
2617,3.4718574038580967,0
2618,2.8016272022118973,0
2619,2.7283753144567267,0
2620,3.234644253521066,0
2621,4.112158337141564,0
2622,5.203393473142384,0
2623,6.247083376165241,0
2624,6.9823046203383825,0
2625,7.2699337601371745,0
2626,7.154295598968293,0
2627,6.755103055132305,0
2628,6.209599850062764,0
2629,5.6228759858838355,0
2630,5.172302107972225,0
2631,4.917166247254426,0
2632,4.935522677248497,0
2633,5.149929140086312,0
2634,5.42595521656555,0
2635,5.6893964603902045,0
2636,5.9213722058532445,0
2637,6.05121325338853,0
2638,6.080054912590439,0
2639,5.958799014834515,0
2640,5.876037976870155,0
2641,5.742594591378246,0
2642,5.671205385629013,0
2643,5.642251168605278,0
2644,5.648607744083155,0
2645,5.654662185045252,0
2646,5.70289423408453,0
2647,5.719728408174166,0
2648,5.737267394190763,0
2649,5.759290029743812,0
2650,5.742995681907125,0
2651,5.722412787667762,0
2652,5.689284106739315,0
2653,5.684353473636179,0
2654,5.685936381950096,0
2655,5.686370414161427,0
2656,5.690684594804133,0
2657,5.707651242411401,0
2658,5.703671947489397,0
2659,5.72174270028802,0
2660,5.7030902296284,0
2661,5.726946434385991,0
2662,5.705146719261415,0
2663,5.7216314639707955,0
2664,5.743352413075206,0
2665,5.7665275812148025,0
2666,5.748201754773768,0
2667,5.7421449279089,0
2668,5.750493593327262,0
2669,5.773423456402736,0
2670,5.783247653407995,0
2671,5.777369843713633,0
2672,5.7739276701053805,0
2673,5.788456473886571,0
2674,5.797966795366707,0
2675,5.7697242769284,0
2676,5.763504287723775,0
2677,5.789724979364334,0
2678,5.782135946797274,0
2679,5.770405998736773,0
2680,5.762741703215037,0
2681,5.7870275923973855,0
2682,5.770550168025881,0
2683,5.744090993478198,0
2684,5.7697398998660665,0
2685,5.770867596190416,0
2686,5.778934919253067,0
2687,5.769767139618774,0
2688,5.765968697857087,0
2689,5.762180303654801,0
2690,5.776588164014396,0
2691,5.768799059000373,0
2692,5.776412698314653,0
2693,5.77806889303359,0
2694,5.780716583018283,0
2695,5.785750199997138,0
2696,5.797767722913528,0
2697,5.793000495353797,0
2698,5.8009325801884035,0
2699,5.845585742416381,0
2700,6.003823617514453,0
2701,6.151962130741516,0
2702,6.500308652617824,0
2703,7.019520751010882,0
2704,7.74595473195575,0
2705,8.660740134192334,0
2706,9.710512289835005,0
2707,10.778881572357925,0
2708,11.750484735151336,0
2709,12.475132628876626,0
2710,12.768744097462655,0
2711,12.492111786902932,0
2712,11.6122916071775,0
2713,10.231962900628629,0
2714,8.547415077224118,0
2715,6.6846708176458565,0
2716,4.930662212759746,0
2717,3.5808088077079816,0
2718,2.890589923828699,0
2719,2.8370886913108158,0
2720,3.3428028619217356,0
2721,4.193289391590989,0
2722,5.296009722829611,0
2723,6.350515939747511,0
2724,7.124227237783218,0
2725,7.3969040247997,0
2726,7.288745411563072,0
2727,6.911980803172963,0
2728,6.382687775566812,0
2729,5.777836184353231,0
2730,5.322400410208462,0
2731,5.064324567275494,0
2732,5.062803208749093,0
2733,5.274243440136451,0
2734,5.536356845241981,0
2735,5.814045149099771,0
2736,6.009478608540829,0
2737,6.143561097078334,0
2738,6.147623468774665,0
2739,6.055744272159597,0
2740,5.94091725556352,0
2741,5.812108907844332,0
2742,5.748636308008341,0
2743,5.718916023618007,0
2744,5.7476766842985,0
2745,5.766788022916553,0
2746,5.825121286457272,0
2747,5.882877653563442,0
2748,5.913015891220241,0
2749,5.93089979330358,0
2750,5.919121198799069,0
2751,5.920340339273818,0
2752,5.92887298105795,0
2753,5.911529799353374,0
2754,5.9192786461745355,0
2755,5.912296299792175,0
2756,5.893762325388588,0
2757,5.899112810450472,0
2758,5.90822512301992,0
2759,5.901959179074744,0
2760,5.876610875130253,0
2761,5.879725239471157,0
2762,5.86364379830616,0
2763,5.8525219100752635,0
2764,5.839035936951431,0
2765,5.850263117277108,0
2766,5.847575550769732,0
2767,5.848697204190983,0
2768,5.83732610729128,0
2769,5.830128626402577,0
2770,5.830178265367608,0
2771,5.818703402533001,0
2772,5.832459376184646,0
2773,5.859079185267724,0
2774,5.840734065784564,0
2775,5.837442060514355,0
2776,5.847429014884773,0
2777,5.84728983543182,0
2778,5.863334185256811,0
2779,5.866845620785564,0
2780,5.863935354586683,0
2781,5.886060578332117,0
2782,5.879463644787957,0
2783,5.897028302249382,0
2784,5.896586476645678,0
2785,5.903974829493725,0
2786,5.9098510511919224,0
2787,5.900904081079942,0
2788,5.916265928146932,0
2789,5.910601045105465,0
2790,5.912380292075139,0
2791,5.913331698838357,0
2792,5.921219965094164,0
2793,5.934826622953307,0
2794,5.9301431103272995,0
2795,5.926324309282539,0
2796,5.927044910363127,0
2797,5.9159249589949985,0
2798,5.953312963622051,0
2799,5.983492146033449,0
2800,6.0662090383962415,0
2801,6.270593736300138,0
2802,6.6390344745964525,0
2803,7.1444004959935725,0
2804,7.824505466160434,0
2805,8.757403237854916,0
2806,9.821584767196391,0
2807,10.903640141397293,0
2808,11.870727666386882,0
2809,12.61786867411999,0
2810,12.949738906474193,0
2811,12.705719435530515,0
2812,11.823898209584563,0
2813,10.465983156236646,0
2814,8.755176637676495,0
2815,6.9086432236105635,0
2816,5.1551521607454065,0
2817,3.7842094740539602,0
2818,3.056197835248655,0
2819,2.9912493041896746,0
2820,3.4937057540472947,0
2821,4.354511468690802,0
2822,5.416238955822021,0
2823,6.487798021789786,0
2824,7.247948837010071,0
2825,7.560749246050893,0
2826,7.447212116137428,0
2827,7.0472507470248456,0
2828,6.525527465408092,0
2829,5.929859681530633,0
2830,5.4799423561426,0
2831,5.217037553013953,0
2832,5.23787534209464,0
2833,5.406341723537906,0
2834,5.700231308716148,0
2835,5.968558450964648,0
2836,6.185788015941407,0
2837,6.309183665900358,0
2838,6.33342580223794,0
2839,6.242953814185863,0
2840,6.136139320454435,0
2841,6.014686054259816,0
2842,5.964068599667642,0
2843,5.916869752243464,0
2844,5.925240915483073,0
2845,5.945499832383596,0
2846,5.980035677664124,0
2847,6.0086198984365895,0
2848,6.04748415598984,0
2849,6.049187716154822,0
2850,6.043088224692994,0
2851,6.031241055203162,0
2852,6.009740043641248,0
2853,6.0016315289363025,0
2854,6.012230866552268,0
2855,6.022269764731589,0
2856,5.989378056177702,0
2857,6.008834985204082,0
2858,6.004160871920397,0
2859,6.022751807670371,0
2860,6.0323053748463185,0
2861,6.038008634524056,0
2862,6.048080553978113,0
2863,6.0163303800623025,0
2864,6.045714885511871,0
2865,6.027842422028583,0
2866,6.041857126201877,0
2867,6.037468741638439,0
2868,6.0240124255502545,0
2869,6.029505875956988,0
2870,6.027487936058432,0
2871,6.006698352306132,0
2872,6.0034485855534765,0
2873,6.004985289189648,0
2874,5.986111943779989,0
2875,5.977022797378962,0
2876,5.981658053718206,0
2877,5.975053620576002,0
2878,5.97174113828869,0
2879,5.977190816968778,0
2880,5.961292444357192,0
2881,5.9778446888762184,0
2882,5.974796247131342,0
2883,5.975054671112728,0
2884,6.0063216074608405,0
2885,6.009485205400373,0
2886,6.019723484872911,0
2887,6.045780408050313,0
2888,6.041383017729042,0
2889,6.071270560782126,0
2890,6.086336030758282,0
2891,6.098307431653262,0
2892,6.116496491553409,0
2893,6.142037785793475,0
2894,6.14018957527068,0
2895,6.11363351958095,0
2896,6.136754128667397,0
2897,6.137193498827197,0
2898,6.149606596211845,0
2899,6.21276482687859,0
2900,6.306589592679439,0
2901,6.489879936844547,0
2902,6.789382874324583,0
2903,7.284685772008141,0
2904,7.998521893468013,0
2905,8.902365283092935,0
2906,9.959963800846781,0
2907,11.033113847953041,0
2908,11.99883932828687,0
2909,12.743833991405106,0
2910,13.044476609810829,0
2911,12.827198777801158,0
2912,11.944652566084887,0
2913,10.590364649970711,0
2914,8.946105536561845,0
2915,7.084586084884879,0
2916,5.2987312854911455,0
2917,3.9297012530768147,0
2918,3.220225743778722,0
2919,3.140831536972617,0
2920,3.6146796827262224,0
2921,4.469742785779173,0
2922,5.547412658361473,0
2923,6.62167845538057,0
2924,7.399198046147862,0
2925,7.7330840828372835,0
2926,7.635920358574124,0
2927,7.255113847929176,0
2928,6.716211062932366,0
2929,6.13617778492852,0
2930,5.654295095530226,0
2931,5.393332428174506,0
2932,5.397934385890072,0
2933,5.5697083579936635,0
2934,5.8436062620165705,0
2935,6.121494931211416,0
2936,6.320259637902322,0
2937,6.4622425600857865,0
2938,6.4740382747108125,0
2939,6.378639657476521,0
2940,6.270826766521969,0
2941,6.1334845997992495,0
2942,6.077213328914084,0
2943,6.053442990715635,0
2944,6.047582879147028,0
2945,6.078684337910521,0
2946,6.1042070772475,0
2947,6.133502631602203,0
2948,6.187879823746034,0
2949,6.178005895893907,0
2950,6.191032713461518,0
2951,6.1738907662483244,0
2952,6.1663387584114,0
2953,6.162714918268035,0
2954,6.155223591514623,0
2955,6.163834399281082,0
2956,6.168607212914828,0
2957,6.157133740062894,0
2958,6.166066396910656,0
2959,6.171328947160616,0
2960,6.192940309739807,0
2961,6.197049974206233,0
2962,6.200460174500245,0
2963,6.18395001597461,0
2964,6.189194347800149,0
2965,6.192324018423741,0
2966,6.185870897058232,0
2967,6.172381332275695,0
2968,6.167012784118778,0
2969,6.177100698559741,0
2970,6.1734693236924905,0
2971,6.16333954320207,0
2972,6.189659554257127,0
2973,6.188568257788823,0
2974,6.192288025833051,0
2975,6.207839592349248,0
2976,6.1886228167105495,0
2977,6.202935872002657,0
2978,6.220619092593572,0
2979,6.2379818053699685,0
2980,6.254046201916504,0
2981,6.27944355637028,0
2982,6.234382494060933,0
2983,6.2666038553938765,0
2984,6.2714744608515565,0
2985,6.239481288946234,0
2986,6.226332356372129,0
2987,6.223935716730383,0
2988,6.218776539366274,0
2989,6.189460704828092,0
2990,6.179476304963458,0
2991,6.20931316714827,0
2992,6.194413201468913,0
2993,6.188479776878292,0
2994,6.178901947252604,0
2995,6.201380142735286,0
2996,6.177476655921105,0
2997,6.196843986912886,0
2998,6.211463319477075,0
2999,6.244175416120344,0
3000,6.360662127901491,0
3001,6.556269636625844,0
3002,6.886473144673382,0
3003,7.3865180789321085,0
3004,8.078052428205844,0
3005,9.01801165498364,0
3006,10.058219557706256,0
3007,11.154391533282311,0
3008,12.110627873176485,0
3009,12.880662769970753,0
3010,13.236382446459562,0
3011,12.99584958457762,0
3012,12.142413586855795,0
3013,10.7919150122759,0
3014,9.125087345986298,0
3015,7.2658454234658105,0
3016,5.501275021860246,0
3017,4.102365823034711,0
3018,3.3369520846752745,0
3019,3.2434083191037986,0
3020,3.6994892779788575,0
3021,4.557304244374712,0
3022,5.634159954372428,0
3023,6.6849733457149245,0
3024,7.482384438476065,0
3025,7.801840353266417,0
3026,7.696665669705789,0
3027,7.352109572818368,0
3028,6.832457116181312,0
3029,6.252523093055624,0
3030,5.762112741122968,0
3031,5.5052679439831795,0
3032,5.501242313718028,0
3033,5.687631940772549,0
3034,5.957247221888757,0
3035,6.229275616148309,0
3036,6.454964213336959,0
3037,6.573893356606766,0
3038,6.604619572485522,0
3039,6.532770440542053,0
3040,6.433148226550413,0
3041,6.2922685349544425,0
3042,6.2328829821010405,0
3043,6.194679438284948,0
3044,6.186584790049194,0
3045,6.219024921573775,0
3046,6.266240828208112,0
3047,6.3118128089001715,0
3048,6.335018825757337,0
3049,6.346052925889465,0
3050,6.362095987184875,0
3051,6.353506827607376,0
3052,6.3471511651275065,0
3053,6.345086532308142,0
3054,6.323222868703491,0
3055,6.3569378214676355,0
3056,6.348309174297939,0
3057,6.365104699455637,0
3058,6.338617858816178,0
3059,6.346980151034731,0
3060,6.315022675444724,0
3061,6.354572412719445,0
3062,6.33294441455102,0
3063,6.336037630486152,0
3064,6.32274210894588,0
3065,6.326019053140502,0
3066,6.310200932558747,0
3067,6.324860043295245,0
3068,6.3189805478661345,0
3069,6.2938420775161825,0
3070,6.30747927216961,0
3071,6.291330053248443,0
3072,6.297001344873899,0
3073,6.300570379499957,0
3074,6.293022767043847,0
3075,6.301921500185675,0
3076,6.29506462699415,0
3077,6.310685889513308,0
3078,6.328247813021109,0
3079,6.3149880606559465,0
3080,6.327252620204276,0
3081,6.32952463386191,0
3082,6.323583860908974,0
3083,6.320478570027592,0
3084,6.329887196814094,0
3085,6.315818628710478,0
3086,6.312736387927506,0
3087,6.313316139793169,0
3088,6.300899215975867,0
3089,6.295495814775763,0
3090,6.285669174062704,0
3091,6.292023443592719,0
3092,6.2799019821259705,0
3093,6.283534388710838,0
3094,6.300861991401494,0
3095,6.300445014642195,0
3096,6.283152622701946,0
3097,6.288144807095499,0
3098,6.330212426060474,0
3099,6.360539532292827,0
3100,6.489155650577058,0
3101,6.681733396481533,0
3102,6.986985299474691,0
3103,7.512996401953059,0
3104,8.197138859888781,0
3105,9.107045111344572,0
3106,10.174238903182665,0
3107,11.239709452026744,0
3108,12.232539667554413,0
3109,12.99149261242061,0
3110,13.340825623412629,0
3111,13.138081708441181,0
3112,12.30018894069536,0
3113,10.965686146035473,0
3114,9.303597157316203,0
3115,7.452574591491135,0
3116,5.681680344194955,0
3117,4.268043597624401,0
3118,3.5013542216785583,0
3119,3.4103653688286473,0
3120,3.853309457997499,0
3121,4.673007721670202,0
3122,5.7711022134585175,0
3123,6.823702783529438,0
3124,7.633141486544055,0
3125,7.97232976970501,0
3126,7.869593416146018,0
3127,7.51965352693402,0
3128,6.977076658033886,0
3129,6.399456804550561,0
3130,5.903444445302024,0
3131,5.630580637209102,0
3132,5.601109300877963,0
3133,5.8140180279042895,0
3134,6.100632084264796,0
3135,6.347367425213766,0
3136,6.577415301568228,0
3137,6.720207453184525,0
3138,6.744924880456808,0
3139,6.665454313118837,0
3140,6.544475124353167,0
3141,6.414204684672856,0
3142,6.343781641090443,0
3143,6.3267522876160385,0
3144,6.338424000389448,0
3145,6.364987107125868,0
3146,6.380598671604467,0
3147,6.444338881050389,0
3148,6.4845559895956715,0
3149,6.497459535308945,0
3150,6.454698001407897,0
3151,6.4574915832437085,0
3152,6.448266307598525,0
3153,6.426562162935694,0
3154,6.447757050445054,0
3155,6.4342040981226045,0
3156,6.447212427112013,0
3157,6.4521929350864005,0
3158,6.43799832751316,0
3159,6.432520806912148,0
3160,6.4438679009790665,0
3161,6.437038348613888,0
3162,6.422645527954062,0
3163,6.453051854249621,0
3164,6.442099648578502,0
3165,6.434864022601894,0
3166,6.439870835978515,0
3167,6.45312591987959,0
3168,6.452393714401917,0
3169,6.446284418920069,0
3170,6.45395064770442,0
3171,6.439076469886997,0
3172,6.471260281337194,0
3173,6.461733225066829,0
3174,6.4669552601948155,0
3175,6.446228490974665,0
3176,6.464278991984351,0
3177,6.438578799059258,0
3178,6.4384238610460915,0
3179,6.4403098043951355,0
3180,6.446168664379663,0
3181,6.436995105407839,0
3182,6.436187949446165,0
3183,6.451225343765259,0
3184,6.4566903834223766,0
3185,6.453815032493852,0
3186,6.458598841165336,0
3187,6.465610254405081,0
3188,6.483959826460863,0
3189,6.4687906043239005,0
3190,6.486368306051496,0
3191,6.503474908827066,0
3192,6.481811087239976,0
3193,6.465331456738224,0
3194,6.4619922064920265,0
3195,6.461490440768584,0
3196,6.434191735548783,0
3197,6.424429380552144,0
3198,6.389914947577026,0
3199,6.435614728464996,0
3200,6.507872163122301,0
3201,6.69573644201293,0
3202,7.018264933053665,0
3203,7.493587201150697,0
3204,8.177786597259297,0
3205,9.105859272595879,0
3206,10.147501265690158,0
3207,11.266564173607705,0
3208,12.271759055964662,0
3209,13.046799929808579,0
3210,13.417456649740576,0
3211,13.256368353763142,0
3212,12.440983967374159,0
3213,11.14131712449564,0
3214,9.476540722354311,0
3215,7.639306348371167,0
3216,5.8501107286710194,0
3217,4.455708733260549,0
3218,3.648371500573333,0
3219,3.52984652138582,0
3220,3.9440385297410416,0
3221,4.797495197586927,0
3222,5.845146298000171,0
3223,6.918347028013555,0
3224,7.734885637746116,0
3225,8.094279992115995,0
3226,8.007156012416095,0
3227,7.6637652093578055,0
3228,7.120234922312317,0
3229,6.562654897695993,0
3230,6.092328664425527,0
3231,5.800576762221413,0
3232,5.795198714988474,0
3233,5.975447025663675,0
3234,6.249176423558239,0
3235,6.488931654282247,0
3236,6.752768250645215,0
3237,6.843699686328687,0
3238,6.881499581622806,0
3239,6.807297392103487,0
3240,6.659419514308041,0
3241,6.563966549574855,0
3242,6.457137276095474,0
3243,6.421347975920935,0
3244,6.42476243957614,0
3245,6.454937493915748,0
3246,6.498110508245483,0
3247,6.550538564298269,0
3248,6.582600797607667,0
3249,6.585866529745045,0
3250,6.5938652154895685,0
3251,6.58547292874271,0
3252,6.591109981525728,0
3253,6.580565538641846,0
3254,6.578680347155952,0
3255,6.563337233591688,0
3256,6.580283475040883,0
3257,6.558702238766011,0
3258,6.566409140853104,0
3259,6.554308340303928,0
3260,6.548842439391212,0
3261,6.532633654333455,0
3262,6.55301872883402,0
3263,6.539583455073117,0
3264,6.546746619523204,0
3265,6.53550530473959,0
3266,6.541762058722348,0
3267,6.540740236777408,0
3268,6.560511028523609,0
3269,6.535439698907766,0
3270,6.548100396070215,0
3271,6.564156530743037,0
3272,6.5662374769162515,0
3273,6.566974340616253,0
3274,6.576726611066028,0
3275,6.587165988388193,0
3276,6.571692827657886,0
3277,6.5828972328613355,0
3278,6.590893771773202,0
3279,6.587532438340192,0
3280,6.5897341819621555,0
3281,6.613428062773626,0
3282,6.578067194899014,0
3283,6.5728724338581745,0
3284,6.574391834167142,0
3285,6.570363970349554,0
3286,6.588152473854913,0
3287,6.605330702329971,0
3288,6.604195109020742,0
3289,6.603069392131501,0
3290,6.610970876081999,0
3291,6.609987910629629,0
3292,6.6243660662948765,0
3293,6.6231628889085945,0
3294,6.630947994254058,0
3295,6.616846013181305,0
3296,6.625913099512777,0
3297,6.64073470998999,0
3298,6.661511477607678,0
3299,6.714954767142284,0
3300,6.567846941922642,1
3301,6.546426661592191,1
3302,6.529931731834803,1
3303,6.53864115117634,1
3304,6.541097432320012,1
3305,6.5470932566578615,1
3306,6.528572453072698,1
3307,6.550096615603268,1
3308,6.552446354466097,1
3309,6.546585916509235,1
3310,6.5416380089854025,1
3311,6.5586921037126364,1
3312,6.540188694837477,1
3313,6.539439598350678,1
3314,6.560287218426816,1
3315,6.568670750687569,1
3316,6.550186175422247,1
3317,6.576254468614734,1
3318,6.571672641496077,1
3319,6.588004589295791,1
3320,6.5805569188320545,1
3321,6.587546303847018,1
3322,6.617766687862577,1
3323,6.607433740979541,1
3324,6.630624803725022,1
3325,6.615572660644822,1
3326,6.607174472866043,1
3327,6.624913368239452,1
3328,6.631069364119636,1
3329,6.632921784848713,1
3330,6.627964811953181,1
3331,6.625152488067835,1
3332,6.597572059389238,1
3333,6.61736390485222,1
3334,6.605184509809902,1
3335,6.611669042210613,1
3336,6.609922603957581,1
3337,6.599371954501339,1
3338,6.620046787853176,1
3339,6.623662077014513,1
3340,6.61666407243518,1
3341,6.613122530720923,1
3342,6.637276948329048,1
3343,6.615341657320498,1
3344,6.635848148035906,1
3345,6.639371021966942,1
3346,6.620008768295789,1
3347,6.638194724298312,1
3348,6.63357891370003,1
3349,6.675272109672371,1
3350,6.674594762985587,1
3351,6.6534610428837935,1
3352,6.6237125240325145,1
3353,6.587855019827139,1
3354,6.558352463803725,1
3355,6.507757384809617,1
3356,6.518451177612019,1
3357,6.575228976429084,1
3358,6.645680807457,1
3359,6.765882598444084,1
3360,6.900454265838261,1
3361,6.990370137906475,1
3362,6.963130826099763,1
3363,6.828658949068098,1
3364,6.6195773041872945,1
3365,6.3389078623359065,1
3366,6.088564730174537,1
3367,5.913499419325016,1
3368,5.896980469898101,1
3369,6.220403934633426,1
3370,6.711111268146532,1
3371,7.294097603270113,1
3372,7.820037133724908,1
3373,8.20426029486817,1
3374,8.250688479526302,1
3375,7.877517803279103,1
3376,7.092977868148505,1
3377,6.016044275198867,1
3378,4.970669540782416,1
3379,4.103742566564433,1
3380,3.7068719971983586,1
3381,3.8373768296393065,1
3382,4.648952796670884,1
3383,6.092786556641816,1
3384,7.887936695243284,1
3385,9.737908847864345,1
3386,11.400967727047206,1
3387,12.723688766179095,1
3388,13.543774699885997,1
3389,13.723243479076878,1
3390,13.347271596570796,1
3391,12.568547894803803,1
3392,11.57188468953793,1
3393,10.517456475853553,1
3394,9.476295283566685,1
3395,8.553668236200082,1
3396,7.8714720209438305,1
3397,7.4045658015802465,1
3398,7.089887620766582,1
3399,6.885387065456933,1
3400,6.757180146919092,0
3401,6.949870141118806,0
3402,7.243796804021659,0
3403,7.730969965731698,0
3404,8.406899682676519,0
3405,9.300842142842082,0
3406,10.342369546608907,0
3407,11.420681599082428,0
3408,12.40923968183908,0
3409,13.179580909888884,0
3410,13.571997210325897,0
3411,13.429121471833763,0
3412,12.61128377058694,0
3413,11.337874324952448,0
3414,9.678654530445552,0
3415,7.847379104128956,0
3416,6.082743785519435,0
3417,4.650935627281186,0
3418,3.838860822173345,0
3419,3.6868730079899166,0
3420,4.102608187427858,0
3421,4.9241037680011,0
3422,5.98252788450358,0
3423,7.070459421663123,0
3424,7.8748449439800865,0
3425,8.24946419819778,0
3426,8.18805192345853,0
3427,7.829848320884646,0
3428,7.275271162803535,0
3429,6.70575999991001,0
3430,6.201471579096714,0
3431,5.906941657140205,0
3432,5.86706769377369,0
3433,6.036734150840839,0
3434,6.320463983711542,0
3435,6.588316491378279,0
3436,6.810797626085973,0
3437,6.96829751560557,0
3438,6.9944083134965345,0
3439,6.933053215450214,0
3440,6.837455210626524,0
3441,6.705366891819999,0
3442,6.639882561966334,0
3443,6.608028500602813,0
3444,6.610505677965677,0
3445,6.618348827618273,0
3446,6.665324346770849,0
3447,6.716327326689045,0
3448,6.730865458287328,0
3449,6.735979207934762,0
3450,6.7410955281270475,0
3451,6.714429582336287,0
3452,6.710211640643063,0
3453,6.671429104102922,0
3454,6.686521383962678,0
3455,6.676786421435131,0
3456,6.6746232019897835,0
3457,6.666260922117647,0
3458,6.6484542749320905,0
3459,6.664477631230905,0
3460,6.655091495895433,0
3461,6.641808518925692,0
3462,6.683070802392148,0
3463,6.668050623503677,0
3464,6.658131548566448,0
3465,6.682733561211681,0
3466,6.682154450237285,0
3467,6.669458395657064,0
3468,6.670515317650996,0
3469,6.69268769724091,0
3470,6.694785666171737,0
3471,6.695499518167505,0
3472,6.702379161889544,0
3473,6.703081173776006,0
3474,6.695387768326225,0
3475,6.692937008053723,0
3476,6.72028559397119,0
3477,6.703591816771184,0
3478,6.694260459085981,0
3479,6.709435580668054,0
3480,6.706027195137276,0
3481,6.714676617438205,0
3482,6.712387713851247,0
3483,6.705892125441789,0
3484,6.7301924903268455,0
3485,6.7207847269150855,0
3486,6.725459567125406,0
3487,6.741362989831776,0
3488,6.7329343751749775,0
3489,6.7448305523646495,0
3490,6.722696960266826,0
3491,6.729739254679541,0
3492,6.7461044973215625,0
3493,6.742944355298343,0
3494,6.726568233074907,0
3495,6.75295535941197,0
3496,6.735379107374994,0
3497,6.717979247334023,0
3498,6.735544317717476,0
3499,6.768925291831436,0
3500,6.851910113584691,0
3501,7.031732821523853,0
3502,7.356564167001561,0
3503,7.7951004083963795,0
3504,8.474100511691262,0
3505,9.348023777961954,0
3506,10.405422183586069,0
3507,11.484513106092493,0
3508,12.482028655570934,0
3509,13.253906280382818,0
3510,13.675791249962206,0
3511,13.521903554233266,0
3512,12.74834580313874,0
3513,11.451184753483624,0
3514,9.804909581903104,0
3515,7.960891877632515,0
3516,6.160072628643888,0
3517,4.712561654287352,0
3518,3.894667161854484,0
3519,3.7320955763312122,0
3520,4.12313361234208,0
3521,4.952572351192975,0
3522,5.998068948804349,0
3523,7.098299785866595,0
3524,7.9179491835818965,0
3525,8.314976885360368,0
3526,8.267832167870665,0
3527,7.9463010501623845,0
3528,7.395377034677809,0
3529,6.833727041870901,0
3530,6.330931638030595,0
3531,6.026029505300254,0
3532,5.996765333342052,0
3533,6.172422242698057,0
3534,6.432893111483655,0
3535,6.690754647571981,0
3536,6.921760831422757,0
3537,7.060607635898296,0
3538,7.087076851208276,0
3539,7.020722681245265,0
3540,6.882644177998657,0
3541,6.759898913236892,0
3542,6.674575174990411,0
3543,6.650417426984089,0
3544,6.626687889632546,0
3545,6.6515919335755065,0
3546,6.72249696973542,0
3547,6.737024683522091,0
3548,6.781331618287133,0
3549,6.7837338606435456,0
3550,6.789209066815275,0
3551,6.7819802665765705,0
3552,6.790183685076036,0
3553,6.767408782482393,0
3554,6.781225348796348,0
3555,6.7728534884275975,0
3556,6.7623486374692074,0
3557,6.805120859766551,0
3558,6.799148346806569,0
3559,6.798032862408671,0
3560,6.776167885224299,0
3561,6.805104503389572,0
3562,6.794922822440604,0
3563,6.801524565189412,0
3564,6.793040496801483,0
3565,6.795209425861875,0
3566,6.804498258549603,0
3567,6.797015572297031,0
3568,6.8180760757084276,0
3569,6.801613563928565,0
3570,6.816847278592891,0
3571,6.8128221497910015,0
3572,6.833021281461786,0
3573,6.854102447095878,0
3574,6.843497012638137,0
3575,6.856430593545087,0
3576,6.8609629014724325,0
3577,6.863312333069618,0
3578,6.87372723511667,0
3579,6.860973126876466,0
3580,6.873371810196533,0
3581,6.8710172005434345,0
3582,6.874327024284358,0
3583,6.853160757239832,0
3584,6.855220652971639,0
3585,6.855126651319696,0
3586,6.8746971152598615,0
3587,6.855223945796492,0
3588,6.84622902570693,0
3589,6.858370484358087,0
3590,6.85115218150401,0
3591,6.851446962123012,0
3592,6.822591872333454,0
3593,6.818180574215434,0
3594,6.821819464116836,0
3595,6.849075048258801,0
3596,6.816865407915212,0
3597,6.82724902502328,0
3598,6.820541640438569,0
3599,6.853651167480536,0
3600,6.938031628665988,0
3601,7.152524668962114,0
3602,7.446621537914292,0
3603,7.932316385065712,0
3604,8.587485112315672,0
3605,9.482550705900847,0
3606,10.5441379987303,0
3607,11.615911678452019,0
3608,12.642334695715569,0
3609,13.449699219391537,0
3610,13.86046785681843,0
3611,13.72501061917498,0
3612,12.948931470534808,0
3613,11.691356034931154,0
3614,10.043133471358566,0
3615,8.192236706794269,0
3616,6.374218572842353,0
3617,4.9114338662671395,0
3618,4.038343023779843,0
3619,3.845737668383112,0
3620,4.209222646238118,0
3621,5.003301946598056,0
3622,6.066974126238288,0
3623,7.137783648318536,0
3624,7.976504371235046,0
3625,8.377030143750622,0
3626,8.340037007380626,0
3627,8.009948122491567,0
3628,7.519028528752919,0
3629,6.929752741083031,0
3630,6.428258644440523,0
3631,6.120967311729823,0
3632,6.117359882293916,0
3633,6.277296095619072,0
3634,6.5658424752453275,0
3635,6.843990267087691,0
3636,7.0639754033190085,0
3637,7.217450584451414,0
3638,7.23722810033329,0
3639,7.1993044665190435,0
3640,7.060355668609817,0
3641,6.943165695198177,0
3642,6.876069001665751,0
3643,6.795753018286496,0
3644,6.796047241208391,0
3645,6.823867118696955,0
3646,6.870530088175721,0
3647,6.90646267990921,0
3648,6.928374918450758,0
3649,6.95735302912133,0
3650,6.948101338001548,0
3651,6.922480326866354,0
3652,6.921057865757395,0
3653,6.910493964065677,0
3654,6.912954112880385,0
3655,6.914726265615893,0
3656,6.9066190375991505,0
3657,6.9201815307511145,0
3658,6.9157423544630525,0
3659,6.935509404011106,0
3660,6.933707272680485,0
3661,6.930779130366643,0
3662,6.932061464722826,0
3663,6.922042660264417,0
3664,6.948066943132657,0
3665,6.935031287543057,0
3666,6.925571852098072,0
3667,6.9326181341078295,0
3668,6.940569825914844,0
3669,6.9392704032669545,0
3670,6.935053166397688,0
3671,6.933844286278424,0
3672,6.907159681978615,0
3673,6.9113264148681415,0
3674,6.910610148352905,0
3675,6.925079876960124,0
3676,6.914072287691793,0
3677,6.937892734786542,0
3678,6.942385715791662,0
3679,6.920678916883198,0
3680,6.933609157419433,0
3681,6.94302966967881,0
3682,6.953456738949857,0
3683,6.954699955854298,0
3684,6.960184497054583,0
3685,6.9575251015497175,0
3686,6.980869837943755,0
3687,6.992388468123333,0
3688,6.995088271406071,0
3689,7.004222909210774,0
3690,7.002580437177262,0
3691,7.004363722515303,0
3692,7.006680136233482,0
3693,7.0121208280215095,0
3694,7.000010363392418,0
3695,7.026112390710646,0
3696,7.011283405201492,0
3697,7.0171296614391565,0
3698,7.014881666803814,0
3699,7.028264629663186,0
3700,7.10886942541917,0
3701,7.297883145905836,0
3702,7.605396974739788,0
3703,8.051280950113277,0
3704,8.718155184035815,0
3705,9.586423279038069,0
3706,10.636628384447983,0
3707,11.693408493843041,0
3708,12.71970872999319,0
3709,13.518698304215187,0
3710,13.921187398922466,0
3711,13.810968995397229,0
3712,13.082049155559574,0
3713,11.780499009035214,0
3714,10.145047886301427,0
3715,8.313828433101076,0
3716,6.495408640933393,0
3717,5.051513613131898,0
3718,4.168197896248598,0
3719,3.98285554418052,0
3720,4.36443221805932,0
3721,5.172522470039772,0
3722,6.248514348407051,0
3723,7.2811500509285745,0
3724,8.16171138926235,0
3725,8.567925455786849,0
3726,8.553812115139124,0
3727,8.203622664203014,0
3728,7.689500279722591,0
3729,7.124523355925926,0
3730,6.604917162180855,0
3731,6.298180808305114,0
3732,6.260004019138159,0
3733,6.413921165452152,0
3734,6.679028773352941,0
3735,6.952866101566402,0
3736,7.181385809777963,0
3737,7.341022174664336,0
3738,7.358294633726688,0
3739,7.297879094069972,0
3740,7.178760513367817,0
3741,7.0377452032266286,0
3742,6.949950113779074,0
3743,6.891643013970348,0
3744,6.89823516620483,0
3745,6.9052035362927064,0
3746,6.956334157305823,0
3747,6.972907562337062,0
3748,6.9915475020742734,0
3749,6.992764789359736,0
3750,6.982186568459272,0
3751,6.967746626937497,0
3752,6.960445922241877,0
3753,6.963653515856224,0
3754,6.957417005270338,0
3755,6.952728943426496,0
3756,6.972103228222936,0
3757,6.979884430251413,0
3758,6.9994131420692005,0
3759,6.999454674179117,0
3760,7.008030693221182,0
3761,7.022216813443277,0
3762,7.029660750669086,0
3763,7.0372027915706274,0
3764,7.0304082560228665,0
3765,7.021796486432002,0
3766,7.049405105784117,0
3767,7.029414078629677,0
3768,7.039565972394801,0
3769,7.019233467793895,0
3770,7.026520881417487,0
3771,7.031529036168082,0
3772,7.021466531607121,0
3773,7.030299143732725,0
3774,7.020316461985698,0
3775,7.034866252712845,0
3776,7.046619682336863,0
3777,7.056504748760283,0
3778,7.042413901029351,0
3779,7.050319489712566,0
3780,7.057505744512843,0
3781,7.047967567929707,0
3782,7.051249452081984,0
3783,7.068349125517322,0
3784,7.077924040416884,0
3785,7.101968768654505,0
3786,7.086036733789974,0
3787,7.1104329152321695,0
3788,7.099707874123007,0
3789,7.094844420465136,0
3790,7.086998546523591,0
3791,7.110363290607179,0
3792,7.11630040656924,0
3793,7.123225348387088,0
3794,7.137965083722851,0
3795,7.097568307522952,0
3796,7.1153951429578655,0
3797,7.086796541819908,0
3798,7.09660333123022,0
3799,7.1262175681897695,0
3800,7.198547716183092,0
3801,7.373334906365351,0
3802,7.6611898707112935,0
3803,8.112773815551773,0
3804,8.787714290974225,0
3805,9.656536683916148,0
3806,10.698216505346103,0
3807,11.767776982921163,0
3808,12.775222304024906,0
3809,13.592922923880886,0
3810,14.020501971490201,0
3811,13.94348678651646,0
3812,13.1993831097806,0
3813,11.93454754801159,0
3814,10.311574360558469,0
3815,8.46253764045003,0
3816,6.651201110018583,0
3817,5.173891832508253,0
3818,4.308700552052226,0
3819,4.086629797487197,0
3820,4.45901288074405,0
3821,5.224237678913118,0
3822,6.283559251880952,0
3823,7.341539454403809,0
3824,8.215997544649936,0
3825,8.643561734298865,0
3826,8.612747177896612,0
3827,8.275261247043336,0
3828,7.750322365314302,0
3829,7.176845206010314,0
3830,6.645468964351634,0
3831,6.33334340517951,0
3832,6.298340927671063,0
3833,6.443515438512359,0
3834,6.69548188590653,0
3835,6.975849224610497,0
3836,7.212177982266594,0
3837,7.389568264191287,0
3838,7.429919765750231,0
3839,7.3498062964133855,0
3840,7.222991467848175,0
3841,7.13942846036362,0
3842,7.049139884421402,0
3843,7.014117146614923,0
3844,7.001793191676533,0
3845,7.0333532730129384,0
3846,7.058931651881416,0
3847,7.095374395731192,0
3848,7.14040316107996,0
3849,7.127246951446732,0
3850,7.109317843661118,0
3851,7.086952427614104,0
3852,7.094262255550448,0
3853,7.069734390123728,0
3854,7.065306831763751,0
3855,7.058704525587713,0
3856,7.068594160714898,0
3857,7.080068192137778,0
3858,7.087120962429109,0
3859,7.1010068584846815,0
3860,7.10328333676895,0
3861,7.1121579107737976,0
3862,7.097875051333351,0
3863,7.115916421832,0
3864,7.110577116633679,0
3865,7.103176331670541,0
3866,7.100744448997386,0
3867,7.096482256489056,0
3868,7.112319036988161,0
3869,7.111410133093178,0
3870,7.096516549446322,0
3871,7.07711972661104,0
3872,7.103262051821753,0
3873,7.077463334009643,0
3874,7.087132127746045,0
3875,7.0798637227091925,0
3876,7.0689693968377085,0
3877,7.08284185064224,0
3878,7.08730673740026,0
3879,7.100665672480917,0
3880,7.0951876896061385,0
3881,7.086468786597869,0
3882,7.088724786201862,0
3883,7.102556752301112,0
3884,7.09020446414966,0
3885,7.086738952935828,0
3886,7.102755442956799,0
3887,7.111261857501037,0
3888,7.090526568292147,0
3889,7.104341345603679,0
3890,7.08607657459651,0
3891,7.092711186628312,0
3892,7.086978529266666,0
3893,7.100388655787769,0
3894,7.090648164560005,0
3895,7.085720384186819,0
3896,7.09511459714707,0
3897,7.099813004593406,0
3898,7.097993604263547,0
3899,7.11712615456789,0
3900,7.219704184675729,0
3901,7.3972953368777725,0
3902,7.682048957984987,0
3903,8.140599772762615,0
3904,8.780323037369087,0
3905,9.665323757079838,0
3906,10.696287687959437,0
3907,11.776269972902506,0
3908,12.780462749757302,0
3909,13.61919041478813,0
3910,14.068194687845985,0
3911,13.970201553684511,0
3912,13.221229756962966,0
3913,11.992192316162047,0
3914,10.37654310274179,0
3915,8.5589730577513,0
3916,6.750353667303816,0
3917,5.255054179807847,0
3918,4.37225710536503,0
3919,4.184518641943523,0
3920,4.526744432935996,0
3921,5.318213287110165,0
3922,6.357212493578811,0
3923,7.432898162549696,0
3924,8.31614642895177,0
3925,8.744445482232582,0
3926,8.708245301829832,0
3927,8.38062133399866,0
3928,7.858653220876236,0
3929,7.269983796947158,0
3930,6.722393667308135,0
3931,6.386396609414596,0
3932,6.344873035722981,0
3933,6.484316011151019,0
3934,6.736889258958627,0
3935,7.016216899981306,0
3936,7.238522140521967,0
3937,7.388003171977117,0
3938,7.453896248504534,0
3939,7.386704364179779,0
3940,7.268797396806977,0
3941,7.146397443792096,0
3942,7.067713315811364,0
3943,7.033010515069422,0
3944,7.036003413897157,0
3945,7.050800802479621,0
3946,7.09935119403244,0
3947,7.136506156168332,0
3948,7.171983715936378,0
3949,7.203204706660314,0
3950,7.166398793722795,0
3951,7.175595601319932,0
3952,7.175206587187799,0
3953,7.15446970728524,0
3954,7.160234731062663,0
3955,7.163315652315133,0
3956,7.175915566763252,0
3957,7.162274561181783,0
3958,7.1643376434202475,0
3959,7.171364877985375,0
3960,7.19137969117597,0
3961,7.17919970514681,0
3962,7.178143777952045,0
3963,7.174801745566312,0
3964,7.184179164429827,0
3965,7.192697775487473,0
3966,7.1826360787695265,0
3967,7.167738260470102,0
3968,7.163063788254475,0
3969,7.166100541089894,0
3970,7.136070786590412,0
3971,7.140552020791986,0
3972,7.130970697053311,0
3973,7.13405871654666,0
3974,7.140968776783801,0
3975,7.123469211792111,0
3976,7.139199380644519,0
3977,7.151332787680551,0
3978,7.151038621324097,0
3979,7.160432599732012,0
3980,7.192525630998543,0
3981,7.1940098091861175,0
3982,7.1687426606059175,0
3983,7.16081597806821,0
3984,7.191495886054647,0
3985,7.211107906494453,0
3986,7.186089285695389,0
3987,7.199569660459189,0
3988,7.186669133516225,0
3989,7.200375174028398,0
3990,7.188959815567818,0
3991,7.186639111997898,0
3992,7.208166658118752,0
3993,7.194041143011481,0
3994,7.195562874612675,0
3995,7.197661237982414,0
3996,7.182082536580722,0
3997,7.19332788836561,0
3998,7.214065596986063,0
3999,7.2303242000578765,0
4000,7.324652258925522,0
4001,7.4835491873195235,0
4002,7.7858776581972515,0
4003,8.23554866031194,0
4004,8.900536932686766,0
4005,9.749518688380324,0
4006,10.78442281135748,0
4007,11.863754215412513,0
4008,12.893809466660061,0
4009,13.72389609393839,0
4010,14.182763986122293,0
4011,14.116718740737404,0
4012,13.40450767592253,0
4013,12.165705251184189,0
4014,10.541422398767857,0
4015,8.72390593731313,0
4016,6.909556694136622,0
4017,5.430959103707139,0
4018,4.473465471863234,0
4019,4.256129880745966,0
4020,4.591243145825982,0
4021,5.379710969271459,0
4022,6.4413082034034765,0
4023,7.493283093328411,0
4024,8.376525029295312,0
4025,8.80701234108091,0
4026,8.794955747929237,0
4027,8.496852342280318,0
4028,7.970314743823285,0
4029,7.3781849030425635,0
4030,6.87218493046157,0
4031,6.524451736773029,0
4032,6.481893561177028,0
4033,6.615011667424274,0
4034,6.89388982540946,0
4035,7.17889848944555,0
4036,7.403351354176212,0
4037,7.566404398507165,0
4038,7.615494378426032,0
4039,7.557361217263179,0
4040,7.436021564823492,0
4041,7.331569966258775,0
4042,7.231938700332581,0
4043,7.209115913210362,0
4044,7.184072347473903,0
4045,7.204861122314823,0
4046,7.251142781578952,0
4047,7.277973791372521,0
4048,7.332958713297979,0
4049,7.321941735050116,0
4050,7.308335723089717,0
4051,7.3114898554273235,0
4052,7.292511014034885,0
4053,7.298284777207652,0
4054,7.274337858970837,0
4055,7.272790549021781,0
4056,7.2847914571891765,0
4057,7.281171960291502,0
4058,7.296907557843635,0
4059,7.292677438792373,0
4060,7.289497362982963,0
4061,7.31763176509563,0
4062,7.314515491539233,0
4063,7.3069188720121145,0
4064,7.314056121708211,0
4065,7.33945108527315,0
4066,7.318880172593698,0
4067,7.312027268137566,0
4068,7.328398450513293,0
4069,7.328527763909839,0
4070,7.337534107398444,0
4071,7.3125989261398265,0
4072,7.32989855352899,0
4073,7.322826493964247,0
4074,7.3231289833967725,0
4075,7.328013651530438,0
4076,7.322603201744805,0
4077,7.341331941639883,0
4078,7.326361223589176,0
4079,7.322244070289827,0
4080,7.301100211870443,0
4081,7.303503889375483,0
4082,7.316991957359445,0
4083,7.30317566574772,0
4084,7.302499569052721,0
4085,7.317312301495199,0
4086,7.3178257609819015,0
4087,7.311526916345694,0
4088,7.320942551377763,0
4089,7.331273004373944,0
4090,7.339455959633447,0
4091,7.321730109292537,0
4092,7.333247962813652,0
4093,7.344532178460911,0
4094,7.357142213003953,0
4095,7.357441540872527,0
4096,7.346536508950178,0
4097,7.34537096885254,0
4098,7.347161253733158,0
4099,7.376006472536313,0
4100,7.4510536232394085,0
4101,7.615188950062267,0
4102,7.9066376130348335,0
4103,8.33769594280172,0
4104,8.977794180144876,0
4105,9.832315756182677,0
4106,10.867960053036215,0
4107,11.927209010259556,0
4108,12.94423453004093,0
4109,13.768320651117403,0
4110,14.255500764048495,0
4111,14.167469156291322,0
4112,13.462502960114303,0
4113,12.262537314283772,0
4114,10.668121490771227,0
4115,8.828056491416795,0
4116,7.010351167702091,0
4117,5.515157908515133,0
4118,4.576344739191824,0
4119,4.350409685691416,0
4120,4.6605063262536515,0
4121,5.431912592442652,0
4122,6.48865915484961,0
4123,7.572156805763511,0
4124,8.44917755615014,0
4125,8.889081787957752,0
4126,8.906351553080745,0
4127,8.59658419990081,0
4128,8.080010826522573,0
4129,7.47912600256635,0
4130,6.9414319117702385,0
4131,6.602694046936905,0
4132,6.540416536588684,0
4133,6.681547579559088,0
4134,6.940165920435215,0
4135,7.213075127060822,0
4136,7.477431912648082,0
4137,7.622440496004216,0
4138,7.669316476614308,0
4139,7.629735318290961,0
4140,7.495944954411283,0
4141,7.39327067053316,0
4142,7.30262527743858,0
4143,7.274546937637377,0
4144,7.257473039787409,0
4145,7.284434335677778,0
4146,7.305952129312066,0
4147,7.352334520927011,0
4148,7.391269393844104,0
4149,7.402184523546297,0
4150,7.407801231897921,0
4151,7.3779268547444925,0
4152,7.360950352421054,0
4153,7.353617288911736,0
4154,7.357796168370469,0
4155,7.341431649930593,0
4156,7.352259643760236,0
4157,7.354349890199082,0
4158,7.351387222168061,0
4159,7.36066999262533,0
4160,7.3609177416028855,0
4161,7.36829205655163,0
4162,7.393071364006854,0
4163,7.370717424890709,0
4164,7.386918183950053,0
4165,7.355063474139529,0
4166,7.399030114189579,0
4167,7.386469808762929,0
4168,7.379710995206825,0
4169,7.390251100161742,0
4170,7.391227554022446,0
4171,7.393911128880322,0
4172,7.414327855635005,0
4173,7.416413030173723,0
4174,7.399236591707019,0
4175,7.407013826310947,0
4176,7.411977565393336,0
4177,7.404983996502176,0
4178,7.414746587870375,0
4179,7.425718298432693,0
4180,7.420852427379569,0
4181,7.418322951085258,0
4182,7.419244874837445,0
4183,7.452915450191652,0
4184,7.432681273984718,0
4185,7.442049662938045,0
4186,7.446583820220537,0
4187,7.426245767150155,0
4188,7.449322133544801,0
4189,7.429953455973319,0
4190,7.422723295615689,0
4191,7.430017007431365,0
4192,7.454997820248519,0
4193,7.437580585875862,0
4194,7.461725943902646,0
4195,7.442441284636592,0
4196,7.453310848023405,0
4197,7.44872985305836,0
4198,7.454985895343831,0
4199,7.482913962941282,0
4200,7.5682402359547325,0
4201,7.716174671445343,0
4202,8.036160148599384,0
4203,8.446479514478641,0
4204,9.095960279891463,0
4205,9.925701013881234,0
4206,10.952399237602297,0
4207,12.014371752553586,0
4208,13.053884631509394,0
4209,13.859335277715957,0
4210,14.345978275083016,0
4211,14.290245170799558,0
4212,13.602511980639502,0
4213,12.374564887258614,0
4214,10.790122134053927,0
4215,8.945403782824915,0
4216,7.140839459383302,0
4217,5.633880229336487,0
4218,4.680158479962833,0
4219,4.439141634062027,0
4220,4.7669756103763685,0
4221,5.537814423808062,0
4222,6.558698478697601,0
4223,7.661383353197729,0
4224,8.56963336054225,0
4225,9.018309032251105,0
4226,9.061228515406171,0
4227,8.745498766075427,0
4228,8.231800398921377,0
4229,7.6318093248562455,0
4230,7.096295192097073,0
4231,6.754640299355312,0
4232,6.681765060723823,0
4233,6.792498342176258,0
4234,7.0606913549029295,0
4235,7.345351737058185,0
4236,7.563913645818263,0
4237,7.711209441638635,0
4238,7.753607670610844,0
4239,7.714260678355713,0
4240,7.608431963029419,0
4241,7.470052886516772,0
4242,7.3847402465626555,0
4243,7.3469652828476795,0
4244,7.344047998319722,0
4245,7.370221174306161,0
4246,7.405137237133876,0
4247,7.470524611572355,0
4248,7.519031639530052,0
4249,7.53516396072647,0
4250,7.543756053496845,0
4251,7.552319239942727,0
4252,7.541475270002903,0
4253,7.560586522783148,0
4254,7.544349739750444,0
4255,7.542351850482601,0
4256,7.529906351202392,0
4257,7.538904289302137,0
4258,7.526998264871428,0
4259,7.555652449535511,0
4260,7.53074866308102,0
4261,7.515807582981466,0
4262,7.521193198886929,0
4263,7.513579583683603,0
4264,7.488192743545576,0
4265,7.490629024407811,0
4266,7.514494172681955,0
4267,7.5027810221602955,0
4268,7.501021739293905,0
4269,7.499541157836696,0
4270,7.495643131998247,0
4271,7.528697754260497,0
4272,7.504551061928552,0
4273,7.515726754863604,0
4274,7.532302201762493,0
4275,7.509300335154489,0
4276,7.530709705958475,0
4277,7.504209865542994,0
4278,7.518987669895951,0
4279,7.508750682803719,0
4280,7.501638357381743,0
4281,7.51224923701837,0
4282,7.494012044603897,0
4283,7.494410443827127,0
4284,7.5017305921592445,0
4285,7.497295214259006,0
4286,7.4887571647674225,0
4287,7.493342717615036,0
4288,7.503861651940904,0
4289,7.508698303230913,0
4290,7.501949426068485,0
4291,7.510655568555625,0
4292,7.511208728070839,0
4293,7.51988995358179,0
4294,7.514526404082654,0
4295,7.523920728312201,0
4296,7.517668817110737,0
4297,7.512922729716074,0
4298,7.521787598119538,0
4299,7.557290283638437,0
4300,7.639873138484601,0
4301,7.7757875994786625,0
4302,8.063291889637277,0
4303,8.513835409898073,0
4304,9.124134846209058,0
4305,9.984993976460341,0
4306,10.976599524423373,0
4307,12.047948948806656,0
4308,13.09056470406973,0
4309,13.920345749927323,0
4310,14.387483787957159,0
4311,14.349911620765937,0
4312,13.689416875596345,0
4313,12.453650686450725,0
4314,10.89088114620207,0
4315,9.072375539863295,0
4316,7.2393134458592945,0
4317,5.721974692835916,0
4318,4.759632420148176,0
4319,4.502092722046907,0
4320,4.810956821994401,0
4321,5.588476862827468,0
4322,6.617469795950647,0
4323,7.7028360152213935,0
4324,8.620507353510318,0
4325,9.081806703510633,0
4326,9.116678524481443,0
4327,8.814900097774906,0
4328,8.300087525205598,0
4329,7.725446945427,0
4330,7.180700737429571,0
4331,6.825691832614165,0
4332,6.758337690837879,0
4333,6.896215174675778,0
4334,7.1373565804054975,0
4335,7.384503812800536,0
4336,7.664342845300676,0
4337,7.783612769889203,0
4338,7.854943990726759,0
4339,7.783013380128939,0
4340,7.672378137462679,0
4341,7.557390926641665,0
4342,7.461485481609555,0
4343,7.408599318257621,0
4344,7.408151091703619,0
4345,7.4175977221878195,0
4346,7.485146422610121,0
4347,7.531835114594551,0
4348,7.567545127274504,0
4349,7.582791054199705,0
4350,7.5798865223070955,0
4351,7.5418975748096,0
4352,7.57159436183824,0
4353,7.541633381855581,0
4354,7.557097701419486,0
4355,7.54618211194951,0
4356,7.543829601878243,0
4357,7.5566053759688625,0
4358,7.547768842874886,0
4359,7.555820080202581,0
4360,7.542187818642724,0
4361,7.543745400361853,0
4362,7.54364761821183,0
4363,7.541032243939267,0
4364,7.523289570522861,0
4365,7.545703176526359,0
4366,7.534447474703524,0
4367,7.531097890212962,0
4368,7.51065236745867,0
4369,7.523568996192735,0
4370,7.522000461945555,0
4371,7.51902322581498,0
4372,7.515770596992308,0
4373,7.524731416838446,0
4374,7.522425690664448,0
4375,7.521813003451707,0
4376,7.527586239057124,0
4377,7.5507880115007096,0
4378,7.559242658894236,0
4379,7.5614377890880515,0
4380,7.566302280365693,0
4381,7.592319435446171,0
4382,7.60423159513048,0
4383,7.610441329986192,0
4384,7.611502557007496,0
4385,7.603966784849949,0
4386,7.586157766221367,0
4387,7.5906809268072735,0
4388,7.589002750878914,0
4389,7.5603994233903125,0
4390,7.57257770605299,0
4391,7.557897881749263,0
4392,7.5743337887790005,0
4393,7.560104159175549,0
4394,7.557763895059413,0
4395,7.554783047497133,0
4396,7.546604805525283,0
4397,7.558962130352483,0
4398,7.552639594014632,0
4399,7.590471498759612,0
4400,7.678834561060873,0
4401,7.827694161631334,0
4402,8.115783996800195,0
4403,8.538673487455782,0
4404,9.18832414808749,0
4405,10.049429653059008,0
4406,11.060026645407142,0
4407,12.135795053165097,0
4408,13.162503332142853,0
4409,14.01256926850235,0
4410,14.51141046739227,0
4411,14.472366130987108,0
4412,13.844757514870352,0
4413,12.630379652012394,0
4414,11.030757781878867,0
4415,9.222525464383732,0
4416,7.383436669193058,0
4417,5.843024356601513,0
4418,4.8402119857051,0
4419,4.560966037979034,0
4420,4.82229898448348,0
4421,5.56567450526841,0
4422,6.584629607529058,0
4423,7.684617800241193,0
4424,8.591855941456522,0
4425,9.069613799147596,0
4426,9.11233592630397,0
4427,8.822936969596514,0
4428,8.322879692025664,0
4429,7.731321870931489,0
4430,7.203572440249086,0
4431,6.8575020521355405,0
4432,6.777723474942826,0
4433,6.921396544305097,0
4434,7.195346576768633,0
4435,7.464620877272439,0
4436,7.6817744756077575,0
4437,7.853269395762274,0
4438,7.891948119446865,0
4439,7.8543195966349995,0
4440,7.747678158998236,0
4441,7.5907020938140874,0
4442,7.5295196076896405,0
4443,7.456010426451016,0
4444,7.443376569441105,0
4445,7.454426882136593,0
4446,7.5158933020086565,0
4447,7.553667680193631,0
4448,7.578906060226253,0
4449,7.5771126808997,0
4450,7.58536107536457,0
4451,7.591611917826365,0
4452,7.584632199076793,0
4453,7.569422611819483,0
4454,7.547616788459241,0
4455,7.553505598275723,0
4456,7.548101042721881,0
4457,7.545418512633927,0
4458,7.572543398968299,0
4459,7.55893664179051,0
4460,7.592350311244234,0
4461,7.57787108202617,0
4462,7.576069266591013,0
4463,7.567594955633448,0
4464,7.588498296965834,0
4465,7.586093738958781,0
4466,7.583169055880794,0
4467,7.59006258483983,0
4468,7.598078197106069,0
4469,7.598229374737757,0
4470,7.594467363321309,0
4471,7.595171131091152,0
4472,7.588683947330735,0
4473,7.6011398620828485,0
4474,7.587219458251155,0
4475,7.610055601511491,0
4476,7.58900405593298,0
4477,7.572753748405006,0
4478,7.558871055989461,0
4479,7.551619398988424,0
4480,7.558007409536089,0
4481,7.560355272038363,0
4482,7.545526585156152,0
4483,7.545005721998903,0
4484,7.552455089134997,0
4485,7.566894571857252,0
4486,7.567544141560033,0
4487,7.554162214296585,0
4488,7.583266039390862,0
4489,7.579349847626669,0
4490,7.589446514277465,0
4491,7.591711841861164,0
4492,7.590564333169914,0
4493,7.616343437308321,0
4494,7.615362266511237,0
4495,7.638115797062457,0
4496,7.62721324506383,0
4497,7.648930409495617,0
4498,7.628807549259527,0
4499,7.658480230040156,0
4500,7.735253013456886,0
4501,7.872398837118792,0
4502,8.167798548346669,0
4503,8.59792899027867,0
4504,9.211918533799528,0
4505,10.054186327630028,0
4506,11.091204576133926,0
4507,12.170139080840379,0
4508,13.189986576876112,0
4509,14.05075596747512,0
4510,14.56963457036245,0
4511,14.553286162745028,0
4512,13.933186106914505,0
4513,12.732242962407708,0
4514,11.165495342666057,0
4515,9.328212440833973,0
4516,7.511470744792641,0
4517,5.928507961280088,0
4518,4.934286530232548,0
4519,4.61221576506344,0
4520,4.886549994390167,0
4521,5.607855587380763,0
4522,6.632855915877089,0
4523,7.707056127483003,0
4524,8.639014727554478,0
4525,9.131426147739532,0
4526,9.168896499218453,0
4527,8.885168307542903,0
4528,8.390646657150247,0
4529,7.8181781914688795,0
4530,7.293943384344429,0
4531,6.932734779947903,0
4532,6.8534183720418556,0
4533,6.978670147951939,0
4534,7.230423984211229,0
4535,7.5373532621051105,0
4536,7.758997193545292,0
4537,7.929880801044346,0
4538,7.983569709041533,0
4539,7.948958330552184,0
4540,7.837073671576335,0
4541,7.707505406769926,0
4542,7.6035811071288535,0
4543,7.5707136525622465,0
4544,7.540251602507374,0
4545,7.558143090586028,0
4546,7.605880439853216,0
4547,7.646656273025915,0
4548,7.665805289818876,0
4549,7.673966877344903,0
4550,7.683061025691988,0
4551,7.667998508083202,0
4552,7.647372083972213,0
4553,7.6571559611962865,0
4554,7.648945026879162,0
4555,7.643982116986375,0
4556,7.652771537685768,0
4557,7.630428096731299,0
4558,7.630763651103336,0
4559,7.650660636184981,0
4560,7.6332811996089385,0
4561,7.643026162646856,0
4562,7.64825112092054,0
4563,7.627696991858134,0
4564,7.626342957459036,0
4565,7.6140665104243075,0
4566,7.644354716302619,0
4567,7.6294942846752605,0
4568,7.642697324796451,0
4569,7.640537050994157,0
4570,7.657272575573187,0
4571,7.662736321461267,0
4572,7.643319203368719,0
4573,7.643334084013225,0
4574,7.636133327517442,0
4575,7.657724288939741,0
4576,7.644279055062037,0
4577,7.655851340327049,0
4578,7.652476898784935,0
4579,7.657869369974806,0
4580,7.650267998250182,0
4581,7.6563287313937565,0
4582,7.649356146040318,0
4583,7.640719205023128,0
4584,7.635205360480049,0
4585,7.656437228760702,0
4586,7.636616353454444,0
4587,7.659747320124826,0
4588,7.634021552376686,0
4589,7.636638197691489,0
4590,7.643348160027386,0
4591,7.640651616668197,0
4592,7.645120670584639,0
4593,7.645351253434223,0
4594,7.6511637974145374,0
4595,7.643124446233931,0
4596,7.658203427614368,0
4597,7.659015623784804,0
4598,7.669127644447602,0
4599,7.709144071131294,0
4600,7.767497129118231,0
4601,7.932348774824509,0
4602,8.218725568819227,0
4603,8.659360423238974,0
4604,9.2896070494541,0
4605,10.138407235858834,0
4606,11.128381806701602,0
4607,12.20084111844138,0
4608,13.24710614820337,0
4609,14.090579317766345,0
4610,14.598657444098695,0
4611,14.597447199195615,0
4612,13.97089314960062,0
4613,12.78304968956973,0
4614,11.215517469183235,0
4615,9.40492588235634,0
4616,7.5692226295517955,0
4617,6.00493569740865,0
4618,4.977507925959656,0
4619,4.668596860851567,0
4620,4.9065857087985885,0
4621,5.629198067490535,0
4622,6.6703778069970046,0
4623,7.788698888977679,0
4624,8.655059663507211,0
4625,9.18344848708684,0
4626,9.22490729376424,0
4627,8.949903031725688,0
4628,8.46860087321971,0
4629,7.895372769173944,0
4630,7.353301388686454,0
4631,6.969912614419229,0
4632,6.910843502835211,0
4633,7.02033044852409,0
4634,7.285238660927905,0
4635,7.562633127407081,0
4636,7.796298523224158,0
4637,7.948444924597078,0
4638,8.026270965868896,0
4639,7.9964850574118085,0
4640,7.855762280348864,0
4641,7.723680422515845,0
4642,7.657834189797619,0
4643,7.608964555409109,0
4644,7.590094250238902,0
4645,7.597206437702987,0
4646,7.638351289333523,0
4647,7.670568159979511,0
4648,7.715338692309143,0
4649,7.719481386735254,0
4650,7.701301331427105,0
4651,7.7116523268524295,0
4652,7.698452220006397,0
4653,7.708718198977305,0
4654,7.680612903688179,0
4655,7.67021229088589,0
4656,7.6824482724922465,0
4657,7.681603243155309,0
4658,7.68971416381035,0
4659,7.7045233868513625,0
4660,7.695877713286608,0
4661,7.68779703605817,0
4662,7.686989111471021,0
4663,7.687113017646996,0
4664,7.697086199621221,0
4665,7.705738339090475,0
4666,7.71636501105037,0
4667,7.709827009015895,0
4668,7.684847966078935,0
4669,7.710459560187427,0
4670,7.724559565323786,0
4671,7.706307832217593,0
4672,7.709776314491631,0
4673,7.717214611565654,0
4674,7.739505389267539,0
4675,7.734460878664253,0
4676,7.739316234194501,0
4677,7.7261806247244325,0
4678,7.731933957939724,0
4679,7.726403337214147,0
4680,7.744051520008845,0
4681,7.741764206486451,0
4682,7.7193873244753215,0
4683,7.727174955634051,0
4684,7.733442886584503,0
4685,7.7360108614158065,0
4686,7.734273400095183,0
4687,7.720668472957539,0
4688,7.72447777531256,0
4689,7.705665434773291,0
4690,7.738953768045335,0
4691,7.722081592958848,0
4692,7.695001033094937,0
4693,7.7202678717934194,0
4694,7.71492663021048,0
4695,7.6990159697847735,0
4696,7.732267167936043,0
4697,7.727755427886874,0
4698,7.757688970735685,0
4699,7.796297460428916,0
4700,7.842908964870452,0
4701,8.021268526729122,0
4702,8.280290647268307,0
4703,8.717694335796178,0
4704,9.333965569110212,0
4705,10.175207757484506,0
4706,11.201214543885827,0
4707,12.23484052064515,0
4708,13.265197476410313,0
4709,14.129958977137328,0
4710,14.644908659862026,0
4711,14.66533409541043,0
4712,14.04164162561819,0
4713,12.900352207102923,0
4714,11.304326226112368,0
4715,9.4911976375262,0
4716,7.680072922121469,0
4717,6.113818017210966,0
4718,5.0750854864421004,0
4719,4.756491101941629,0
4720,5.020417122377052,0
4721,5.7041892748868825,0
4722,6.741489525392532,0
4723,7.843370351510131,0
4724,8.799703208935684,0
4725,9.283397871971234,0
4726,9.366252255118743,0
4727,9.104946741606616,0
4728,8.597128074544601,0
4729,8.02699614823314,0
4730,7.496049194194358,0
4731,7.10564741348095,0
4732,7.027436285442294,0
4733,7.136656721704273,0
4734,7.396875973673764,0
4735,7.683615761160336,0
4736,7.890231907149955,0
4737,8.08028528054859,0
4738,8.147959234862444,0
4739,8.10317077048651,0
4740,7.984961917172062,0
4741,7.8715877015073925,0
4742,7.771117248204789,0
4743,7.714441768012156,0
4744,7.707789283793279,0
4745,7.736934395028123,0
4746,7.766989584622329,0
4747,7.819559713805331,0
4748,7.847312588042566,0
4749,7.826749594178015,0
4750,7.861382095857248,0
4751,7.854221719764335,0
4752,7.821563706688848,0
4753,7.799322216244103,0
4754,7.7912234251008865,0
4755,7.78478000157189,0
4756,7.784046863747997,0
4757,7.802807784732459,0
4758,7.77273670136183,0
4759,7.802773322262917,0
4760,7.80832319020254,0
4761,7.808074813024722,0
4762,7.803376012886028,0
4763,7.8006598496923,0
4764,7.79717778960918,0
4765,7.797829398315409,0
