timestamp,value-0,is_anomaly
0,0.2433760952857889,0
1,4.573052591535654,0
2,4.967148825757826,0
3,-3.043116883528384,0
4,1.5534522977522647,0
5,-0.7192746177468818,0
6,0.16836377282335924,0
7,-0.12312693571709325,0
8,0.08245434881807884,0
9,0.021601736220237755,0
10,0.02636830020841739,0
11,-0.004419944327516185,0
12,-0.015116266629802137,0
13,-0.08762095646509296,0
14,-0.020054180669328653,0
15,-0.020921639232712366,0
16,0.054888381280633045,0
17,0.9565629990564944,0
18,6.425523185902013,0
19,1.6030147704891702,0
20,-1.9849894748951415,0
21,1.3670811180081928,0
22,-0.5775726189042446,0
23,0.344541966549367,0
24,0.007951709917838654,0
25,0.0769918924865112,0
26,0.07436270657304547,0
27,-0.01588665359816048,0
28,0.002438612074419616,0
29,-0.003209506671459604,0
30,0.07437316883219214,0
31,0.05449804751296358,0
32,0.03753672313488798,0
33,0.08213062422009038,0
34,2.4980735228166573,0
35,6.80140771086296,0
36,-1.7675592877008948,0
37,0.1497062379608662,0
38,0.15904548204856658,0
39,-0.14100945115998162,0
40,0.08122821194409688,0
41,0.010206557687491432,0
42,-0.017370380036617953,0
43,-0.01127086495273408,0
44,0.080457002747449,0
45,-0.016028630908961696,0
46,0.09167315245897392,0
47,0.08246130106019638,0
48,-0.06101884998365115,0
49,-0.012942874793777892,0
50,0.2942270871474342,0
51,4.563057040319665,0
52,4.974941526809166,0
53,-3.098632100835279,0
54,1.5176208099255026,0
55,-0.7607541860380994,0
56,0.22832642045632318,0
57,-0.13445091490630615,0
58,-0.014158487881287173,0
59,-0.025571857302304046,0
60,0.008655226863298691,0
61,-0.08299965676125019,0
62,-0.04022586292376756,0
63,-0.08554474768873885,0
64,-0.03602350754089987,0
65,-0.005186647958415492,0
66,-0.025970987569950137,0
67,0.9918425396161432,0
68,6.489477160447212,0
69,1.604945540286025,0
70,-1.9858983816451286,0
71,1.213308603430338,0
72,-0.627438723730007,0
73,0.2481163435831211,0
74,-0.06423683096966445,0
75,-0.030167947144367366,0
76,-0.11964204310342043,0
77,-0.15227181124349323,0
78,0.033927911919433756,0
79,0.03516541778165275,0
80,-0.05625097522405818,0
81,0.02497143386673813,0
82,-0.06875216171588817,0
83,-0.05441639309170167,0
84,2.493286814132837,0
85,6.873024332950178,0
86,-1.908858541461112,0
87,0.18760897581260952,0
88,0.08789633957542656,0
89,-0.18225130123405459,0
90,0.06827405167156295,0
91,-0.006737836384844352,0
92,-0.0262599069843383,0
93,-0.05919879233416282,0
94,0.0021334754896969246,0
95,-0.07592682251272688,0
96,-0.11675747179459156,0
97,-0.11340952300733535,0
98,-0.0029580527496841057,0
99,-0.07194111772458447,0
100,0.2591435939208532,0
101,4.583266858297396,0
102,4.863430998266585,0
103,-3.0213799511702053,0
104,1.4763620020984816,0
105,-0.7433138944258183,0
106,0.23082122795510843,0
107,-0.20806751248040534,0
108,0.04625662735265084,0
109,-0.029852043600763534,0
110,-0.0139112378224897,0
111,-0.09335490721572116,0
112,0.06725734596915009,0
113,0.021302725422706677,0
114,-0.0645335349351763,0
115,0.04340899698552273,0
116,-0.06427293099299308,0
117,1.0388190789858958,0
118,6.342376009773476,0
119,1.4464657261594687,0
120,-1.9334843402535629,0
121,1.16525944483651,0
122,-0.6342505902392607,0
123,0.35411726920406156,0
124,-0.10222976332021602,0
125,-0.009844402154189299,0
126,0.07885148016636989,0
127,0.06631945082392816,0
128,-0.05433231915324066,0
129,0.0042415572211103765,0
130,0.013876167260279484,0
131,0.00834308864815772,0
132,-0.058673925649687556,0
133,-0.05277648284504823,0
134,2.4277418595589784,0
135,6.859144994162312,0
136,-1.8928804957431606,0
137,0.16231014257040183,0
138,0.2124837618650916,0
139,-0.18506793148990305,0
140,0.061418100792185,0
141,-0.0009580422912975686,0
142,-0.02614597324513021,0
143,-0.03101108960630303,0
144,-0.06623660268487938,0
145,-0.007276454300687955,0
146,0.027179379473135215,0
147,-0.0864828730704952,0
148,-0.05035012448866252,0
149,-0.06148822187713499,0
150,0.10090371207899834,0
151,4.5886640094538595,0
152,4.888328425478225,0
153,-3.0448525278509506,0
154,1.5705324476559228,0
155,-0.6884955231529075,0
156,0.2878707734078233,0
157,-0.23091195064439404,0
158,0.025723160233469794,0
159,-0.03216780609825631,0
160,0.02669602644004786,0
161,-0.05620921676356298,0
162,-0.05674961281709465,0
163,-0.07914093435865521,0
164,0.002001590597313384,0
165,-0.08674750552503036,0
166,0.020105381197633235,0
167,1.0278561736197516,0
168,6.429705550122731,0
169,1.4871608750528489,0
170,-2.0225758407616468,0
171,1.1758302445935398,0
172,-0.697962287871969,0
173,0.23198468652385215,0
174,-0.07924772646947903,0
175,-0.04688385363835552,0
176,-0.029264871969288897,0
177,-0.051380689965359466,0
178,-0.11241903124222997,0
179,-0.034027707201159864,0
180,-0.07348725642554402,0
181,-0.030971669759357574,0
182,-0.031250910848781795,0
183,0.0022300449442013356,0
184,2.468094170320173,0
185,6.778587732494105,0
186,-1.8387264929659715,0
187,0.1950531975244012,0
188,0.15230270498058374,0
189,-0.07752413528415798,0
190,-0.07042755483288722,0
191,-0.06158699703236098,0
192,-0.03355562145888774,0
193,-0.009235360183823059,0
194,-0.025049797800057297,0
195,-0.003079283204033896,0
196,-0.06101651557751387,0
197,-0.12423159039796966,0
198,-0.06109819249056704,0
199,-0.09906212849199904,0
200,0.16119946708290897,0
201,4.522925356315887,0
202,4.840738390851885,0
203,-3.069534988306634,0
204,1.4849080553911032,0
205,-0.745301244762938,0
206,0.10190930913069282,0
207,-0.2702307821559389,0
208,0.009195684366419536,0
209,-0.22170951350866314,0
210,-0.17069188250476897,0
211,0.04578778783682336,0
212,0.005998269338563275,0
213,-0.11679541088127315,0
214,-0.04625728747026207,0
215,-0.10594783353880888,0
216,-0.05464226348321799,0
217,0.8684043360077165,0
218,6.423996897057714,0
219,1.3997105140439736,0
220,-2.0291680966465724,0
221,1.1217878144387832,0
222,-0.743155843091412,0
223,0.19760354774077055,0
224,-0.15201295995211656,0
225,0.019645302728237737,0
226,-0.053245546779287514,0
227,-0.081390291386961,0
228,-0.1313606945335641,0
229,-0.08680596873745333,0
230,-0.13209192501832795,0
231,-0.08154569209586796,0
232,-0.10296962646052894,0
233,-0.05890497073477167,0
234,2.4408624576356934,0
235,6.811853730258722,0
236,-1.8911242454860058,0
237,0.17071287624955456,0
238,0.03994898968183862,0
239,-0.2056925872494257,0
240,-0.059303003907647575,0
241,-0.08064486500461648,0
242,-0.0512989580203444,0
243,-0.03485024264602237,0
244,-0.1616326518054424,0
245,0.006953923282594671,0
246,-0.04095084073754157,0
247,-0.08538308243582994,0
248,-0.11777016116617489,0
249,-0.06902656859415784,0
250,0.24035777841010236,0
251,4.586698830461825,0
252,4.877202611114336,0
253,-3.0431424486691223,0
254,1.3849300416432797,0
255,-0.8414283530985736,0
256,0.11201934275963796,0
257,-0.20621094534156548,0
258,-0.05985714586576037,0
259,-0.04314267848157072,0
260,0.04358129662350868,0
261,-0.0702977080300468,0
262,-0.059111118916546565,0
263,-0.07248026725685208,0
264,-0.06694159356296595,0
265,-0.05206942602229964,0
266,0.06986258746525152,0
267,0.9103427958921748,0
268,6.237486490402634,0
269,1.3802353025813892,0
270,-1.976618371578558,0
271,1.200867948499254,0
272,-0.6917119018308877,0
273,0.2310905179642007,0
274,-0.23419833845201654,0
275,-0.14456435937834328,0
276,-0.07964516285351211,0
277,-0.10889954034849389,0
278,-0.13210349681108574,0
279,-0.005756366920933315,0
280,-0.033307061117645156,0
281,-0.07588051909057116,0
282,-0.08386263960521234,0
283,-0.04460491201117405,0
284,2.4236449803409497,0
285,6.675570547346104,0
286,-1.9426532304995012,0
287,0.137411994018022,0
288,0.07136175206715578,0
289,-0.1667750046988389,0
290,0.06150546056428693,0
291,-0.1100020403474641,0
292,-0.04741666867901402,0
293,-0.13671437100986913,0
294,-0.1046514430922966,0
295,-0.038550932238069546,0
296,-0.04065831057361417,0
297,-0.13902042334225528,0
298,-0.0645560203992653,0
299,-0.0067558522704586205,0
300,0.1505151258726385,0
301,4.630099378183544,0
302,4.753040419053201,0
303,-3.1990446892560316,0
304,1.4353627902359096,0
305,-0.8173131592396418,0
306,0.18793013315645424,0
307,-0.2880404332439148,0
308,9.205187401617465e-05,0
309,-0.0651024253939606,0
310,-0.01321732511796718,0
311,-0.0724355571915452,0
312,-0.12094624308738626,0
313,-0.1286297883147754,0
314,-0.07506141651659146,0
315,-0.05286022227947525,0
316,-0.18655772490396821,0
317,1.03406385743039,0
318,6.410420714024839,0
319,1.358610628001468,0
320,-2.0126883647657134,0
321,1.1527223634559487,0
322,-0.7409109408511685,0
323,0.19801423395958864,0
324,-0.18314677581945996,0
325,-0.032430246607777276,0
326,-0.07046206121067777,0
327,-0.10156136904094781,0
328,-0.07854202607166744,0
329,0.008614009100133033,0
330,-0.20370415642679274,0
331,-0.07489090300597936,0
332,-0.10887898281705555,0
333,0.05094843352706503,0
334,2.708144199126409,0
335,6.795849804442968,0
336,-1.952643554670262,0
337,0.22293997639224733,0
338,0.061912827605992614,0
339,-0.15273735993409687,0
340,0.04215999701527834,0
341,-0.07141861379961659,0
342,-0.031390277552883226,0
343,-0.012311111009195885,0
344,-0.04268291739729744,0
345,-0.03131777011068111,0
346,-0.010625703757839087,0
347,-0.005328866808181607,0
348,0.08850605557043706,0
349,0.01396347870329214,0
350,0.3376383148229142,0
351,4.629302310205904,0
352,4.923082968718524,0
353,-2.917511575865978,0
354,1.5246753274399782,0
355,-0.7106852805983099,0
356,0.35660555985241776,0
357,-0.01140335346708194,0
358,0.08154291561591906,0
359,-0.002536179430423696,0
360,0.04083811231245422,0
361,0.1711289989564679,0
362,0.047742377104482946,0
363,0.009223862778315575,0
364,0.06222569724776075,0
365,0.05053153047958658,0
366,0.016164771785273355,0
367,1.0439623106248619,0
368,6.497610554303178,0
369,1.4204463076114808,0
370,-1.857039977922477,0
371,1.1740550185782939,0
372,-0.6198208306436859,0
373,0.3203444893036137,0
374,-0.0510762344018315,0
375,0.08044458385553052,0
376,0.11071832770601416,0
377,-0.04605223966246948,0
378,0.039863854474486246,0
379,0.12083464587735626,0
380,0.02713727873377283,0
381,0.051100668536505585,0
382,0.04502806912909571,0
383,0.06941649306069378,0
384,2.617297805763223,0
385,6.994894916096402,0
386,-1.8545077833439263,0
387,0.3084032423483548,0
388,0.07821408446585337,0
389,-0.018692886313341213,0
390,0.0968099033061304,0
391,0.16788193166258147,0
392,0.007432986450933814,0
393,0.07388131837173478,0
394,0.035233585119345795,0
395,0.04862875422586006,0
396,0.043381067095142375,0
397,-0.002047337248570813,0
398,0.08969057759311252,0
399,0.0880008340515185,0
400,0.309650305656961,0
401,4.7544240203804495,0
402,4.9689787955134195,0
403,-3.0236702660855226,0
404,1.6432460461820437,0
405,-0.6451297368679125,0
406,0.43306006156314186,0
407,0.0086735421696871,0
408,0.06830383102813374,0
409,0.0683426394436658,0
410,0.0391591446972813,0
411,0.0493616394820212,0
412,0.0963978102379736,0
413,0.0841695011335354,0
414,0.15547668395776088,0
415,0.04212154338280871,0
416,0.08875911675193524,0
417,1.0818219330301588,0
418,6.544919044132043,0
419,1.4173444982730987,0
420,-1.8856839839926547,0
421,1.3319605714093874,0
422,-0.5338288874776753,0
423,0.2072133002726485,0
424,-0.03147246684691762,0
425,0.07611601447881006,0
426,0.12804080135348003,0
427,0.08252810402058908,0
428,0.03146705128866536,0
429,0.1964099415891239,0
430,0.08786148844734436,0
431,0.09187027510292997,0
432,0.05131180140414072,0
433,0.14641907367820028,0
434,2.7028575783589064,0
435,6.96107031171739,0
436,-1.9070995666945598,0
437,0.32486410975975155,0
438,0.18161203635826867,0
439,0.003610334891432452,0
440,0.15498240328406973,0
441,0.09502128367770771,0
442,-0.024024526538341986,0
443,0.12735276293425302,0
444,0.09231476941534547,0
445,0.2186173226363023,0
446,0.06824712473841413,0
447,0.14598462342718824,0
448,0.1219292546338756,0
449,0.16653240635792657,0
450,0.4417114401238326,0
451,4.847457205276514,0
452,4.944417818361942,0
453,-2.8901940728615263,0
454,1.6756025811147883,0
455,-0.6068618710368183,0
456,0.3838968511363656,0
457,0.04641702506623558,0
458,0.21443977582581975,0
459,0.13915183134288686,0
460,0.127146301507375,0
461,0.07087097445907115,0
462,0.04078798582210538,0
463,0.10396073770951014,0
464,0.17219193786121367,0
465,-0.017465732879458865,0
466,0.1536241892780672,0
467,1.2201778858710264,0
468,6.6330376287836685,0
469,1.3613433818087193,0
470,-1.8086743145540551,0
471,1.2607362453908202,0
472,-0.576455279739061,0
473,0.3340553031948551,0
474,-0.06013419623907087,0
475,0.086421633545058,0
476,0.10149484648590701,0
477,0.183128705368859,0
478,0.0871055493929683,0
479,0.08938934828558123,0
480,-0.018959509839861846,0
481,0.09560650771938839,0
482,0.022082960709057325,0
483,0.19799105319633142,0
484,2.7020972700560417,0
485,6.897108949206618,0
486,-1.8711121978463297,0
487,0.455479923108725,0
488,0.1665695968552011,0
489,-0.09961770204221408,0
490,0.05110628364763997,0
491,0.12117601061007299,0
492,0.11300210216105944,0
493,0.05495991022294851,0
494,0.09687376060017995,0
495,0.17209797230034782,0
496,0.1441485270451249,0
497,0.0778469375220224,0
498,0.13244905836793874,0
499,0.1426864545507009,0
500,0.3832501052351651,0
501,4.838061973638778,0
502,4.885238051390605,0
503,-2.9758703893775764,0
504,1.6576613190805798,0
505,-0.6045245089889165,0
506,0.34368480641582205,0
507,-0.040655322868095756,0
508,0.14087815436275705,0
509,0.15807732591672452,0
510,0.049320460716812245,0
511,0.07405212871053163,0
512,0.08954165403320814,0
513,0.06651279952549519,0
514,0.11350224721301092,0
515,0.030126549376042422,0
516,0.07381246992022344,0
517,1.1808051897508944,0
518,6.5757040242214915,0
519,1.3668345226736645,0
520,-1.8287003064081426,0
521,1.2715302630038254,0
522,-0.475897367745018,0
523,0.39958005030307686,0
524,0.00038958239782582683,0
525,0.10310105709813525,0
526,0.08414276212338695,0
527,0.09021223934174823,0
528,-0.0017288724914712034,0
529,0.06581107574508041,0
530,0.016133744805403534,0
531,0.15010155421778595,0
532,0.04359195342993091,0
533,0.17211166810232753,0
534,2.6098211355337964,0
535,6.813101420694218,0
536,-1.8698714009634627,0
537,0.3489595519300851,0
538,0.16936657883288403,0
539,0.03397164587770806,0
540,0.02374758230030087,0
541,0.0521328732015349,0
542,-0.050978177661469934,0
543,0.04325366863849052,0
544,0.05086315659308902,0
545,-0.004126989351182234,0
546,0.03464160231411206,0
547,0.011716953870719658,0
548,0.052658749715384,0
549,0.02127030938787986,0
550,0.34121383978093267,0
551,4.779518180209017,0
552,4.7997315630849045,0
553,-3.013798716400304,0
554,1.5503617845919695,0
555,-0.5993533209464115,0
556,0.35878638610090985,0
557,0.01780335730449084,0
558,0.11601284995097738,0
559,0.08673836917422657,0
560,0.13703792234805645,0
561,0.13916508504815067,0
562,0.14971467105610367,0
563,0.04605849694713073,0
564,0.13241032197028618,0
565,0.0647803849108735,0
566,0.13399939496864907,0
567,1.132428885639317,0
568,6.620753786493573,0
569,1.3779032440619523,0
570,-1.771494233003719,0
571,1.2111567337851914,0
572,-0.469491141313376,0
573,0.2429790808297826,0
574,0.0015243024198606913,0
575,0.09169993014606362,0
576,0.07367075317228897,0
577,0.08260748914408508,0
578,0.09399632816249673,0
579,0.04801034923455325,0
580,0.05933071709917308,0
581,0.01954265314875074,0
582,0.14915589255837863,0
583,0.05221801795456254,0
584,2.605674320420761,0
585,6.861081499214084,0
586,-1.8967299772669397,0
587,0.36029144367144594,0
588,0.167941436419162,0
589,0.019395165679648607,0
590,-0.057242047700715754,0
591,0.14935768794487403,0
592,0.09664381532584956,0
593,0.07136983006500548,0
594,0.057300593592041885,0
595,0.12149864734156642,0
596,0.05620828960935306,0
597,0.012064684448396625,0
598,0.05212124354054127,0
599,0.005365949861712481,0
600,0.33664976837870486,0
601,4.838132998896625,0
602,4.724362203223821,0
603,-2.9511386879043564,0
604,1.628732698955459,0
605,-0.7288445479684978,0
606,0.26161501740594895,0
607,-0.003435469193115992,0
608,-0.020349245494264832,0
609,0.014768380373279799,0
610,-0.008106403608117003,0
611,0.0047950373633287025,0
612,0.020876885879413793,0
613,0.01667450788346104,0
614,0.02988428949040138,0
615,0.05721536316282,0
616,0.01389029282464685,0
617,1.1949610730495022,0
618,6.614835371756149,0
619,1.2945801081285029,0
620,-1.723242397650483,0
621,1.2271072828096279,0
622,-0.5397795151527294,0
623,0.22250800413122024,0
624,-0.14952361126251412,0
625,-0.058719155821966657,0
626,0.027496893772891426,0
627,0.023694816792366537,0
628,0.032155438488716284,0
629,-0.07694501825270823,0
630,-0.048364765472349185,0
631,-0.0924319401559513,0
632,-0.06005857710146651,0
633,0.016283229485445534,0
634,2.597153700238311,0
635,6.77313868867097,0
636,-1.916440474139924,0
637,0.17676111959872315,0
638,-0.003276296404405396,0
639,-0.0644743995025828,0
640,-0.02298245486415858,0
641,0.058139781124593094,0
642,-0.004095816643070336,0
643,0.04622484396596368,0
644,0.05189699315121508,0
645,-0.017699229894960002,0
646,0.010516412250324342,0
647,0.04234924187300161,0
648,0.08434815003144654,0
649,0.026375252486124715,0
650,0.31719932110645155,0
651,4.773450677809992,0
652,4.755845207489597,0
653,-2.943216526142007,0
654,1.673220968637123,0
655,-0.7187601528384379,0
656,0.3587836067188553,0
657,-0.09332010210329868,0
658,-0.027313955199770347,0
659,-0.11259444725206805,0
660,0.10381176775577454,0
661,0.0018052527772527902,0
662,0.02304188519579746,0
663,-0.05662346587735976,0
664,0.002507541539211521,0
665,-0.08899967687723737,0
666,-0.05926476257228944,0
667,1.0781386356499627,0
668,6.518090540195774,0
669,1.2170038446272335,0
670,-1.8891131364831182,0
671,1.1718233784992425,0
672,-0.6342637051551582,0
673,0.15165504069692567,0
674,-0.09800824971231224,0
675,-0.0029414508544236308,0
676,-0.06403262336371757,0
677,-0.04602070127867848,0
678,-0.02040250986674987,0
679,0.008677148387858803,0
680,-0.10464905088700256,0
681,-0.056308231694709575,0
682,-0.0907490916329006,0
683,-0.07458074088256877,0
684,2.657838157052953,0
685,6.701989631336192,0
686,-1.9696950136462656,0
687,0.24878528241133713,0
688,0.09008353298708033,0
689,-0.028684208278436818,0
690,-0.007297275792195534,0
691,-0.07121234354400882,0
692,-0.0966019709128142,0
693,-0.09844671695493258,0
694,-0.014011094293457895,0
695,-0.03621709154275417,0
696,-0.06768601685946057,0
697,-0.04356271812248634,0
698,0.009788606801291524,0
699,-7.203484819042622e-05,0
700,0.1652078894653836,0
701,4.7338180169453015,0
702,4.649991656824858,0
703,-3.081594201712235,0
704,1.5448218989685765,0
705,-0.7917412600517371,0
706,0.17182770675803374,0
707,-0.05608334270964878,0
708,-0.0053342782404270685,0
709,-0.08590806068280053,0
710,-0.13004371419625713,0
711,-0.13704139861289172,0
712,0.011604339207775413,0
713,-0.04703138877055939,0
714,-0.12321323918755372,0
715,-0.08477327990472383,0
716,-0.05025025272040734,0
717,1.0645843739299292,0
718,6.47101589622774,0
719,1.1582029144847679,0
720,-1.8358583142291023,0
721,1.1209823837127093,0
722,-0.6788635695791577,0
723,0.1444220789674479,0
724,-0.17707067714780936,0
725,-0.016247643141617807,0
726,-0.1091911142066715,0
727,-0.05329663503247029,0
728,-0.11328614847177723,0
729,-0.044601739755019944,0
730,-0.11417953289927313,0
731,-0.06600873000675882,0
732,-0.03597517070454055,0
733,-0.04204893058254458,0
734,2.6394623978023515,0
735,6.658522422634371,0
736,-2.081169727702794,0
737,0.22169890238261425,0
738,-0.09451330397783483,0
739,-0.13172099028170434,0
740,-0.0937832774203923,0
741,-0.008857798610849475,0
742,0.017278928410421557,0
743,-0.058414757013851556,0
744,-0.13025610720497946,0
745,-0.08990449906141991,0
746,-0.1219561012369305,0
747,-0.0587025353228363,0
748,-0.051044640972991995,0
749,0.017589398782894283,0
750,0.3352203858791883,0
751,4.797955798621333,0
752,4.6710061453275005,0
753,-2.9781383484369153,0
754,1.5957791066802016,0
755,-0.7671541701064745,0
756,0.30582645606675996,0
757,-0.14990517052267788,0
758,-0.0523628131063571,0
759,-0.04319235889006402,0
760,0.01884615307779577,0
761,-0.03719666065068725,0
762,-0.015262710875089586,0
763,-0.07310795700417165,0
764,-0.02060552224962967,0
765,0.039132625917738154,0
766,-0.06137550974581084,0
767,1.1471174679077132,0
768,6.3843229578960194,0
769,1.1266631674216112,0
770,-1.7242921136867522,0
771,1.1242227626335655,0
772,-0.5044511687028663,0
773,0.28210865112979144,0
774,-0.16139972791446297,0
775,-0.022051249292725967,0
776,0.0030858264532273617,0
777,-0.004781222956809158,0
778,-0.0029069090725939157,0
779,0.06336611297048741,0
780,0.066591311868424,0
781,-0.01891642018581137,0
782,0.03753608141659633,0
783,0.043505714979912284,0
784,2.7778666132760237,0
785,6.74681108221003,0
786,-2.065808812207371,0
787,0.40827300634215347,0
788,0.033250120647150716,0
789,-0.07772150161872031,0
790,0.05427430948100158,0
791,0.007572548210905843,0
792,0.11600295752261532,0
793,0.04404082185302343,0
794,-0.04699629585712634,0
795,-0.017937856487693887,0
796,-0.006271054366220443,0
797,0.012777789938268008,0
798,-0.05644875663500112,0
799,-0.015968440234373014,0
800,0.2625792268016289,0
801,4.831519078563851,0
802,4.673986151636415,0
803,-3.0012706076869997,0
804,1.45632899645872,0
805,-0.7619963365144892,0
806,0.23553171683713262,0
807,-0.11582541532166499,0
808,0.0038944301593097017,0
809,-0.010703433699534031,0
810,0.03105814687320823,0
811,0.01770954897764772,0
812,-0.040731268850751665,0
813,0.0606910924520942,0
814,-0.055938084782689156,0
815,-0.027070875105886454,0
816,-0.03616292971344243,0
817,1.130037519587403,0
818,6.600643016058914,0
819,1.1502931686897422,0
820,-1.7037878593566966,0
821,1.196293553749939,0
822,-0.5771087440188826,0
823,0.25845245330897043,0
824,-0.05423900554838817,0
825,-0.01619036784838444,0
826,-0.036270119351374364,0
827,-0.05940475835729364,0
828,0.009747661162984372,0
829,0.026696652890728232,0
830,0.05578196821151463,0
831,0.04286824673945503,0
832,-0.024832295624542033,0
833,0.07061433198289095,0
834,2.7428740385855814,0
835,6.698670579580958,0
836,-2.0172591067713883,0
837,0.31326224500271427,0
838,0.027854158823733488,0
839,-0.027820916781144688,0
840,-0.018732786230478846,0
841,-0.0258969818339863,0
842,-0.028652129601818423,0
843,-0.022846628122399085,0
844,0.02363468163600852,0
845,0.052980721131820716,0
846,0.0009635289461589411,0
847,-0.03695171508446007,0
848,0.0021054567035168146,0
849,-0.02387185140989647,0
850,0.27853118434273333,0
851,4.813853686935958,0
852,4.682399908699854,0
853,-3.0265353539040123,0
854,1.614449445060601,0
855,-0.7355763064632986,0
856,0.3848982737273259,0
857,-0.08010300575478024,0
858,0.08072292983401791,0
859,0.057908278406148456,0
860,0.02998930458505955,0
861,-0.03000853049341877,0
862,0.02882388560930045,0
863,0.1555028226979094,0
864,-0.04790425552165429,0
865,0.004089107362773861,0
866,0.05103359782281397,0
867,1.169274615089491,0
868,6.602153068728126,0
869,1.1892919028065478,0
870,-1.6481778122671995,0
871,1.1520367405863898,0
872,-0.5793723750772264,0
873,0.303455295315815,0
874,-0.1206408728375451,0
875,0.08361311535130686,0
876,0.061115582430896105,0
877,-0.0007980071827190516,0
878,0.025453300854824286,0
879,-0.06137351516181757,0
880,0.00972694245595496,0
881,0.032584261480823634,0
882,0.03187952369168144,0
883,0.0453781323741267,0
884,2.715678668184002,0
885,6.786718713260224,0
886,-2.0818230776714137,0
887,0.3391562880436696,0
888,0.030856608286379872,0
889,-0.0898253183055023,0
890,0.03964204321098357,0
891,0.04950485565726293,0
892,0.0730201171573894,0
893,0.022981464601047392,0
894,0.005672833651409331,0
895,0.0956128048173443,0
896,0.04211784929856524,0
897,0.03286492481364184,0
898,0.17490639605414376,0
899,0.16559001469360385,0
900,0.3555000988127326,0
901,4.9461144594792525,0
902,4.886334293585041,0
903,-2.8946304257304662,0
904,1.6598747066773594,0
905,-0.7274402699997085,0
906,0.4797135816969593,0
907,0.013418469418195814,0
908,0.1905452160241052,0
909,0.00640254687860458,0
910,0.01098032681982821,0
911,0.0836809364046838,0
912,0.03201902738209601,0
913,0.043305760801204664,0
914,-0.015223618261674912,0
915,0.062296281646608734,0
916,0.009664346138492517,0
917,1.1789182273685144,0
918,6.624418587296629,0
919,1.0757377233332173,0
920,-1.642214151454932,0
921,1.1259214742747798,0
922,-0.5472316045075608,0
923,0.3124986505546946,0
924,-0.08240417662601139,0
925,0.07883590691413773,0
926,-0.057352348491865386,0
927,-0.041490187000104706,0
928,-0.1140574074542946,0
929,0.00043210780552678345,0
930,0.015257540076633633,0
931,-0.014342635978903477,0
932,0.010839218778996698,0
933,0.06084785050051326,0
934,2.674066698722258,0
935,6.692227112533197,0
936,-2.1020108408659226,0
937,0.4510218631965793,0
938,0.01399388880053435,0
939,0.05771788392844394,0
940,-0.00367657422329503,0
941,-0.006471009883716315,0
942,0.050285788744281454,0
943,0.04691933284419003,0
944,0.0809293753791693,0
945,-0.013375962493452874,0
946,0.04978446366139883,0
947,0.005699662766784817,0
948,0.03400578058524349,0
949,0.017968912533511676,0
950,0.3853990004411738,0
951,4.8383748115532415,0
952,4.664969028608339,0
953,-2.930832234360787,0
954,1.7052122361559445,0
955,-0.7025057774460949,0
956,0.34547099092036315,0
957,-0.09051410197699658,0
958,0.07458755085356918,0
959,0.043330995975087334,0
960,-0.037715604610431705,0
961,0.0343204548887481,0
962,-0.03512003646903597,0
963,0.01946100508912124,0
964,0.11189028863397202,0
965,0.0010629420857294625,0
966,0.0035502039598588296,0
967,1.1234577224740991,0
968,6.5651343366046,0
969,1.1439717974012547,0
970,-1.730767864129573,0
971,1.1801012651586333,0
972,-0.5830431415352437,0
973,0.3059474391639343,0
974,-0.03443559635416047,0
975,0.01122170011299877,0
976,0.046791099159371574,0
977,0.00873242539371181,0
978,0.01836596036568741,0
979,-0.05640139460151158,0
980,0.018651550600430847,0
981,0.007095829927973328,0
982,0.027311835333639373,0
983,0.05651096922217924,0
984,2.7791724243931135,0
985,6.814315439079571,0
986,-2.1319520762132287,0
987,0.3741750979464881,0
988,0.03247006239986241,0
989,-0.007207575686253846,0
990,0.07460001381117101,0
991,0.13250514720417902,0
992,-0.0566872842568953,0
993,-0.0264830402333726,0
994,0.03886356467310374,0
995,0.0028196806490838368,0
996,-0.05927236412860624,0
997,-0.01404842751747877,0
998,0.05251401686853944,0
999,-0.015223555968449133,0
1000,0.37059576977264375,0
1001,4.864239340508254,0
1002,4.678467457428807,0
1003,-2.964233144220013,0
1004,1.548960872834947,0
1005,-0.7416662560917778,0
1006,0.29108632043644206,0
1007,-0.09021096605093927,0
1008,-0.013592972356638804,0
1009,0.008021352902508987,0
1010,-0.02629566210181954,0
1011,0.08344094989972904,0
1012,0.0048942216879547615,0
1013,0.000500790997468371,0
1014,0.03536015812030263,0
1015,-0.002901686878052057,0
1016,-0.08905004867289079,0
1017,1.0958938292557445,0
1018,6.641203437324258,0
1019,0.9340005090793997,0
1020,-1.6335717839894857,0
1021,1.1005358522432576,0
1022,-0.5834535941356648,0
1023,0.2815320299607143,0
1024,-0.10816182574866395,0
1025,0.06170428143764903,0
1026,-0.0022930847719411507,0
1027,0.004619992570115843,0
1028,0.012025860990150048,0
1029,0.07252160581989044,0
1030,0.052017947076695,0
1031,0.12978672154045057,0
1032,0.05722832947360711,0
1033,0.24230199493322818,0
1034,2.792881690827071,0
1035,6.818320053659064,0
1036,-1.950135538893159,0
1037,0.49299008210990813,0
1038,0.0025012194120997283,0
1039,0.06648738164596937,0
1040,-0.006200605074644622,0
1041,-0.0036750652012717266,0
1042,0.0006838132008958886,0
1043,0.04203425173390881,0
1044,0.035477530215306655,0
1045,-0.05803180687932026,0
1046,0.022890406674933764,0
1047,0.054639735428802516,0
1048,0.04983066296465138,0
1049,0.0016573717294703152,0
1050,0.3538688226260876,0
1051,4.783175894697988,0
1052,4.450873056270119,0
1053,-2.964813042237899,0
1054,1.4214362794428284,0
1055,-0.7192982820338634,0
1056,0.3094946648431066,0
1057,-0.19648527956833828,0
1058,-0.03358495284258861,0
1059,-0.07033063950839841,0
1060,-0.021222469551339336,0
1061,-7.752208071648212e-06,0
1062,-0.06661039711401061,0
1063,0.03046762391507729,0
1064,-0.028075597316970183,0
1065,0.11101258358528461,0
1066,0.0013438310296361973,0
1067,1.162729427118947,0
1068,6.588188792668894,0
1069,1.0015257895913716,0
1070,-1.6767896063885248,0
1071,1.096234891627772,0
1072,-0.6150666253720557,0
1073,0.2744702762406605,0
1074,-0.09011365361529403,0
1075,0.028647160528155653,0
1076,-0.05802448981893793,0
1077,-0.11374425695834886,0
1078,-0.14041487618996215,0
1079,-0.06892170907583751,0
1080,-0.09476159526563693,0
1081,-0.025811880816131453,0
1082,-0.09723767169488469,0
1083,0.0771899869099481,0
1084,2.7668090004107477,0
1085,6.8537285005199235,0
1086,-2.0983741168484715,0
1087,0.4936343202937266,0
1088,0.07454344755989165,0
1089,0.038746161213643056,0
1090,0.09713812146689262,0
1091,0.06068637396047648,0
1092,0.05235874472551678,0
1093,0.0085748375229893,0
1094,-0.006102921381428553,0
1095,0.12238457181101978,0
1096,0.03490730802162809,0
1097,-0.0011324047365425596,0
1098,0.00940348315146583,0
1099,-0.0314427993931103,0
1100,0.3774190663785285,0
1101,4.977491432758898,0
1102,4.616680565584659,0
1103,-3.0300636706498034,0
1104,1.6202903199170493,0
1105,-0.7517340520764623,0
1106,0.3012565318287642,0
1107,-0.11660327349482812,0
1108,0.0076309355938877915,0
1109,-0.07598537534479557,0
1110,0.013760073346164841,0
1111,-0.04416411929312948,0
1112,0.04904775633152809,0
1113,-0.09315955274972076,0
1114,-0.10491709298366723,0
1115,-0.03934623535985515,0
1116,-0.0814913550512972,0
1117,1.1684265027141916,0
1118,6.564032923400709,0
1119,1.0022427600509103,0
1120,-1.6120815201722096,0
1121,1.0706136782981028,0
1122,-0.5713931359961867,0
1123,0.1815620947460496,0
1124,-0.03393036518993982,0
1125,0.042814524491913884,0
1126,-0.035349244709308,0
1127,0.028034642211267974,0
1128,-0.006870329805822134,0
1129,-0.07391586018624607,0
1130,-0.0014585266147417193,0
1131,0.0008174476304353027,0
1132,0.12218374373776512,0
1133,0.056199156330127065,0
1134,2.8440978596725754,0
1135,6.776278759027386,0
1136,-2.1134031431442564,0
1137,0.46561966687497347,0
1138,0.019005058826193133,0
1139,-0.1746498236681174,0
1140,-0.03587448319027253,0
1141,0.0430002819000921,0
1142,0.04604758032282018,0
1143,0.04911890954426663,0
1144,0.01298031723084364,0
1145,-0.022115828764859843,0
1146,0.031988816618139564,0
1147,0.05408749377663388,0
1148,-0.038003905212482036,0
1149,0.03543429789782862,0
1150,0.334760945019809,0
1151,4.815047463000226,0
1152,4.492623088576671,0
1153,-2.999314173029431,0
1154,1.4851889565179246,0
1155,-0.7787682427725041,0
1156,0.3145028728061108,0
1157,-0.09564998044075917,0
1158,0.009235216693104367,0
1159,-0.0007619781838485579,0
1160,0.012162274921826192,0
1161,-0.011247501229223824,0
1162,-0.09219078498916643,0
1163,0.007317301878508729,0
1164,-0.011225096659980303,0
1165,-0.08532544541466752,0
1166,-0.09724439907291746,0
1167,1.1166016671550725,0
1168,6.69035512093156,0
1169,0.9119216794900806,0
1170,-1.6432169520262971,0
1171,1.1300173061531158,0
1172,-0.5561942744768098,0
1173,0.20997932128905128,0
1174,-0.143122138621755,0
1175,-0.031721562841877854,0
1176,-0.1170511899832307,0
1177,-0.022574689212399305,0
1178,0.09686221368297643,0
1179,0.12137331358114206,0
1180,0.023684878022060825,0
1181,0.028095373978908086,0
1182,0.0572438386613036,0
1183,0.10176269120282355,0
1184,2.8174917127102908,0
1185,6.809543561783197,0
1186,-2.1049893121178354,0
1187,0.5077888564552919,0
1188,-0.015217366875062381,0
1189,-0.035080123313737485,0
1190,0.0713120333737769,0
1191,0.016116087746157505,0
1192,0.019111795825314273,0
1193,0.02027196609628993,0
1194,0.014985430099676365,0
1195,0.07100784404117015,0
1196,-0.0033032003653801906,0
1197,0.09292725781115306,0
1198,-0.09846031854487097,0
1199,-0.046382461222326074,0
1200,0.3934751971354403,0
1201,4.935602468125826,0
1202,4.492525835924586,0
1203,-3.046938726993286,0
1204,1.550447418642051,0
1205,-0.7817884396501255,0
1206,0.355292580150113,0
1207,-0.12882668898438843,0
1208,0.017701830737173976,0
1209,0.12194082685854259,0
1210,0.00010164980496727306,0
1211,-0.05621262145299714,0
1212,0.034150366379228206,0
1213,-0.06543342801509303,0
1214,-0.09391555815594954,0
1215,-0.0400743941511873,0
1216,0.01765928297953095,0
1217,1.0862511113290705,0
1218,6.636105566930326,0
1219,1.0196358523474014,0
1220,-1.7210952348413477,0
1221,1.1502472194691877,0
1222,-0.5730110110032637,0
1223,0.14222726266124258,0
1224,-0.06474735078905727,0
1225,-0.03787959294121552,0
1226,-0.04211533767534906,0
1227,0.0040132953270608195,0
1228,-0.02946436124235342,0
1229,0.0018763172262328653,0
1230,0.04727167182819235,0
1231,-0.043060597748201965,0
1232,0.03332144281666845,0
1233,0.0993704229056055,0
1234,2.7527294914433207,0
1235,6.741511739369215,0
1236,-2.1756640999064283,0
1237,0.4388264035096104,0
1238,0.01288515650775035,0
1239,-0.13231516804675234,0
1240,-0.01889316951708047,0
1241,-0.0699295575776923,0
1242,0.06874036157884905,0
1243,0.03115807335445005,0
1244,0.043773574961781234,0
1245,-0.06257424212971993,0
1246,-0.043092900865976565,0
1247,-0.03426186761540913,0
1248,-0.03491202313275015,0
1249,0.009354467672768445,0
1250,0.32276988475843293,0
1251,4.927317177302,0
1252,4.5436289678189885,0
1253,-2.971729546993253,0
1254,1.5679705467676441,0
1255,-0.6933655849278116,0
1256,0.3150729297738073,0
1257,-0.0857922968532844,0
1258,0.015847130771048833,0
1259,-0.010659957216945877,0
1260,0.0224771297265697,0
1261,0.01865059996683052,0
1262,-0.012784412451885491,0
1263,0.014752765113377486,0
1264,-0.03513637452768922,0
1265,0.09497144611860167,0
1266,0.047943649823790124,0
1267,1.1713152331250054,0
1268,6.65702198512284,0
1269,0.9325777522379208,0
1270,-1.5854299270767978,0
1271,1.127630932752808,0
1272,-0.4918588363940194,0
1273,0.23963438350039754,0
1274,0.05135078789211051,0
1275,0.11569298583750823,0
1276,0.17473970549354856,0
1277,0.0860225424154478,0
1278,0.08242037283858095,0
1279,0.11457259651834195,0
1280,0.056094693405018756,0
1281,0.05344573408538234,0
1282,0.018055375979025012,0
1283,0.09101869955919382,0
1284,2.909079974789422,0
1285,6.752147640613236,0
1286,-2.107897004628553,0
1287,0.49907902696583256,0
1288,-0.00192388217990797,0
1289,-0.05129931380215948,0
1290,0.06518540622740225,0
1291,-0.022673425858191203,0
1292,0.02576786284218918,0
1293,0.018986683474685385,0
1294,0.01067752411716976,0
1295,-0.0025237032843795104,0
1296,0.07702047005504518,0
1297,0.027809713152884084,0
1298,-0.10957511812599369,0
1299,-0.08022504423768234,0
1300,0.3260524832775696,0
1301,5.00386320272214,0
1302,4.567072992603052,0
1303,-3.018733955419797,0
1304,1.5530261060121089,0
1305,-0.8710860953817589,0
1306,0.32260546168759313,0
1307,-0.11649675067197746,0
1308,0.01962243799768012,0
1309,-0.0952411509190896,0
1310,-0.05277715390180074,0
1311,0.008266483078407213,0
1312,0.019068352348841973,0
1313,0.08352914117856555,0
1314,-0.006694536623722776,0
1315,0.06343943127965722,0
1316,0.009404453806740182,0
1317,1.270705893119603,0
1318,6.689247407131536,0
1319,0.8853344924230365,0
1320,-1.5930827121775186,0
1321,1.1609007662229789,0
1322,-0.5538102696789358,0
1323,0.30052433082127983,0
1324,0.07240212721008257,0
1325,0.02581015831241374,0
1326,-0.031489239487079386,0
1327,0.02561899895748959,0
1328,-0.0587017178040115,0
1329,0.08970447106825269,0
1330,-0.03024346599549654,0
1331,-0.03839849299632591,0
1332,-0.050582391348594186,0
1333,0.07098014640965487,0
1334,2.9034691538807427,0
1335,6.656303702166387,0
1336,-2.1453423299726717,0
1337,0.5432073558472109,0
1338,-0.058473138496181416,0
1339,-0.06342289321912649,0
1340,0.04115687105759907,0
1341,-0.0028458144373438403,0
1342,0.06611041353327222,0
1343,0.11049667992568205,0
1344,-0.015375167790746287,0
1345,-0.035279963399775315,0
1346,0.01217851882149564,0
1347,-0.036016747204628996,0
1348,0.037833327453365574,0
1349,0.020850388368180955,0
1350,0.3741558974423684,0
1351,4.931498255824786,0
1352,4.4385721249860355,0
1353,-2.887354035351725,0
1354,1.4848676933882718,0
1355,-0.7013071834258757,0
1356,0.37733205730686115,0
1357,-0.21060662855327555,0
1358,-0.028403657431039814,0
1359,-0.1028929401621167,0
1360,-0.0615938953391109,0
1361,-0.10641652521996191,0
1362,-0.06744780293574433,0
1363,-0.009191012712100509,0
1364,0.018593972778903397,0
1365,-0.027928309795260606,0
1366,-0.05867096671316277,0
1367,1.159981999991797,0
1368,6.727949561658466,0
1369,1.0094972223330814,0
1370,-1.5557368238347848,0
1371,1.1343768567212271,0
1372,-0.49980603342959706,0
1373,0.2200642581044407,0
1374,-0.08122177248041466,0
1375,0.06222717509472146,0
1376,0.03502205999028965,0
1377,0.06206977495329387,0
1378,-0.0066790025598253665,0
1379,0.04616834003557206,0
1380,-0.015173202656592676,0
1381,-0.015048762337738757,0
1382,-0.04161488667795733,0
1383,0.11309014420008963,0
1384,2.7805085507071694,0
1385,6.637723506592324,0
1386,-2.2558757972913517,0
1387,0.5239864128910189,0
1388,-0.09458780821851895,0
1389,-0.10445904192973876,0
1390,-0.09692346404808949,0
1391,0.018016617909057828,0
1392,-0.16488211490510116,0
1393,-0.08641069107291988,0
1394,-0.020124041571364194,0
1395,-0.0360806227889142,0
1396,0.020839422749181602,0
1397,0.015137212797143846,0
1398,0.018587421908565372,0
1399,-0.03399842236566357,0
1400,0.4157497048788338,0
1401,4.965072355292034,0
1402,4.524258660819629,0
1403,-2.9040916661415057,0
1404,1.6730288698133662,0
1405,-0.7541419280797049,0
1406,0.401601617124359,0
1407,-0.17715485732161984,0
1408,0.1064954942883235,0
1409,0.041783154140660014,0
1410,-0.027415716219722504,0
1411,0.06698942325304279,0
1412,0.08164810459814369,0
1413,0.04211672272315382,0
1414,-0.04702862325207116,0
1415,-0.04572111664352716,0
1416,0.12186379882848192,0
1417,1.1498751536112701,0
1418,6.66386286187614,0
1419,0.8443730583989695,0
1420,-1.533504554252412,0
1421,1.154638580484243,0
1422,-0.5705052786804474,0
1423,0.2508321013565873,0
1424,-0.06684967248561785,0
1425,0.0809028735533613,0
1426,-0.025390876351125205,0
1427,0.06812673392456468,0
1428,0.015126794475588028,0
1429,-0.02763360747811308,0
1430,-0.13896544615228607,0
1431,0.0030344454709053696,0
1432,0.05025112844546094,0
1433,0.021696765485677883,0
1434,2.8472399230711933,0
1435,6.653333663875319,0
1436,-2.186520614447433,0
1437,0.6031825860671816,0
1438,-0.17586450563702577,0
1439,-0.03399909572183152,0
1440,-0.03388017237722474,0
1441,0.019888166083787392,0
1442,0.048642704129898316,0
1443,0.039814616183400736,0
1444,-0.0069842513083373525,0
1445,-0.013782507431177784,0
1446,-0.012588382861232417,0
1447,-0.0053823719574257745,0
1448,-0.003621069736077568,0
1449,-0.057416318650479886,0
1450,0.34643693798508046,0
1451,4.97203586616363,0
1452,4.480077491030301,0
1453,-2.8834166065762648,0
1454,1.5914797925313504,0
1455,-0.7185624834840306,0
1456,0.39786770601843796,0
1457,-0.10581840695596757,0
1458,0.04799767625790572,0
1459,-0.0040451309332199935,0
1460,0.017845485843472897,0
1461,-0.029820386471464927,0
1462,0.012300799718932987,0
1463,0.013222234735425935,0
1464,0.007048032437609816,0
1465,0.06765082698651342,0
1466,0.03581061406459912,0
1467,1.2691229954768588,0
1468,6.709837147733197,0
1469,0.9375538457937789,0
1470,-1.5507829595472709,0
1471,1.1344203755575704,0
1472,-0.49679795218449513,0
1473,0.1899761471544317,0
1474,-0.022308932895560567,0
1475,0.12175350293039577,0
1476,0.022134738773149983,0
1477,0.1116913021931594,0
1478,-0.0009179219395857724,0
1479,0.0002459161075217696,0
1480,-0.03046219583897561,0
1481,-0.02377092437617029,0
1482,0.035097810822881756,0
1483,0.0968336423917637,0
1484,2.8506373456228604,0
1485,6.6816185963481525,0
1486,-2.3247594235290805,0
1487,0.6086510775633891,0
1488,-0.043908413964552334,0
1489,-0.09974796257187937,0
1490,0.011748525922444443,0
1491,0.02193873562423169,0
1492,-0.10333156059332026,0
1493,-0.012112685071667515,0
1494,0.12197947176373074,0
1495,0.031089812370979422,0
1496,0.06466346303915892,0
1497,0.025723059359040065,0
1498,0.012630613634460637,0
1499,0.052176685416680885,0
1500,0.3447042117008536,0
1501,5.0076938157310105,0
1502,4.478225221072494,0
1503,-2.9095650416262466,0
1504,1.6627932886496166,0
1505,-0.6868463543749248,0
1506,0.3870529428880409,0
1507,-0.03902910922643557,0
1508,0.06141985838353671,0
1509,0.07363091602815153,0
1510,0.12795064515189167,0
1511,0.13231419751925402,0
1512,0.1429006229635215,0
1513,0.02943041016007057,0
1514,0.04327276979837857,0
1515,0.026147248027952187,0
1516,0.016655496327977533,0
1517,1.3121725910398185,0
1518,6.696028146010814,0
1519,0.8561129599394913,0
1520,-1.609051740919971,0
1521,1.1387220939797151,0
1522,-0.6133766816634715,0
1523,0.22459513744669732,0
1524,-0.11549830239963277,0
1525,0.10056835506690723,0
1526,0.06784602322551336,0
1527,0.039785875444058705,0
1528,0.014004785922040951,0
1529,0.10357926031780433,0
1530,-0.02982253489824454,0
1531,0.01879371637349525,0
1532,0.061709442232163694,0
1533,0.22256674521164171,0
1534,2.945541702148838,0
1535,6.736476729126798,0
1536,-2.236505214322622,0
1537,0.6155959897711459,0
1538,-0.1007857244637339,0
1539,0.007325897259105679,0
1540,0.04291710028982121,0
1541,0.07343285189256257,0
1542,0.1327006464543782,0
1543,0.12354658854590399,0
1544,0.0891944742011103,0
1545,0.05890152010885236,0
1546,0.03127771002790664,0
1547,-0.006569706054479707,0
1548,0.014383920581659063,0
1549,-0.0032322211846395055,0
1550,0.3242127434365994,0
1551,5.125004829350627,0
1552,4.3569403417571815,0
1553,-2.9668250198838026,0
1554,1.5999290863406506,0
1555,-0.6641352913400065,0
1556,0.38044357169249465,0
1557,-0.042653522824262546,0
1558,0.0374976239849287,0
1559,-0.058017068694627576,0
1560,0.010074578566573357,0
1561,0.05276715492154235,0
1562,0.09518818158751177,0
1563,0.05567572419758249,0
1564,0.13569040580781125,0
1565,0.03913901170570192,0
1566,0.0015965355792404157,0
1567,1.2138759614406034,0
1568,6.739619575608087,0
1569,0.854972959587124,0
1570,-1.4455602918728818,0
1571,1.1565557684580696,0
1572,-0.4701734253056367,0
1573,0.3429835543240251,0
1574,-0.08754339467936534,0
1575,0.09614357631592979,0
1576,0.007617799947174254,0
1577,0.04501830891968876,0
1578,0.006498654017095783,0
1579,0.015266325670324616,0
1580,0.04287566694993132,0
1581,0.10174212438683208,0
1582,-0.04921643369142795,0
1583,0.10035752198887873,0
1584,2.9534260001260693,0
1585,6.607562994750077,0
1586,-2.217925767594038,0
1587,0.5828060086672359,0
1588,0.06254592572170418,0
1589,0.012220512371762644,0
1590,0.01588131686615647,0
1591,0.036822936339108554,0
1592,0.047262842027050625,0
1593,0.0022739478242699493,0
1594,0.06556739482543437,0
1595,-0.05027989523161111,0
1596,0.02311117810916976,0
1597,0.06877028366710299,0
1598,-0.0664075987361458,0
1599,-0.01746492710219242,0
1600,0.4271302816342291,0
1601,5.121360489940021,0
1602,4.396827712334778,0
1603,-2.8709001504859777,0
1604,1.5999541652596714,0
1605,-0.7456020486434214,0
1606,0.3330580652584525,0
1607,-0.08109126725632648,0
1608,0.0809313108742689,0
1609,-0.0183288201346109,0
1610,0.04068498238587942,0
1611,0.10331235743697427,0
1612,0.049943474799359885,0
1613,0.038746271603878266,0
1614,0.054312229804122356,0
1615,0.06238488362157444,0
1616,0.08796458899320714,0
1617,1.3075134730217666,0
1618,6.7782184780223735,0
1619,0.8593685989720035,0
1620,-1.4463148400684882,0
1621,1.0821015128174296,0
1622,-0.5172330215509746,0
1623,0.23789377525267366,0
1624,-0.005562532999228509,0
1625,-0.019232584025805938,0
1626,0.06060856835014754,0
1627,0.05582880479196161,0
1628,0.15073029308825553,0
1629,0.0032117706714660105,0
1630,-0.033015800361797756,0
1631,0.05745958187863417,0
1632,-0.028559419233184592,0
1633,0.10579026961228519,0
1634,2.996672223371028,0
1635,6.680114589876532,0
1636,-2.309297788833715,0
1637,0.7040585960434809,0
1638,-0.06952124747517678,0
1639,0.0557371058501992,0
1640,-0.0260879251764056,0
1641,0.07613048157236546,0
1642,0.11013952768266781,0
1643,-0.047641270010936695,0
1644,0.02035626703602695,0
1645,0.02636286565439458,0
1646,0.15705683981958418,0
1647,0.04221926371314275,0
1648,0.024006436758606108,0
1649,0.09534545205588546,0
1650,0.4645662740426363,0
1651,5.092637531346216,0
1652,4.466392733549078,0
1653,-2.842837743723838,0
1654,1.6289130387339141,0
1655,-0.7419728797443725,0
1656,0.3523639307368774,0
1657,0.010959692675176075,0
1658,0.010206377457753268,0
1659,0.16211348025808767,0
1660,0.10503101226873487,0
1661,0.08191469613713537,0
1662,0.020025861756387132,0
1663,0.06520169625858306,0
1664,0.11974316235350148,0
1665,0.07894691047032737,0
1666,0.0815127741645627,0
1667,1.3197969163475558,0
1668,6.7365395481095405,0
1669,0.7455089720921402,0
1670,-1.4144901282346907,0
1671,1.0451920798173504,0
1672,-0.49126956824241985,0
1673,0.2334300491864517,0
1674,-0.08767887087891911,0
1675,0.12989858770114948,0
1676,0.16226637239863395,0
1677,0.07075036159350045,0
1678,0.11045426008578361,0
1679,0.02700245170140767,0
1680,0.03890654331270134,0
1681,0.10575041802148946,0
1682,-0.006282926381427571,0
1683,0.08290604599962423,0
1684,3.0258511143034,0
1685,6.621811453190002,0
1686,-2.2838292950879286,0
1687,0.5674707510281862,0
1688,0.03380870221575876,0
1689,0.027486047287998337,0
1690,0.08060371401360819,0
1691,0.08355746489752748,0
1692,-0.025220070244074126,0
1693,-0.020835461630115924,0
1694,-0.0011450086690767136,0
1695,0.0008959490913375903,0
1696,-0.03281912052578096,0
1697,-0.049237986141728154,0
1698,-0.02658019859484727,0
1699,0.03467537443433588,0
1700,0.4705182613534168,0
1701,5.037902511902819,0
1702,4.470472561654946,0
1703,-2.8733416892455925,0
1704,1.5133906953810516,0
1705,-0.7407908529948665,0
1706,0.17886512777457816,0
1707,-0.09028017933416055,0
1708,0.07619178616789105,0
1709,0.009377893305936115,0
1710,0.09965041377383674,0
1711,-0.035028406941492174,0
1712,0.05390289080040107,0
1713,0.051596290821612406,0
1714,0.048049424413129725,0
1715,-0.010191352785820763,0
1716,0.012941561270022082,0
1717,1.2979904378728389,0
1718,6.6727808445490115,0
1719,0.7518713396674099,0
1720,-1.560476285574057,0
1721,1.0325083356515785,0
1722,-0.5488435186173857,0
1723,0.24144275854395753,0
1724,-0.05596378669386412,0
1725,0.005504004990571826,0
1726,0.039988392206982484,0
1727,0.0031375073664992956,0
1728,0.10883585039572624,0
1729,-0.0056576098933249185,0
1730,0.04576175519229493,0
1731,-0.05441660442388199,0
1732,0.01444242437851676,0
1733,0.06356080573358841,0
1734,2.992016536049164,0
1735,6.673274201394561,0
1736,-2.309839136760928,0
1737,0.6186046853833522,0
1738,-0.07826470486933673,0
1739,0.11635201728764397,0
1740,0.04285011579522123,0
1741,0.06892220753363101,0
1742,0.0949900149449903,0
1743,0.16666145833336993,0
1744,0.06367082825787944,0
1745,0.04913775372063732,0
1746,0.04531510961764887,0
1747,0.019412769337098935,0
1748,0.006502061990138287,0
1749,-0.005523590207829117,0
1750,0.39724797342819457,0
1751,5.066150495348481,0
1752,4.298744066637594,0
1753,-2.9897717215989825,0
1754,1.6262565326934058,0
1755,-0.797848474557873,0
1756,0.2645073026301813,0
1757,-0.02341871517559331,0
1758,0.04379259503343054,0
1759,-0.0012675593353866747,0
1760,-0.018269927138925023,0
1761,0.05830035297258959,0
1762,0.08050339799149614,0
1763,-0.014458413670540588,0
1764,0.05141338117757065,0
1765,-0.04587895679810878,0
1766,-0.052023522462563844,0
1767,1.1968762039743968,0
1768,6.800382826127014,0
1769,0.7468622908122454,0
1770,-1.4801950157860577,0
1771,0.9853509624013946,0
1772,-0.506187092908769,0
1773,0.19298364726795805,0
1774,0.019265189733525853,0
1775,0.024752564448555697,0
1776,-0.018220484453047553,0
1777,0.02298976438506795,0
1778,-0.020300274210959424,0
1779,0.007056674472659494,0
1780,-0.09398615011557848,0
1781,-0.012431787272482715,0
1782,0.020365635283904525,0
1783,-0.04635517569920662,0
1784,3.001712967428518,0
1785,6.628146236864317,0
1786,-2.295651336586746,0
1787,0.6261417825298675,0
1788,-0.13642982784212473,0
1789,0.11816271749670565,0
1790,-0.04997104559989775,0
1791,0.023259421822580333,0
1792,-0.058537076467842154,0
1793,-0.043319076002559326,0
1794,-0.025214590086999715,0
1795,0.06033784619474493,0
1796,-0.007715442833823468,0
1797,-0.05085842006585299,0
1798,0.05837007585499926,0
1799,-0.018939721799763134,0
1800,0.3996947957788527,0
1801,5.115021659429643,0
1802,4.220213537850341,0
1803,-2.988654842009814,0
1804,1.5945794865495693,0
1805,-0.7926268055657724,0
1806,0.32366919506981956,0
1807,-0.048679130975665036,0
1808,0.07152349013931222,0
1809,0.0774389227558815,0
1810,-0.0817709358588388,0
1811,-0.13094923455588534,0
1812,-0.011180801495886045,0
1813,-0.13641623366475875,0
1814,-0.03135018803010861,0
1815,-0.06151963051128774,0
1816,-0.040379624506726594,0
1817,1.1841197319795114,0
1818,6.667178930803774,0
1819,0.6887558809773533,0
1820,-1.4440495351534015,0
1821,1.0237988344302371,0
1822,-0.5330318789213048,0
1823,0.22176276529186856,0
1824,-0.06903814952543436,0
1825,0.0170761170878532,0
1826,0.018845350308076027,0
1827,0.04337601126269819,0
1828,-0.0026512640842080437,0
1829,-0.0010020132241348144,0
1830,-0.04207620838940503,0
1831,-0.0064833751723831,0
1832,0.01209430825765469,0
1833,0.03383539596139226,0
1834,3.0361042415795487,0
1835,6.759703008175676,0
1836,-2.3687086806394597,0
1837,0.7462580270173679,0
1838,-0.12465321186494688,0
1839,0.09937586729915492,0
1840,0.006835942359784873,0
1841,0.015624328018004181,0
1842,0.09126941741602995,0
1843,0.07350642346783501,0
1844,0.07162994705358301,0
1845,-0.020877459380751726,0
1846,-0.10253544810128398,0
1847,-0.07607817166291367,0
1848,0.07511783870450364,0
1849,0.07949955422641122,0
1850,0.3527218223508602,0
1851,5.004080768674469,0
1852,4.157316894668261,0
1853,-2.9106951843157844,0
1854,1.5381471009143657,0
1855,-0.868630827409475,0
1856,0.3080244409870907,0
1857,-0.12737780879621435,0
1858,0.029627991207584276,0
1859,-0.12312008908905281,0
1860,-0.07462483676292414,0
1861,-0.06444413366449138,0
1862,-0.06247500359983525,0
1863,-0.07853085735263626,0
1864,-0.06591732085334606,0
1865,-0.11888023982216193,0
1866,-0.10320408438728876,0
1867,1.268276316156885,0
1868,6.6800548018452695,0
1869,0.6180819351235032,0
1870,-1.551062669639825,0
1871,0.9523003354952891,0
1872,-0.5555904989616538,0
1873,0.13403962666726862,0
1874,-0.20692989065243933,0
1875,-0.024454545075666027,0
1876,-0.07269974876721198,0
1877,-0.05133449240046307,0
1878,0.02999721793404181,0
1879,0.03256529838780575,0
1880,-0.05362482072437461,0
1881,-0.10075001232728174,0
1882,-0.07610813287414733,0
1883,0.015801344120396736,0
1884,2.915207788079182,0
1885,6.531373784566571,0
1886,-2.4047345040081476,0
1887,0.5567617697160042,0
1888,-0.16659050475410417,0
1889,-0.04899229441703589,0
1890,0.06459406862837162,0
1891,-0.02852481252767046,0
1892,-0.01617983486391384,0
1893,-0.09004566455185269,0
1894,-0.03492373292307182,0
1895,-0.06507691850705127,0
1896,-0.01879838613977935,0
1897,-0.01037090376668473,0
1898,-0.04273442596410913,0
1899,0.02317426149749892,0
1900,0.3936891738318522,0
1901,4.99081266393801,0
1902,4.167627524485181,0
1903,-2.901441737143086,0
1904,1.5530355245026999,0
1905,-0.7525103918129986,0
1906,0.2413076140801337,0
1907,-0.18700455932490623,0
1908,0.04200146116270652,0
1909,0.055302930144614355,0
1910,-0.021111641097260735,0
1911,-0.08106633397049845,0
1912,-0.057831189525939616,0
1913,-0.05127475757079966,0
1914,0.02256695310139007,0
1915,0.04860759825572344,0
1916,-0.026490372883932523,0
1917,1.1851470747433726,0
1918,6.675612230191742,0
1919,0.6496016492428165,0
1920,-1.4564758612233464,0
1921,0.8614429559105437,0
1922,-0.4487387827527939,0
1923,0.2001622918557017,0
1924,-0.09631270951765251,0
1925,0.04499596215722808,0
1926,0.053876951758154545,0
1927,0.01262850949161875,0
1928,0.06576028191002613,0
1929,-0.046116054926110414,0
1930,-0.0643039614342935,0
1931,-0.018450736906558032,0
1932,0.08405283847164705,0
1933,0.09367428280568725,0
1934,3.0300471129545232,0
1935,6.562856784681373,0
1936,-2.404535176257859,0
1937,0.7029071782459446,0
1938,-0.18827191962446987,0
1939,-0.06606113884213283,0
1940,0.002142661948098125,0
1941,-0.1308411133735511,0
1942,-0.054083151787983126,0
1943,-0.02498226797082375,0
1944,-0.05807510503892982,0
1945,-0.019969047001737274,0
1946,-0.05169914299167479,0
1947,0.02901398640153243,0
1948,0.05875994843895705,0
1949,0.008837701418361231,0
1950,0.3020604209569022,0
1951,5.088260872604607,0
1952,4.147746727554194,0
1953,-2.9287833546478637,0
1954,1.5986392844716197,0
1955,-0.8226588618007299,0
1956,0.2699196093934826,0
1957,-0.2233661912958384,0
1958,-0.04140160591809096,0
1959,-0.031941900625437385,0
1960,0.017813695217519267,0
1961,-0.036997214385361216,0
1962,-0.08932994026657004,0
1963,-0.02007711246767511,0
1964,-0.01138131914734963,0
1965,0.0037599930094584996,0
1966,-0.011256229096149751,0
1967,1.2013051883231909,0
1968,6.707998946382811,0
1969,0.5559690233568697,0
1970,-1.4418294727804835,0
1971,0.9988068666848547,0
1972,-0.550175929852243,0
1973,0.18897991962214566,0
1974,-0.1226806901003367,0
1975,-0.06312472765501427,0
1976,0.026612012649722676,0
1977,-0.03596007800578841,0
1978,0.0417281383184088,0
1979,-0.018901156209639853,0
1980,0.05767222014711093,0
1981,-0.04074165745549084,0
1982,-0.04075451365640566,0
1983,0.05636703248753819,0
1984,2.9603540268973885,0
1985,6.489433265170129,0
1986,-2.4434291061654956,0
1987,0.6954987456575455,0
1988,-0.1825817996977115,0
1989,-0.007974883926842705,0
1990,-0.006397469811163445,0
1991,0.004325924034832984,0
1992,-0.06942184505426671,0
1993,0.033875564392804876,0
1994,-0.003050680865493701,0
1995,-0.046006551709689966,0
1996,-0.046600978658135846,0
1997,-0.030955858290399225,0
1998,0.03295054313374091,0
1999,0.04918088980017023,0
2000,0.36390088483066835,0
2001,5.038206598936263,0
2002,4.200837160766028,0
2003,-3.0126325882223366,0
2004,1.5274120658772845,0
2005,-0.8179706301488864,0
2006,0.31375361354774217,0
2007,-0.14229680255933447,0
2008,0.050063176946610305,0
2009,-0.04169246620975136,0
2010,0.04571998151129254,0
2011,-0.0032712762899426567,0
2012,-0.007691336563869475,0
2013,-0.045496142244548704,0
2014,0.07965176498646716,0
2015,-0.016967524053982545,0
2016,-0.03588257121646801,0
2017,1.3065945844558284,0
2018,6.757267153204577,0
2019,0.5139772391041784,0
2020,-1.489051783236766,0
2021,0.9628292313930292,0
2022,-0.5292171295111187,0
2023,0.13606656159728275,0
2024,-0.06454487889106986,0
2025,-0.04813356859053561,0
2026,-0.005682755872482734,0
2027,-0.007422239722439416,0
2028,-0.06859815917987604,0
2029,-0.0770750748519152,0
2030,-0.04391986948441832,0
2031,-0.03821799450686669,0
2032,-0.01586702907857928,0
2033,0.15868074416738906,0
2034,3.0319543380853577,0
2035,6.638115312974666,0
2036,-2.378609443237544,0
2037,0.7269856555646772,0
2038,-0.16456802146496752,0
2039,-0.034291556701173044,0
2040,-0.13770588362285605,0
2041,0.1174732920641389,0
2042,-0.007273589012213821,0
2043,-0.0752342591828083,0
2044,-0.03187839373098583,0
2045,-0.12076962625487239,0
2046,-0.05279578483948255,0
2047,-0.010416196940882527,0
2048,0.05950441612222226,0
2049,0.019921296000578424,0
2050,0.3813068086790719,0
2051,5.112600726087366,0
2052,4.164167317804423,0
2053,-3.020087168519452,0
2054,1.4862647059441008,0
2055,-0.7904521414907275,0
2056,0.3402868230470349,0
2057,-0.23240950871967964,0
2058,0.005142733144601463,0
2059,-0.029187589997117597,0
2060,-0.040542829622128254,0
2061,-0.086238062732445,0
2062,-0.1671806400072724,0
2063,-0.02013114034693815,0
2064,-0.19328811757362338,0
2065,0.021224275817726984,0
2066,-0.011404228652108477,0
2067,1.3097083214172283,0
2068,6.668856030849091,0
2069,0.5219921796903867,0
2070,-1.3929620869255868,0
2071,0.9875432484719907,0
2072,-0.5681372710238202,0
2073,0.16953588076053336,0
2074,-0.07029889298746608,0
2075,0.023595231983685926,0
2076,0.030917151645678858,0
2077,0.03131462426165427,0
2078,-0.07973578718183334,0
2079,0.042039490765177455,0
2080,-0.10956139508717068,0
2081,-0.06866508103400532,0
2082,-0.027291946106481925,0
2083,0.08833638395236662,0
2084,2.9829616326603308,0
2085,6.502119981332104,0
2086,-2.4158693059136316,0
2087,0.675206908828851,0
2088,-0.1176326155805675,0
2089,-0.03379958546780035,0
2090,0.015177300768583611,0
2091,-0.00742025980075217,0
2092,-0.03900084639838486,0
2093,-0.005715470944954611,0
2094,-0.03342644601952164,0
2095,-0.06625137749225095,0
2096,-0.03796358241584279,0
2097,-0.05651655118947485,0
2098,-0.009371039334626297,0
2099,-0.0818704006947377,0
2100,0.436540603157216,0
2101,5.208389950519449,0
2102,4.072767076924786,0
2103,-2.909093394538625,0
2104,1.613926339587809,0
2105,-0.7922858876913997,0
2106,0.2532796931654786,0
2107,-0.13934220435513353,0
2108,-0.05600438144460647,0
2109,-0.13064841680142572,0
2110,-0.024637160809338605,0
2111,0.01843684767704263,0
2112,0.03602504367441088,0
2113,-0.015387540258762107,0
2114,0.06602827777794389,0
2115,0.020956592371971033,0
2116,0.028453546559704918,0
2117,1.2520016294501484,0
2118,6.755754120731179,0
2119,0.4864012681098989,0
2120,-1.420937968588765,0
2121,0.925578431917395,0
2122,-0.5605192862658896,0
2123,0.1489904002219509,0
2124,-0.1126879085222475,0
2125,-0.04691368547355935,0
2126,-0.10096621217570648,0
2127,-0.05176371402557098,0
2128,-0.04612187937728688,0
2129,-0.030567170456177368,0
2130,-0.03389635133014633,0
2131,0.004251238521046939,0
2132,-0.06730267611298263,0
2133,0.03665792175336242,0
2134,3.059352960784862,0
2135,6.62021444032131,0
2136,-2.3768002150337555,0
2137,0.7037823775184749,0
2138,-0.10096427146028947,0
2139,0.016511784704226963,0
2140,-0.04593668883520702,0
2141,0.05470052588299722,0
2142,0.08000291676874785,0
2143,-0.1298138213559148,0
2144,0.08350215743613085,0
2145,0.0661376296134812,0
2146,-0.06533456142175752,0
2147,0.022616983111691406,0
2148,-0.09668046400327047,0
2149,0.004531968434820092,0
2150,0.4618614676564856,0
2151,5.119653039771128,0
2152,4.060659709545141,0
2153,-2.9465222890829694,0
2154,1.5008214490204344,0
2155,-0.9369825530556922,0
2156,0.23472774124119955,0
2157,-0.22120991489861364,0
2158,-0.042446713729029514,0
2159,-0.11125936194804267,0
2160,-0.060821311400084045,0
2161,-0.08468014681081829,0
2162,-0.047185614537018014,0
2163,-0.03630317408842506,0
2164,-0.029983016549990756,0
2165,0.08598165081385108,0
2166,-0.04539305737958237,0
2167,1.3739549592889175,0
2168,6.7595278715042,0
2169,0.4981582411606767,0
2170,-1.4509721624642447,0
2171,1.0144153632365462,0
2172,-0.5165717169861651,0
2173,0.25206001502200154,0
2174,0.08535918241921982,0
2175,0.020583901716472695,0
2176,0.006975138375465172,0
2177,0.034641219967449614,0
2178,0.060050891968076836,0
2179,0.09746590033712207,0
2180,0.06172849507139491,0
2181,0.04952469041298189,0
2182,0.11423165084946409,0
2183,0.14031270747864125,0
2184,3.148224232290745,0
2185,6.602859483169426,0
2186,-2.3904154718879562,0
2187,0.784078688295595,0
2188,-0.10423663407951773,0
2189,0.14861013050533883,0
2190,0.07484929134073745,0
2191,0.12165155932532891,0
2192,0.09514722590336155,0
2193,0.05084967354243669,0
2194,0.05853827264081846,0
2195,0.061889427726197446,0
2196,0.07859953550788733,0
2197,0.12769323504740676,0
2198,0.11589168226947964,0
2199,0.07555013564532016,0
2200,0.4232163518093018,0
2201,5.301342730913874,0
2202,4.168608306040269,0
2203,-2.6808287656353116,0
2204,1.6439141982521766,0
2205,-0.6942622681510684,0
2206,0.5410456551937203,0
2207,0.02528468456285088,0
2208,0.08558840233933163,0
2209,0.152007848083291,0
2210,-0.046583788199605985,0
2211,0.12439518816782613,0
2212,0.1608129992426955,0
2213,0.0808400920570708,0
2214,0.033754900617490605,0
2215,0.11282104545593635,0
2216,0.09213537979509433,0
2217,1.414957150936588,0
2218,6.858630353287509,0
2219,0.5659708489216411,0
2220,-1.2836843817267716,0
2221,1.0163347648858474,0
2222,-0.4118685587651915,0
2223,0.28832585080784084,0
2224,-0.015420096220322706,0
2225,-0.015551469675409088,0
2226,0.09173280002575385,0
2227,0.11740320170867687,0
2228,0.12243776075446541,0
2229,0.1140568496191966,0
2230,0.11047478555566272,0
2231,0.021347667832643955,0
2232,0.08244916537773508,0
2233,0.16655241266224843,0
2234,3.195198986111264,0
2235,6.622484087106185,0
2236,-2.38998271609184,0
2237,0.7934472381300134,0
2238,-0.1452708336386907,0
2239,0.03780667471326973,0
2240,-0.03429470672613634,0
2241,-0.02244956687271485,0
2242,0.02097232428558141,0
2243,0.006275233309870791,0
2244,-0.0315201573208692,0
2245,-0.02066873997613164,0
2246,0.07018463228424734,0
2247,0.07715384651028862,0
2248,0.06319202069899639,0
2249,0.0562722778464704,0
2250,0.47226692108083157,0
2251,5.31999474395544,0
2252,4.1924983537931,0
2253,-2.8264721263479635,0
2254,1.6278835625540191,0
2255,-0.703180813837924,0
2256,0.408164616190719,0
2257,-0.03334683358920028,0
2258,0.03142844823448677,0
2259,-0.04319957392281,0
2260,-0.015609520002129652,0
2261,-0.0057126929949030125,0
2262,-0.04792268284872216,0
2263,0.13987289280488455,0
2264,0.002851990348322328,0
2265,0.09745145659946294,0
2266,0.011598410593271727,0
2267,1.4937638685576191,0
2268,6.855442578153367,0
2269,0.474866905942768,0
2270,-1.233730595558801,0
2271,1.0195838476802224,0
2272,-0.37957945646947494,0
2273,0.18342548970699635,0
2274,0.014086571537855707,0
2275,0.06474598022794009,0
2276,0.06806139155169819,0
2277,-0.015373766947197144,0
2278,0.11515964932812406,0
2279,0.06994711682919072,0
2280,0.14815891433312114,0
2281,0.03434369058226012,0
2282,0.14262484027960806,0
2283,0.041995691498506946,0
2284,3.124538612245338,0
2285,6.587805250958337,0
2286,-2.400571248962411,0
2287,0.7293819963886319,0
2288,-0.19227801412962078,0
2289,-0.036418920227966195,0
2290,-0.023124409704668565,0
2291,-0.014003679032854485,0
2292,-0.02325519231139007,0
2293,0.00027983416043131544,0
2294,-0.042650242604289776,0
2295,-0.059123392546199104,0
2296,-0.026308163081800985,0
2297,-0.034110837869992354,0
2298,0.07663492249805998,0
2299,0.016805393307206536,0
2300,0.4933029470142755,0
2301,5.224373776046963,0
2302,4.0249314887264855,0
2303,-2.9019967936908246,0
2304,1.5826039545104231,0
2305,-0.7764654536954775,0
2306,0.4244090677808648,0
2307,-0.07696174468333478,0
2308,0.12304380293834592,0
2309,0.09575296222376498,0
2310,0.0187709458448809,0
2311,0.013183473395396241,0
2312,0.02360326948835758,0
2313,0.004413119617783418,0
2314,0.02196458853309345,0
2315,0.0361424008671029,0
2316,-0.02296297402417038,0
2317,1.3670759998550261,0
2318,6.763106005942136,0
2319,0.446513238683125,0
2320,-1.2767274692856863,0
2321,0.8940776997011093,0
2322,-0.4477058246738296,0
2323,0.32191491297611163,0
2324,-0.13277087181008446,0
2325,0.04329427568048369,0
2326,0.13464110479659985,0
2327,0.008792817194192242,0
2328,-0.014139253621641883,0
2329,-0.01413719397763713,0
2330,0.06110975535291745,0
2331,0.02943793267179426,0
2332,-0.004379011306239143,0
2333,0.029315619130917854,0
2334,3.063429254564615,0
2335,6.612222373272412,0
2336,-2.4302439927687103,0
2337,0.7981780125641491,0
2338,-0.21418788854960655,0
2339,0.011730842283656272,0
2340,-0.20084647244436155,0
2341,-0.007179732546415761,0
2342,0.0535153529697383,0
2343,-0.05795875669676507,0
2344,0.09784885631309352,0
2345,-0.11269357187933428,0
2346,0.004559614700088293,0
2347,-0.07329897213703213,0
2348,0.04647420459321953,0
2349,0.004211088874726345,0
2350,0.4045692287595825,0
2351,5.192669024363954,0
2352,4.033490552672757,0
2353,-2.9495359127141136,0
2354,1.5888429677460905,0
2355,-0.7807423964074023,0
2356,0.2333421691330756,0
2357,-0.03898179535428728,0
2358,-0.01123724227568101,0
2359,-0.08128612666780735,0
2360,-0.02596412605765779,0
2361,-0.02214013507653916,0
2362,0.0022795738169748905,0
2363,0.02957995761043238,0
2364,-0.03268618426735709,0
2365,-0.10494714660761245,0
2366,0.016703866027029945,0
2367,1.3200287901269663,0
2368,6.896930208856322,0
2369,0.4786087871948772,0
2370,-1.3594337148959614,0
2371,0.9243383005486003,0
2372,-0.4259844468653014,0
2373,0.19384925877785825,0
2374,-0.12143243764319059,0
2375,-0.004239038728935017,0
2376,-0.029436770266344864,0
2377,-0.04021464114202514,0
2378,0.12479227046841222,0
2379,0.053372321669167534,0
2380,0.03003246295462508,0
2381,-0.022092328083369576,0
2382,-0.028891545991266872,0
2383,0.05661182131915936,0
2384,3.023697721013904,0
2385,6.478469742199488,0
2386,-2.451196743723175,0
2387,0.787299970738079,0
2388,-0.15364216347795207,0
2389,0.08051508974469343,0
2390,-0.03869379431682733,0
2391,0.05531341133232449,0
2392,-0.011928057389856122,0
2393,-0.0010653810884272787,0
2394,-0.01214037039733418,0
2395,0.05087041140051882,0
2396,-0.05162673763831912,0
2397,0.04231672300631263,0
2398,-0.009381593545799092,0
2399,-0.02616264620010013,0
2400,0.426246216345962,0
2401,5.189557105599214,0
2402,3.978820587329728,0
2403,-2.758108592780042,0
2404,1.6215636802589424,0
2405,-0.6991453292445298,0
2406,0.3734128549178784,0
2407,-0.04796859522605733,0
2408,0.01610265002102005,0
2409,-0.024937299322929138,0
2410,-0.0338508259152024,0
2411,0.011720791484600462,0
2412,0.05816643662811032,0
2413,-0.005322229885575409,0
2414,0.13802429783794368,0
2415,-0.01258252509959424,0
2416,0.1270575970734467,0
2417,1.418867893955511,0
2418,6.827945161665479,0
2419,0.42261728227675455,0
2420,-1.290665395732994,0
2421,0.8918449709181542,0
2422,-0.4244203770229536,0
2423,0.2701778348529859,0
2424,-0.021012546499916976,0
2425,0.10204047395281889,0
2426,0.12238820321774951,0
2427,-0.03962256900742739,0
2428,-0.01176407497496125,0
2429,0.04568239964352522,0
2430,-0.016751531684924277,0
2431,-0.049503963037362764,0
2432,0.04757874395601487,0
2433,0.05089210854176289,0
2434,3.154287959197618,0
2435,6.536727015893666,0
2436,-2.5115335224710136,0
2437,0.737566485871118,0
2438,-0.20525193477666595,0
2439,0.03742281600105023,0
2440,-0.05215841572898325,0
2441,0.049963182226863447,0
2442,-0.020962964564944522,0
2443,0.0032533873198839387,0
2444,-0.05609907562032743,0
2445,-0.04595973975710698,0
2446,0.003735034321106393,0
2447,0.08502556129100404,0
2448,-0.09055072138902875,0
2449,-0.007633527766775238,0
2450,0.4713652602029711,0
2451,5.250393430746725,0
2452,4.051511446251068,0
2453,-2.812306218258185,0
2454,1.620154370063566,0
2455,-0.7313880751314882,0
2456,0.38499548052681587,0
2457,-0.09795496586006155,0
2458,0.11160927614969385,0
2459,0.03129166650657465,0
2460,0.000531241093512165,0
2461,-0.016508146717615663,0
2462,-0.008635907787660706,0
2463,0.08354589970742554,0
2464,0.08519122069309412,0
2465,0.08452383411861666,0
2466,-0.026576057912467036,0
2467,1.386561508343968,0
2468,6.798868442498442,0
2469,0.3007110192298572,0
2470,-1.2701054399733531,0
2471,0.9674628394556025,0
2472,-0.5163291207457972,0
2473,0.2760115534292694,0
2474,0.0007387568373677655,0
2475,0.018188597739786438,0
2476,-0.01676112615762545,0
2477,-0.05116440968874768,0
2478,0.06109784608332518,0
2479,-0.012132412886469098,0
2480,0.0833435325704026,0
2481,0.05425296046947566,0
2482,-0.01766434710303285,0
2483,0.03083975848811163,0
2484,3.187349580171228,0
2485,6.557598028976077,0
2486,-2.5174408893350044,0
2487,0.861179200862635,0
2488,-0.11791584851369048,0
2489,0.07802920642156577,0
2490,0.022365727921340325,0
2491,0.0488141178368163,0
2492,-0.038432364557543494,0
2493,0.04668920575517931,0
2494,-0.002159707520253594,0
2495,-0.04942399414155194,0
2496,0.027272638563507114,0
2497,-0.0320038183631923,0
2498,0.03436432880194401,0
2499,0.03275363333444245,0
2500,0.3829781688100323,0
2501,5.400728402026482,0
2502,3.976930763018072,0
2503,-2.919278483046321,0
2504,1.5800179965291161,0
2505,-0.7885578499008756,0
2506,0.18728314672839455,0
2507,-0.1445213589172159,0
2508,0.08234272439906493,0
2509,-0.1182450447330907,0
2510,-0.06583097643136089,0
2511,0.031937518964595735,0
2512,0.01747913504789802,0
2513,0.006098016363996891,0
2514,0.049459786946896234,0
2515,0.04101523168712176,0
2516,-0.015350993249814527,0
2517,1.3383025917447362,0
2518,6.837265961072199,0
2519,0.34503222345157064,0
2520,-1.2841132950756162,0
2521,0.8946902782995216,0
2522,-0.44813023300462423,0
2523,0.17004182601038487,0
2524,-0.07352519702596237,0
2525,0.112920040667468,0
2526,0.023982723746867714,0
2527,0.004722965268215629,0
2528,-0.016186618365803075,0
2529,-0.021364156411486205,0
2530,-0.040178786539615596,0
2531,-0.02454928028644629,0
2532,0.00085790784040197,0
2533,0.08267615366257121,0
2534,3.1702461035228495,0
2535,6.4307950355631025,0
2536,-2.4760149828696227,0
2537,0.768851930114561,0
2538,-0.15269380838784602,0
2539,0.029421753082016507,0
2540,-0.03983914388999058,0
2541,0.037878577690482085,0
2542,0.0039810917817452805,0
2543,-0.03324004451163336,0
2544,0.053202930266158285,0
2545,0.04622572588908366,0
2546,0.03417983434430287,0
2547,-0.04137004845473587,0
2548,0.003918026954778178,0
2549,0.03791105877911961,0
2550,0.4494601951827574,0
2551,5.370997836497312,0
2552,4.07399690056784,0
2553,-2.846369737667257,0
2554,1.5604067239635624,0
2555,-0.6707094902568344,0
2556,0.3739008981261841,0
2557,-0.06696680828719309,0
2558,0.12366420455652345,0
2559,-0.006752734304266567,0
2560,-0.03625951175780267,0
2561,0.11172730850290169,0
2562,-0.0192648884748046,0
2563,-0.08774631463877326,0
2564,-0.009461463622052264,0
2565,0.026152852664295827,0
2566,0.017727572214502718,0
2567,1.4090259255156314,0
2568,6.76476323506311,0
2569,0.34956594252351636,0
2570,-1.1892520615750222,0
2571,1.0058192295148958,0
2572,-0.4605895317431268,0
2573,0.1304937167671182,0
2574,-0.11157014199278552,0
2575,0.12184320530170999,0
2576,0.07750187797479934,0
2577,0.03655260945922553,0
2578,0.048940518516214254,0
2579,-0.07284484476521419,0
2580,0.007540916258238557,0
2581,-0.012961443993022348,0
2582,-0.003300034852212131,0
2583,0.191911297253467,0
2584,3.1620211229222943,0
2585,6.496121804768045,0
2586,-2.529811742996231,0
2587,0.8514821392623779,0
2588,-0.15427307674807425,0
2589,0.13038119485654348,0
2590,-0.17442606814718026,0
2591,-0.014119454703483358,0
2592,0.09993292022295874,0
2593,0.1260193437046377,0
2594,0.026235893580518994,0
2595,-0.024217136747645876,0
2596,0.09821798900187209,0
2597,0.09853362216406786,0
2598,0.009138965200217107,0
2599,0.006886476121510651,0
2600,0.516168090402749,0
2601,5.28071352719532,0
2602,3.885010482515085,0
2603,-2.854936584219698,0
2604,1.538845476262493,0
2605,-0.7431205598951925,0
2606,0.3106758607479266,0
2607,-0.12646174730648724,0
2608,0.008330764577419852,0
2609,0.07207382984068322,0
2610,0.01293881679107043,0
2611,-0.011502455122152385,0
2612,-0.035324519794605144,0
2613,-0.06584764269948219,0
2614,-0.00676861306729452,0
2615,0.056585201376678614,0
2616,-0.0006218419874547305,0
2617,1.4776352249810727,0
2618,6.902180796742722,0
2619,0.31322041843236176,0
2620,-1.2065688211748928,0
2621,0.9296274119519395,0
2622,-0.5414477298485244,0
2623,0.22464365679693862,0
2624,-0.05217742366002461,0
2625,0.03926084666498673,0
2626,0.012875347428121832,0
2627,0.021611102321814894,0
2628,-0.01978659283934347,0
2629,-0.03341601870638639,0
2630,0.10872001023810356,0
2631,0.0024938125280564855,0
2632,0.029785638950649347,0
2633,0.003113281474006871,0
2634,3.2190017945381464,0
2635,6.527951374752009,0
2636,-2.460988549472801,0
2637,0.7966408879416318,0
2638,-0.21435124915825404,0
2639,0.09539218188210533,0
2640,-0.09423763898555534,0
2641,0.029032448919455462,0
2642,0.008543099694694868,0
2643,0.022575117358517745,0
2644,0.0019512832832398975,0
2645,0.05174974530023306,0
2646,-0.009376426223556979,0
2647,0.06939774389040879,0
2648,0.03855743474963998,0
2649,0.10105028538083285,0
2650,0.5359522066927138,0
2651,5.325869800437165,0
2652,4.001552472506674,0
2653,-2.8000745280789956,0
2654,1.6568871912769156,0
2655,-0.6682822923878851,0
2656,0.41205374249972315,0
2657,-0.04530400979486785,0
2658,0.06286071871063259,0
2659,0.000833867623675405,0
2660,0.11342282521434044,0
2661,0.04609743924112729,0
2662,0.07513021848874091,0
2663,0.04329926651581763,0
2664,0.03372173001354714,0
2665,0.041331684624944756,0
2666,0.09240087296309532,0
2667,1.536476913771447,0
2668,6.891956441944427,0
2669,0.42245669897238464,0
2670,-1.1188050503800844,0
2671,0.9076783647292107,0
2672,-0.3029586640562198,0
2673,0.35153649674403875,0
2674,0.015339018421899515,0
2675,0.1280156277180362,0
2676,0.03910363278816764,0
2677,0.028061436607135726,0
2678,0.003586558383221564,0
2679,-0.01051220395180764,0
2680,-0.056657727516506225,0
2681,0.024676838749669125,0
2682,0.015400166628331092,0
2683,0.04821433646259869,0
2684,3.2291235755385075,0
2685,6.5029799035419185,0
2686,-2.628298765460115,0
2687,0.8738573696645129,0
2688,-0.2509542707542886,0
2689,0.11316123853033334,0
2690,0.02597629091146748,0
2691,0.11067934913772853,0
2692,0.07415365607241492,0
2693,0.04627077657613239,0
2694,0.09135150891292701,0
2695,0.0658786377081263,0
2696,0.047159880913323904,0
2697,0.025932211434439904,0
2698,0.08612206500004721,0
2699,0.1257798238654661,0
2700,0.4443199570534203,0
2701,5.30391308625331,0
2702,3.9030524192056935,0
2703,-2.796469917845315,0
2704,1.6166364647906155,0
2705,-0.8040106387297212,0
2706,0.2869159413567852,0
2707,-0.041961175032573725,0
2708,0.08033434081134597,0
2709,0.023301528902370378,0
2710,0.013012310915994276,0
2711,0.008623190249557091,0
2712,-0.030040411006277423,0
2713,0.017532231250785967,0
2714,0.06586172394435916,0
2715,-0.011346875724119073,0
2716,-0.030090529383770125,0
2717,1.4559558788623708,0
2718,6.846832989369221,0
2719,0.3073831951729393,0
2720,-1.1238559071752947,0
2721,0.8711532675503966,0
2722,-0.31610889909827133,0
2723,0.2774203267408525,0
2724,-0.08811392624140442,0
2725,0.07074248526183985,0
2726,0.07922144399639999,0
2727,0.043970406596464104,0
2728,0.04955594847660074,0
2729,0.00671469817493326,0
2730,0.10853321952651279,0
2731,0.03229168832232105,0
2732,0.1391869295515143,0
2733,0.07611761913828334,0
2734,3.2782641022714243,0
2735,6.473550082780301,0
2736,-2.5752652777489953,0
2737,1.018393988599022,0
2738,-0.15136999202430085,0
2739,0.1189616968747,0
2740,0.04519687966541714,0
2741,0.08192343707607819,0
2742,-0.032718961389330004,0
2743,0.0403504856105462,0
2744,-0.029772374252275507,0
2745,0.07360420113816782,0
2746,-0.011246080359939983,0
2747,-0.035776546545497126,0
2748,0.16054994851849672,0
2749,0.03708419147532002,0
2750,0.5174289596745885,0
2751,5.513643755439503,0
2752,3.890228713140796,0
2753,-2.8347394210880674,0
2754,1.6214785545384487,0
2755,-0.7585585120571605,0
2756,0.4042252349661015,0
2757,-0.014094321675803018,0
2758,0.09459530686305903,0
2759,-0.05143179357363933,0
2760,0.030334646574294716,0
2761,-0.03149247113600823,0
2762,0.04826309645045068,0
2763,-0.0020859098851569585,0
2764,-0.10126135899691796,0
2765,0.020725181183905032,0
2766,-0.07450705278792952,0
2767,1.3835676599013906,0
2768,6.7418394847473015,0
2769,0.2724623691794891,0
2770,-1.1567715758059083,0
2771,0.8527230506322899,0
2772,-0.471248816097818,0
2773,0.09700949986983878,0
2774,-0.13185624250840508,0
2775,0.027375432297623264,0
2776,0.038843961281988276,0
2777,-0.050900479698149065,0
2778,-0.039325358997426035,0
2779,0.055747474037245726,0
2780,0.04580110078161523,0
2781,0.0019981700197381352,0
2782,-0.020521798023736985,0
2783,0.06895957596470832,0
2784,3.1927940777026595,0
2785,6.41318254187101,0
2786,-2.61544407940807,0
2787,0.7675438548847952,0
2788,-0.29664715295043836,0
2789,-0.05429489761654516,0
2790,-0.10003414171936444,0
2791,-0.0738347044872532,0
2792,-0.020546609195084425,0
2793,-0.07654692067693937,0
2794,0.05517424543982489,0
2795,-0.07627525172822146,0
2796,-0.06883022711112433,0
2797,-0.0031763286436799036,0
2798,0.047161208687707824,0
2799,-0.0141460113092513,0
2800,0.5254797713351836,0
2801,5.381241617456858,0
2802,3.812325702015244,0
2803,-2.8158985966150873,0
2804,1.5170222817805739,0
2805,-0.8253484117917959,0
2806,0.31986886433624784,0
2807,-0.09787798945689591,0
2808,0.00018610137650676428,0
2809,-0.025947354704099666,0
2810,-0.06540487864681097,0
2811,0.04307368714529054,0
2812,0.01688509504031984,0
2813,-0.048231346428162306,0
2814,0.08093411901510172,0
2815,0.015784554575047793,0
2816,0.04635713841897407,0
2817,1.4810705463618556,0
2818,6.9097062807771605,0
2819,0.22787938961939236,0
2820,-1.1222607831616056,0
2821,0.90552566592902,0
2822,-0.47314686273539946,0
2823,0.2935228624397588,0
2824,-0.044871199673421694,0
2825,0.07813328969451035,0
2826,0.022530458950915412,0
2827,-0.005902557957761765,0
2828,-0.09409466490824747,0
2829,0.0497006345475559,0
2830,0.04910497737876142,0
2831,0.008190688338359555,0
2832,0.08746500721929272,0
2833,0.11508601009757063,0
2834,3.2415587045381855,0
2835,6.483380607783938,0
2836,-2.502838514128876,0
2837,0.8449234493684422,0
2838,-0.28051102142850903,0
2839,0.09332882352545482,0
2840,-0.0005065890596156059,0
2841,0.09197497312843575,0
2842,0.06017006439823122,0
2843,-0.02248428264153722,0
2844,-0.11212335754058712,0
2845,0.009031411018814767,0
2846,0.02966621962368138,0
2847,0.07044246629602542,0
2848,0.0778540547178616,0
2849,0.02260355624864321,0
2850,0.4722654584192618,0
2851,5.306452607109332,0
2852,3.7873586538416375,0
2853,-2.897462940095697,0
2854,1.662238264386033,0
2855,-0.8009439378447983,0
2856,0.26227989724671985,0
2857,-0.16875956441566003,0
2858,0.0045550434640090984,0
2859,0.0011109335803152834,0
2860,-0.0016440402871994789,0
2861,-0.0439193349824707,0
2862,-0.06424603424930231,0
2863,-0.04714831919493719,0
2864,0.0030015738660777065,0
2865,0.005523502890217542,0
2866,0.0786345587146063,0
2867,1.477590231146626,0
2868,6.81655495809714,0
2869,0.1725293089989485,0
2870,-1.1896346450212558,0
2871,0.8631394864992462,0
2872,-0.4457389082335975,0
2873,0.15983916964810757,0
2874,-0.08790749662373563,0
2875,-0.08255931365169245,0
2876,0.05442531351790285,0
2877,0.08435730798756791,0
2878,-0.10337721145068632,0
2879,0.030645550039454898,0
2880,-0.08416024517346354,0
2881,0.007065758603584854,0
2882,-0.09839607230689622,0
2883,-0.03527831794898416,0
2884,3.2220583159061746,0
2885,6.291794110538006,0
2886,-2.5988249289039693,0
2887,0.9048391131588107,0
2888,-0.3880564988374896,0
2889,0.12204618732288199,0
2890,0.0033805197897056327,0
2891,0.07147008130661608,0
2892,-0.06390461496205091,0
2893,-0.02830147358410292,0
2894,0.012727206648639461,0
2895,0.029564058862741792,0
2896,-0.02011637306421736,0
2897,0.036414505152209606,0
2898,-0.07270709144562218,0
2899,-0.015312174732547406,0
2900,0.4734916090858257,0
2901,5.445532291593313,0
2902,3.74047443983171,0
2903,-2.78542290313791,0
2904,1.521823876004801,0
2905,-0.9007137483431703,0
2906,0.3320485141454312,0
2907,-0.12540960274440924,0
2908,-0.007711323145056513,0
2909,0.02911833194098335,0
2910,0.00023031657621886553,0
2911,-0.029456311347991353,0
2912,-0.009662828657815148,0
2913,-0.10324943537624479,0
2914,-0.0671204595915324,0
2915,-0.11860902328084236,0
2916,0.03083140736428336,0
2917,1.35024638832404,0
2918,6.794792832583536,0
2919,0.16232481409560473,0
2920,-1.185169258135935,0
2921,0.8187295253064485,0
2922,-0.5335113263340419,0
2923,0.16751940041709462,0
2924,-0.1792444116858361,0
2925,-0.0358478351555285,0
2926,-0.14327180734812056,0
2927,-0.07673335638183865,0
2928,-0.09227326953990656,0
2929,-0.11012511385964847,0
2930,-0.09028320153255726,0
2931,-0.09616579682726573,0
2932,-0.020372932095266527,0
2933,0.0015467297396950866,0
2934,3.2033477911187456,0
2935,6.3319889690545015,0
2936,-2.5643963754591956,0
2937,0.820394942541126,0
2938,-0.2772298427982804,0
2939,0.041281337167136556,0
2940,-0.09826278394336177,0
2941,-0.06177196376032161,0
2942,-0.08517144596505503,0
2943,0.02649163144828932,0
2944,-0.03626746295466649,0
2945,0.05484817554496056,0
2946,0.08044591821870474,0
2947,0.006897957244340263,0
2948,0.023371311959947367,0
2949,0.07490637273649994,0
2950,0.49845739636198705,0
2951,5.338033037149771,0
2952,3.7995785323312643,0
2953,-2.852043651310352,0
2954,1.5981663950728415,0
2955,-0.7899713515663597,0
2956,0.3276379149480795,0
2957,-0.2413169000519402,0
2958,-0.06844077913173306,0
2959,-0.07505273312894506,0
2960,0.012418469279464751,0
2961,0.0018872076676196212,0
2962,-0.15055493145814802,0
2963,-0.06905326216952146,0
2964,-0.08700508867684237,0
2965,-0.0024299024340699305,0
2966,-0.05320809253019579,0
2967,1.457001678211382,0
2968,6.871096025660552,0
2969,0.17131530744429746,0
2970,-1.192415239919046,0
2971,0.7527777116998573,0
2972,-0.4019131923036219,0
2973,0.22118216015460695,0
2974,-0.0556772872777252,0
2975,0.010917827428127707,0
2976,0.017414362076203786,0
2977,-0.015270833319810372,0
2978,0.1266047826913172,0
2979,0.023670075496073643,0
2980,-0.03540451595397148,0
2981,0.04936786822841569,0
2982,0.033833873103252386,0
2983,0.13569593808048586,0
2984,3.2448834105927418,0
2985,6.402661906621179,0
2986,-2.6016622474142412,0
2987,0.8768087430283508,0
2988,-0.3757233421531833,0
2989,0.0536566989774982,0
2990,-0.08157534486959542,0
2991,0.05869055255521388,0
2992,0.0045802824116327676,0
2993,0.02529915729230609,0
2994,-0.0461060761756205,0
2995,-0.0892752270196625,0
2996,-0.037022664508818984,0
2997,-0.0546773371757824,0
2998,-0.14439857652642799,0
2999,-0.09142188591724355,0
3000,0.4911667900987974,0
3001,5.4669320728850765,0
3002,3.6743267333303598,0
3003,-2.8019044284261194,0
3004,1.6270053866559508,0
3005,-0.7660030685512851,0
3006,0.28180641518184285,0
3007,-0.06758426423415191,0
3008,0.039218552402527626,0
3009,-0.012084699291461701,0
3010,-0.005641803654687366,0
3011,-0.04667846606664197,0
3012,-0.09321960125501023,0
3013,-0.014082561743645326,0
3014,0.054962931936146035,0
3015,-0.09957091762147066,0
3016,-0.018005869215458298,0
3017,1.4568979734145726,0
3018,6.86493904512607,0
3019,-0.016651828086738957,0
3020,-1.1771976852904216,0
3021,0.7970388192528662,0
3022,-0.4004115775850739,0
3023,0.1917374959679469,0
3024,-0.04109880157539651,0
3025,-0.07548132383849154,0
3026,-0.08798557590224768,0
3027,-0.04991592824153103,0
3028,-0.06286830731774551,0
3029,-0.007694777007280426,0
3030,0.03564681709115655,0
3031,-0.01295004413734142,0
3032,0.019044757840986144,0
3033,0.0273272033495274,0
3034,3.2955335843732887,0
3035,6.352793445794713,0
3036,-2.721318017632678,0
3037,0.938154328826391,0
3038,-0.23853726585775759,0
3039,0.06502234149006544,0
3040,-0.05452220285795066,0
3041,-0.015091523499306085,0
3042,0.004311266555622356,0
3043,0.018920135708365596,0
3044,0.05971181322957203,0
3045,-0.04136957454708408,0
3046,-0.01279567548785626,0
3047,-0.021589608012151706,0
3048,-0.09252822262880912,0
3049,0.1018889883979184,0
3050,0.4611519048030651,0
3051,5.473753895298665,0
3052,3.765316982719652,0
3053,-2.797974908298486,0
3054,1.4581189971603512,0
3055,-0.7747824352539021,0
3056,0.3069776900069806,0
3057,-0.051148825491076536,0
3058,-0.10408343409610717,0
3059,0.04256312439396355,0
3060,0.033422350129759935,0
3061,0.055754743140906796,0
3062,-0.12289987448604009,0
3063,-0.05528111040087885,0
3064,0.01225294328694821,0
3065,0.006685753218594159,0
3066,-0.07529379866322733,0
3067,1.4409153037701423,0
3068,6.836446015482942,0
3069,0.13886487479923232,0
3070,-1.1950638829359441,0
3071,0.799503969749143,0
3072,-0.49536790422042176,0
3073,0.20695320858277166,0
3074,-0.14961463807862269,0
3075,-0.0011910093493156925,0
3076,-0.06105366320518268,0
3077,-0.03886124229883943,0
3078,0.0228542106518374,0
3079,-0.05689007674847554,0
3080,0.05203768644298169,0
3081,-0.0001501654859681705,0
3082,-0.045081282630656555,0
3083,0.08344782049846199,0
3084,3.265985342034382,0
3085,6.37809903368504,0
3086,-2.573119971348457,0
3087,0.9387959251587692,0
3088,-0.2912135896288902,0
3089,0.016785709113105764,0
3090,-0.026541262825067122,0
3091,0.02330429715460172,0
3092,0.016534881826191693,0
3093,0.13133741349466851,0
3094,-0.1217816280147857,0
3095,-0.02424104725462474,0
3096,0.010446150101731375,0
3097,-0.008361125915655625,0
3098,-0.113056901544621,0
3099,-0.03414138280441695,0
3100,0.39375798940396484,0
3101,5.4639535992515285,0
3102,3.6637697163767475,0
3103,-2.8842609473012164,0
3104,1.498891821659128,0
3105,-0.8011038656360456,0
3106,0.38001658325455395,0
3107,-0.17201060538402976,0
3108,0.00722670177930685,0
3109,-0.04791019927115094,0
3110,-0.05663695169282994,0
3111,-0.14511620979892578,0
3112,-0.10217515409474337,0
3113,-0.013599917412963722,0
3114,-0.07664140363648402,0
3115,0.02715700164296493,0
3116,-0.06828463390155991,0
3117,1.3947455485410007,0
3118,6.81316741835673,0
3119,0.04490707027535588,0
3120,-1.1993988437670804,0
3121,0.668904162011848,0
3122,-0.42532591058911823,0
3123,0.1065707086503029,0
3124,-0.07734875447984636,0
3125,0.014501660826254993,0
3126,0.03698222954548658,0
3127,0.0183779205449614,0
3128,-0.02343988644327495,0
3129,-0.016074117533193624,0
3130,-0.053365821328417266,0
3131,-0.04951535828171563,0
3132,-0.05249008854478297,0
3133,0.09492033938548072,0
3134,3.358934261577605,0
3135,6.365619300905178,0
3136,-2.6408644083818413,0
3137,0.9080448875073468,0
3138,-0.3526515495383816,0
3139,0.059902806201482604,0
3140,-0.0699353546831949,0
3141,-0.0765502680132303,0
3142,0.03148557111976547,0
3143,-0.02901939319622352,0
3144,0.03417473895939613,0
3145,-0.13194498532286064,0
3146,-0.04801393159136899,0
3147,0.00010099521566236946,0
3148,-0.0647580534500849,0
3149,-0.0142085806650985,0
3150,0.4409896216642258,0
3151,5.429933714678128,0
3152,3.5645920551389256,0
3153,-2.8255032249597734,0
3154,1.5280270383310535,0
3155,-0.8383950935009362,0
3156,0.38352483803096227,0
3157,-0.16924555997514093,0
3158,0.0032103072595904975,0
3159,-0.028974185875001942,0
3160,0.027907221058979484,0
3161,-0.04518600226914649,0
3162,0.000912104044385657,0
3163,0.05516463203103814,0
3164,-0.046500492861365934,0
3165,0.07220694137671137,0
3166,0.03562572652574053,0
3167,1.5775357296976233,0
3168,6.904999906640456,0
3169,0.03337361959914926,0
3170,-1.068119078548855,0
3171,0.8647809536429267,0
3172,-0.4434088664411756,0
3173,0.09321931361099807,0
3174,-0.033427272636446015,0
3175,0.020798167724174855,0
3176,0.024586261433759818,0
3177,0.03445009300031783,0
3178,-0.07366552317140396,0
3179,0.07089049022938208,0
3180,0.02252033505991821,0
3181,0.022908601345685203,0
3182,0.008455134926493519,0
3183,0.0916567863919687,0
3184,3.407494518045268,0
3185,6.326099815690823,0
3186,-2.5927770381784647,0
3187,1.0226812477515235,0
3188,-0.16150736711746333,0
3189,0.11576629703984344,0
3190,0.04426196573025795,0
3191,0.038876974945803916,0
3192,0.0567101058400578,0
3193,-0.014040942698910985,0
3194,0.08058996395150787,0
3195,-0.030968358936591348,0
3196,0.11405969937877952,0
3197,0.05063702610443471,0
3198,-0.0041796540927184905,0
3199,0.03407897895757177,0
3200,0.5428581070975933,0
3201,5.471445752277348,0
3202,3.612056054331401,0
3203,-2.8349552580455364,0
3204,1.5768087957793047,0
3205,-0.7669799911961251,0
3206,0.3151482138139127,0
3207,-0.15708201160103696,0
3208,0.032650274124811834,0
3209,0.047355435017027894,0
3210,0.10808957913090146,0
3211,-0.0803223452352842,0
3212,-0.09411445780220884,0
3213,-0.049597591026019044,0
3214,-0.040783936823765035,0
3215,0.0546450294168733,0
3216,-0.010348089025048312,0
3217,1.4943712385962447,0
3218,6.931337303239969,0
3219,0.0004887517149065913,0
3220,-1.0798264771753607,0
3221,0.8289876167367617,0
3222,-0.39290488119253625,0
3223,0.18480822331092242,0
3224,-0.07417242987470535,0
3225,0.10420507072287771,0
3226,0.025088469407798755,0
3227,0.04760982826657176,0
3228,0.04927663129411686,0
3229,0.1260874493877131,0
3230,0.056997492470334844,0
3231,0.10874124729661694,0
3232,-0.06257556524958521,0
3233,0.1560485807741773,0
3234,3.332741363933356,0
3235,6.39194833547872,0
3236,-2.777372797323882,0
3237,1.0584977998714844,0
3238,-0.2939603092008671,0
3239,0.1310459011564009,0
3240,-0.018619325091125603,0
3241,0.005670098281651999,0
3242,0.07579617110398462,0
3243,-0.016321710914883346,0
3244,0.034253993017996476,0
3245,0.08578704699635134,0
3246,-0.030494889562916423,0
3247,-0.013402919608263814,0
3248,0.014177245344817024,0
3249,0.09637478615703896,0
3250,0.4888829191186899,0
3251,5.456908120827715,0
3252,3.6065356688550816,0
3253,-2.697755869552804,0
3254,1.6368160340093532,0
3255,-0.7690809732133956,0
3256,0.339923195047303,0
3257,-0.14402375746515528,0
3258,-0.0007506577629147748,0
3259,-0.0448745402745694,0
3260,0.009418878432536706,0
3261,-0.0024661683608489257,0
3262,-0.05689705048560781,0
3263,0.02766527271479359,0
3264,0.049092309170564875,0
3265,-0.08825264253698678,0
3266,0.0770671819621299,0
3267,1.5442803337152047,0
3268,6.876080469126379,0
3269,0.05346138278633094,0
3270,-0.9973174862808571,0
3271,0.8681365284567987,0
3272,-0.38900952181489473,0
3273,0.23315914028229234,0
3274,-0.11466142743285279,0
3275,0.018520846190964134,0
3276,0.02435927186180694,0
3277,-0.05436210995142378,0
3278,0.0007852124666364833,0
3279,0.033600387980274204,0
3280,-0.030761597538225695,0
3281,0.040968998554197215,0
3282,-0.069763442366312,0
3283,0.0628455451867966,0
3284,3.3537207726626987,0
3285,6.5142977643511655,1
3286,-0.7372393651554296,1
3287,-0.14564830993543426,1
3288,-0.011261407529887323,1
3289,0.022693893066870946,1
3290,-0.03391370461268153,1
3291,-0.02854104959586829,1
3292,0.08672686394158743,1
3293,4.575223167225086,1
3294,1.5606002867783697,1
3295,0.2199135804919956,1
3296,0.052674994479988906,1
3297,-0.010163807017171109,1
3298,-0.13346303001763257,1
3299,-0.004785797822615977,1
3300,1.8102567971778236,1
3301,-2.0893664854311407,1
3302,-0.4857944612493072,1
3303,-0.10186533414232404,1
3304,-0.09438434365538813,1
3305,-0.07518934155357197,1
3306,-0.09331214676287097,1
3307,0.0049059792044724715,1
3308,5.693446408141452,1
3309,-1.8465088836473806,1
3310,-0.3311345953346497,1
3311,-0.03910759418384015,1
3312,-0.10897990386770182,1
3313,-0.07701245969209819,1
3314,0.05257217814710528,1
3315,0.009319648844351318,1
3316,5.997292439352385,1
3317,1.4925784824696915,1
3318,0.2947262184628182,1
3319,0.030822214239651056,1
3320,-0.1757590649461946,1
3321,-0.05519721226894603,1
3322,-0.014508041450225086,1
3323,0.9888020902960857,1
3324,-0.6850823699997798,1
3325,-0.010638086982421788,1
3326,-0.15378456186846362,1
3327,-0.06877620367001548,1
3328,-0.05283193718085304,1
3329,-0.025742080660868707,1
3330,-0.057588819709735437,1
3331,4.766415947364375,1
3332,-2.609593455628367,1
3333,-0.5942469457214727,1
3334,-0.0945365555571958,1
3335,-0.01632658924742738,1
3336,-0.07616925504239459,1
3337,-0.06443026606105556,1
3338,-0.09068938540752647,1
3339,6.753456654491371,1
3340,1.1383669991123198,1
3341,0.20387824165181986,1
3342,0.051693173145730915,1
3343,-0.11523122794752205,1
3344,-0.10901985051072538,1
3345,-0.05156299735989027,1
3346,0.5228070422512346,1
3347,1.0976010153950442,1
3348,0.4853915724519703,1
3349,-0.01975837096966157,1
3350,0.04142551292447245,1
3351,-0.0026471580966035066,1
3352,-0.07504623289056084,1
3353,-0.041355885647371526,1
3354,3.761699479679638,1
3355,-3.009168853890462,1
3356,-0.8022925160776122,1
3357,-0.12476905996151101,1
3358,-0.07149761925898783,1
3359,-0.09383499968683402,1
3360,-0.01409880518807484,1
3361,-0.07094298580948878,1
3362,6.880353201342607,1
3363,0.3996980771616332,1
3364,0.091415610759055,1
3365,-0.12069254569238272,1
3366,0.0243963716935668,1
3367,-0.15708715058644168,1
3368,-0.0008489600311129206,1
3369,0.3013462643020013,1
3370,2.877662544560731,1
3371,1.029714768818392,1
3372,0.09301351775030975,1
3373,-0.07332614662747053,1
3374,0.04854480028708718,1
3375,-0.1373943801973118,1
3376,-0.024638512528048447,1
3377,2.6520023489117106,1
3378,-2.7377551045512107,1
3379,-0.7215916363402618,1
3380,-0.13811993919516558,1
3381,-0.09358754162061925,1
3382,-0.09127084072676211,1
3383,0.013897000518194653,1
3384,-0.07282253720694411,1
3385,6.38985303169476,0
3386,-2.680144748737896,0
3387,1.032991120756187,0
3388,-0.3380700473026423,0
3389,0.13216569660508423,0
3390,-0.07176249438321078,0
3391,0.046298443999961865,0
3392,-0.0015389832611318328,0
3393,0.08606040131642183,0
3394,0.029617699020107566,0
3395,0.020422024130844083,0
3396,-0.03302969117415279,0
3397,-0.02764091160000992,0
3398,0.03517264592246022,0
3399,0.010043808198223784,0
3400,0.49749347427856283,0
3401,5.571216853124229,0
3402,3.585515988445169,0
3403,-2.8258427449587247,0
3404,1.501508607215244,0
3405,-0.6806510274640482,0
3406,0.36956542666656833,0
3407,-0.10645194813101273,0
3408,0.020304202787721982,0
3409,-0.08055290699328066,0
3410,0.08101134710846261,0
3411,0.005952566043614454,0
3412,-0.09599779060369829,0
3413,-0.10079519379497424,0
3414,-0.08776666833145821,0
3415,-0.0038439512270694604,0
3416,-0.049098194749286964,0
3417,1.5593900690639537,0
3418,7.0036176358922475,0
3419,-0.03988995335065082,0
3420,-0.013320076500411221,1
3421,0.03228204059311212,1
3422,-0.002886924445869306,1
3423,1.1586822433643895,1
3424,-0.8143009257651559,1
3425,-0.026784100145655233,1
3426,-0.04475362731793687,1
3427,-0.08417497310302562,1
3428,0.04213551607082475,1
3429,0.06642711899950665,1
3430,-0.021531368539809283,1
3431,5.03597571360328,1
3432,-2.5479856869776802,1
3433,-0.5540970036876792,1
3434,-0.048149543072302695,1
3435,0.050394179590383587,1
3436,0.10656636980760953,1
3437,0.13582903875275126,1
3438,-0.009019279778845975,1
3439,6.655153771453138,1
3440,1.2732379297573886,1
3441,0.2655144617838063,1
3442,0.022931728994568457,1
3443,-0.03399682548053296,1
3444,0.05569570702406256,1
3445,0.03621994410253155,1
3446,0.7443823484732799,1
3447,0.9678359603008874,1
3448,0.5488593347539088,1
3449,-0.03536740868478113,1
3450,-0.026650703336696724,1
3451,0.008045931085951103,1
3452,0.07415966143677603,1
3453,-0.010743026546219253,1
3454,3.974495806079869,1
3455,-2.932814776419596,1
3456,-0.7777093650762629,1
3457,-0.11350817181735853,1
3458,0.022089414312456795,1
3459,-0.014704970734076879,1
3460,0.06409635076532236,1
3461,0.07991211067460588,1
3462,6.9303754762782885,1
3463,0.4931823452699529,1
3464,0.17619545738884587,1
3465,0.06410213936622464,1
3466,0.011268812957156177,1
3467,0.037906702777283335,1
3468,-0.032907248032923504,1
3469,0.3483487549674267,1
3470,2.8168549303300834,1
3471,1.1657304807757922,1
3472,0.08407094803173495,1
3473,-0.016861360301431868,1
3474,-0.018749930690408572,1
3475,0.015627844495692128,1
3476,0.07131505225341703,1
3477,2.930280914928467,1
3478,-2.8724760467116397,1
3479,-0.7090928007500492,1
3480,-0.08172860633656373,1
3481,-0.009374615244464523,1
3482,0.027506107482073543,1
3483,0.0459097798829606,1
3484,0.10261155332687039,1
3485,6.521232641201865,1
3486,-0.524833526504922,1
3487,-0.08473009701547211,1
3488,-0.044162702685498885,1
3489,0.14311640354082644,1
3490,0.05532389559888311,1
3491,0.023597363599061217,1
3492,0.26681095753561207,1
3493,4.51596415316321,1
3494,1.5192228253937696,1
3495,0.2640097397563788,1
3496,0.014456054893725681,1
3497,0.09549067382135894,1
3498,-0.0997459506351963,1
3499,0.02241972552613696,1
3500,1.9476182520247165,1
3501,-2.269237655682207,1
3502,-0.6142573114796275,1
3503,-0.13597413557144808,1
3504,-0.0005671825430831959,1
3505,-0.021308293876258246,1
3506,0.020061422729282068,1
3507,-0.09526319383202411,1
3508,5.911711333872952,1
3509,-1.535419157435643,1
3510,-0.3367635183444475,1
3511,-0.02006069676404843,1
3512,-0.00981418997681131,1
3513,-0.07602080672269124,1
3514,-0.06163051008308399,1
3515,-0.002579788485109487,1
3516,5.796418611320407,1
3517,1.6459274659092344,1
3518,0.39931673641146415,1
3519,0.007211204492272208,1
3520,-0.934405701100814,0
3521,0.8071044828944878,0
3522,-0.36445860669069025,0
3523,0.11969439792913578,0
3524,-0.1307603699284488,0
3525,-0.021429056976169304,0
3526,-0.02397797329254834,0
3527,0.059975329271552635,0
3528,-0.05577504001500582,0
3529,-0.041437737783786184,0
3530,0.13745499239324319,0
3531,0.08734554233239301,0
3532,-0.005878005053585804,0
3533,0.06493724474442375,0
3534,3.4636966593587353,0
3535,6.228275968757879,0
3536,-2.6599841379111573,0
3537,0.9883700847755819,0
3538,-0.3269537012205662,0
3539,0.04268602866766702,0
3540,-0.07275415838148838,0
3541,-0.01879752216371604,0
3542,-0.08208128533611442,0
3543,0.020554579075579085,0
3544,0.0023350563237685626,0
3545,-0.06530577419469574,0
3546,-0.015374454075486996,0
3547,-0.10709530637658646,0
3548,-0.006666837132657097,0
3549,0.05129272815800294,0
3550,0.5030930057514048,0
3551,5.575389256024381,0
3552,3.5799358522397475,0
3553,-2.755485545523295,0
3554,1.4912626299489875,0
3555,-0.867805925555234,0
3556,0.32818473884321925,0
3557,-0.10497444574447437,0
3558,0.004010638059066169,0
3559,0.01575953374249461,0
3560,0.0201314560819185,0
3561,-0.1250735190180923,0
3562,0.0524543611031494,0
3563,-0.005562735449259306,0
3564,0.04654719727319881,0
3565,-0.03921451824699264,0
3566,-0.03176531407250482,0
3567,1.593490498486314,0
3568,6.825894304999423,0
3569,-0.20447050325760088,0
3570,-1.0103015972059581,0
3571,0.6661889124460286,0
3572,-0.40650241201785287,0
3573,0.1351949385093547,0
3574,-0.04320667012296657,0
3575,-0.06244057394579438,0
3576,-0.06876415997533769,0
3577,-0.06476749869164654,0
3578,-0.057726116507530796,0
3579,-0.09996053909107905,0
3580,0.017265344957785048,0
3581,-0.06634918569318878,0
3582,-0.0601259973380614,0
3583,0.08207563166048436,0
3584,3.3789956280749687,0
3585,6.167155856159795,0
3586,-2.762306706007753,0
3587,0.9130164234051713,0
3588,-0.34551722827176234,0
3589,0.043279489549334034,0
3590,-0.16165925639910722,0
3591,-0.008311938034266771,0
3592,-0.03890738136238739,0
3593,0.05799399201898021,0
3594,0.005847240252406308,0
3595,-0.0400295190670958,0
3596,-0.06717013495524848,0
3597,-0.005646228324065368,0
3598,-0.04295065162102089,0
3599,-0.05126502177989231,0
3600,0.5014590745983393,0
3601,5.4580956927440045,0
3602,3.3651098428084967,0
3603,-2.7218338403936966,0
3604,1.391364560347082,0
3605,-0.8567347397632149,0
3606,0.3269082280898466,0
3607,-0.1889201847631332,0
3608,-0.10812188020821836,0
3609,0.021920571144191908,0
3610,-0.07768139039111358,0
3611,-0.14247584247485634,0
3612,-0.11230657785347439,0
3613,-0.07775462766784663,0
3614,-0.14627370427341035,0
3615,-0.021176837514807784,0
3616,-0.0447634367806524,0
3617,1.5221872335007511,0
3618,6.865708813476745,0
3619,-0.20829442194538517,0
3620,-1.0465529278666,0
3621,0.6916715532295519,0
3622,-0.47293355138301535,0
3623,0.06632965713029607,0
3624,-0.14975812537041938,0
3625,-0.09176211039508794,0
3626,-0.11932378472272057,0
3627,-0.11371774891102265,0
3628,-0.06493712671376486,0
3629,-0.08141929950470687,0
3630,-0.03334258328513918,0
3631,-0.13176526117456527,0
3632,-0.058587405950053364,0
3633,0.019159317191597337,0
3634,3.365279797341346,0
3635,6.310200638780165,0
3636,-2.730548010862854,0
3637,0.9723653578905742,0
3638,-0.4233685654358806,0
3639,0.15297242586546164,0
3640,-0.06726096242004653,0
3641,-0.03716856777496923,0
3642,0.011651215938172064,0
3643,0.07790115170297762,0
3644,0.08245025097540985,0
3645,-0.02170093921518032,0
3646,-0.0497414772767443,0
3647,-0.040077149310555935,0
3648,-0.07869582223813797,0
3649,-0.04389805168795148,0
3650,0.5472906221058158,0
3651,5.664914779763521,0
3652,3.364632973310995,0
3653,-2.754933613513135,0
3654,1.5801890442858773,0
3655,-0.8809375183230151,0
3656,0.3843265263466918,0
3657,-0.22004852536918124,0
3658,-0.041684566819231605,0
3659,-0.07679581367197849,0
3660,-0.001268303077787053,0
3661,-0.06928811023594195,0
3662,0.015337106482410913,0
3663,-0.030746389871672573,0
3664,-0.09238641448300736,0
3665,-0.05704692270537208,0
3666,0.08795930239268415,0
3667,1.564254778395343,0
3668,6.9390866841869,0
3669,-0.3300963649597248,0
3670,-0.9978117862262254,0
3671,0.6986251571472392,0
3672,-0.45116845277838435,0
3673,0.09594945977096009,0
3674,-0.08630375069438655,0
3675,-0.022041229264967443,0
3676,-0.04172709818065994,0
3677,-0.02391794019744862,0
3678,-0.06904546606183823,0
3679,-0.1482800457199015,0
3680,-0.019534398534031258,0
3681,-0.04876953385478437,0
3682,-0.05429120209907201,0
3683,0.06539069309352476,0
3684,3.470144168834509,0
3685,6.132889455949997,0
3686,-2.747034416252577,0
3687,0.9960348033052349,0
3688,-0.3974266785204574,0
3689,-0.026829248520946564,0
3690,-0.14620593223782374,0
3691,-0.12099948172403582,0
3692,-0.125869906843394,0
3693,-0.21102570326506637,0
3694,-0.036568798969616845,0
3695,-0.11978621973783393,0
3696,-0.17966968486012258,0
3697,0.02693918972751451,0
3698,-0.0940789814372073,0
3699,-0.08807800913440585,0
3700,0.5079911400369506,0
3701,5.465397220499965,0
3702,3.4064052985284357,0
3703,-2.8133956625489613,0
3704,1.435001022573163,0
3705,-0.767711934853714,0
3706,0.322696108062667,0
3707,-0.09556931706259175,0
3708,-0.06713744140243623,0
3709,-0.001431101723883034,0
3710,-0.0906452505474988,0
3711,0.004684995089225971,0
3712,-0.0435874753773311,0
3713,-0.03479650842851685,0
3714,-0.05889083859905492,0
3715,-0.017355083758225594,0
3716,0.013314886579665224,0
3717,1.6356017804032716,0
3718,6.918903846241073,0
3719,-0.3215113010924983,0
3720,-1.0354050249224835,0
3721,0.691432000741994,0
3722,-0.4155917239140567,0
3723,0.10517647231200147,0
3724,0.04705512279761161,0
3725,-0.0490164458423159,0
3726,-0.06051615700404393,0
3727,0.01234785149589555,0
3728,-0.04443536670563141,0
3729,-0.050646077291507205,0
3730,-0.06904253326321838,0
3731,0.032962181825909626,0
3732,0.0185739538350445,0
3733,0.08955037323130374,0
3734,3.4694408071872767,0
3735,6.176141671429954,0
3736,-2.8926403998133794,0
3737,1.0368231397043568,0
3738,-0.349377456845504,0
3739,0.12018870669742845,0
3740,-0.11326056816795027,0
3741,-0.12694786976149472,0
3742,-0.08421636476612596,0
3743,-0.07885968383510372,0
3744,0.03419824882589652,0
3745,0.08147838011147687,0
3746,-0.023280800295579808,0
3747,-0.1240980809869723,0
3748,-0.012856543101589695,0
3749,-0.032942490852339315,0
3750,0.5322838739721091,0
3751,5.52609174912008,0
3752,3.391058370605518,0
3753,-2.824917504639188,0
3754,1.5377950643196663,0
3755,-0.8039106596919241,0
3756,0.3789778829404859,0
3757,-0.23721466479681286,0
3758,0.0416854020158748,0
3759,-0.01383617995231226,0
3760,-0.05954697297055467,0
3761,0.012511281760739165,0
3762,-0.04757758014566277,0
3763,-0.02320519827133568,0
3764,-0.01329595418945521,0
3765,0.06107275191234022,0
3766,-0.014535168491706179,0
3767,1.5857380760926003,0
3768,6.854038421408078,0
3769,-0.2320231652299513,0
3770,-0.950426238304531,0
3771,0.7364096570583658,0
3772,-0.33554574995496717,0
3773,0.21637294098295118,0
3774,-0.016425944996470883,0
3775,-0.04095268849004405,0
3776,-0.024726993342146352,0
3777,0.009525148872680805,0
3778,-0.0001666982912865312,0
3779,0.06716949029289701,0
3780,-0.07537699809095239,0
3781,0.0014423957511797633,0
3782,-0.05314705110144345,0
3783,0.13529239651590153,0
3784,3.460243314255348,0
3785,6.213218443210436,0
3786,-2.8051672461232084,0
3787,1.0822341735277181,0
3788,-0.4360625120287826,0
3789,0.038029189593916955,0
3790,-0.05059315443639596,0
3791,-0.014144950811191204,0
3792,-0.03772480172359601,0
3793,-0.006977487190830524,0
3794,-0.09585916238357103,0
3795,-0.11395064333922131,0
3796,-0.025023142266696417,0
3797,-0.08910014366779753,0
3798,-0.005135992753553965,0
3799,-0.08539904880016108,0
3800,0.5113603982260712,0
3801,5.55285396717795,0
3802,3.455378127872569,0
3803,-2.6723722056117296,0
3804,1.493184657501551,0
3805,-0.7629938464357381,0
3806,0.33318010772565293,0
3807,-0.08253774035190048,0
3808,-0.07614167995661686,0
3809,0.027417735058821904,0
3810,-0.004127120281352408,0
3811,0.0030301345125484797,0
3812,0.039027131502684956,0
3813,0.02166213671148054,0
3814,-0.004046271906363856,0
3815,-0.10024887485092845,0
3816,0.06708541416624861,0
3817,1.6217117228867344,0
3818,6.847775024070652,0
3819,-0.23225043799881256,0
3820,-0.9584760158335497,0
3821,0.6344379101961067,0
3822,-0.5576836243606548,0
3823,0.048281913216303596,0
3824,-0.04930444026668399,0
3825,-0.049565692912340045,0
3826,-0.029778046119318967,0
3827,0.004402533384597257,0
3828,0.012797283905415333,0
3829,-0.06631143987326571,0
3830,-0.040835398962894454,0
3831,0.03068283000994801,0
3832,-0.08396719546088996,0
3833,0.13815360163539464,0
3834,3.5171892424155575,0
3835,6.131046879611973,0
3836,-2.6675032116582207,0
3837,1.057752668075877,0
3838,-0.4064149339815145,0
3839,0.07127748527205507,0
3840,1.5372515853565276,1
3841,0.40263836994706964,1
3842,0.13896045377628494,1
3843,0.16357031542906142,1
3844,0.07948960524726188,1
3845,0.09607128027429115,1
3846,0.8268525058610657,1
3847,0.34529167778642555,1
3848,0.35832342714834,1
3849,0.03496438257056159,1
3850,0.03812742986234646,1
3851,0.010457725457844402,1
3852,0.04518315414401797,1
3853,0.060824732677848846,1
3854,4.376617007397703,1
3855,-2.7811315607439293,1
3856,-0.6631222046891925,1
3857,-0.015055515246493385,1
3858,0.1012062543626116,1
3859,0.07658184662847799,1
3860,0.09650986491125954,1
3861,-0.06095425872375422,1
3862,7.044775719197661,1
3863,0.8914990573520325,1
3864,0.3027940499661846,1
3865,0.11849750763065878,1
3866,-0.0014305047910001117,1
3867,0.08463754314311381,1
3868,0.007025133381380402,1
3869,0.5694261251940103,1
3870,2.2130728609110983,1
3871,0.9428319488811281,1
3872,0.11784195017973226,1
3873,0.049449768852711316,1
3874,0.10997511415365255,1
3875,0.09952190051646859,1
3876,0.1358785846158752,1
3877,3.323220605381134,1
3878,-2.9394578091056043,1
3879,-0.7399801873010514,1
3880,-0.0694213165474406,1
3881,0.09587601495715559,1
3882,0.09738494805545815,1
3883,0.1202323507475443,1
3884,0.017160776884680873,1
3885,6.906497099280134,1
3886,-0.006228287226571722,1
3887,0.07946734947701856,1
3888,0.1428497293262606,1
3889,0.11925059288404523,1
3890,0.08318659652007598,1
3891,0.020750646282635607,1
3892,0.2973253329054479,1
3893,3.858329978696406,1
3894,1.3810654922029282,1
3895,0.3540832917808847,1
3896,0.09572723915160711,1
3897,0.0406450014415056,1
3898,0.038222137354720076,1
3899,0.0963664010327766,1
3900,2.2790350545948614,1
3901,-2.523814356045594,1
3902,-0.6066101731242816,1
3903,-0.1567707266011154,1
3904,0.03679473248373763,1
3905,0.012713868904040589,1
3906,0.14937292422198864,1
3907,-0.05476337447080777,1
3908,6.3059548487618855,1
3909,-1.1341347798055792,1
3910,-0.21881945028673122,1
3911,-0.024748498628007154,1
3912,0.04436470000190863,1
3913,-0.0055660719510602225,1
3914,0.0581349403321168,1
3915,0.170139475287369,1
3916,5.357101812880564,1
3917,1.7097698639223051,1
3918,0.3811165055168848,1
3919,0.12193327631882185,1
3920,0.16915988347844962,1
3921,0.1147511993758112,1
3922,0.06787896341404104,1
3923,1.4971353240663778,1
3924,-1.449147401635654,1
3925,-0.18789592720447032,1
3926,-0.055376509318590915,1
3927,0.1113062881206901,1
3928,0.12561519574304417,1
3929,0.03877842154399556,1
3930,0.11958758904134437,1
3931,5.387299661753836,1
3932,-2.101536091397823,1
3933,-0.3596343298724678,1
3934,0.03244783490575667,1
3935,0.20911015851195094,1
3936,0.11652397554414105,1
3937,-0.02192247695157555,1
3938,-0.006159186838468819,1
3939,6.4646458084302525,1
3940,-0.11056785539905459,0
3941,0.03282854983077933,0
3942,-0.07054465153934421,0
3943,-0.0904786310103925,0
3944,-0.03989722836295122,0
3945,-0.17631948289513927,0
3946,-0.1804603653012278,0
3947,-0.051561572222097424,0
3948,-0.05798644262817172,0
3949,-0.05778367475353436,0
3950,0.5824484098049109,0
3951,5.546684845115269,0
3952,3.197806472354671,0
3953,-2.775871784677973,0
3954,1.4859245277578002,0
3955,-0.8684120210351858,0
3956,0.36751579309113136,0
3957,-0.11329685150990154,0
3958,-0.021720446271019087,0
3959,-0.10404277328258443,0
3960,-0.04670409839586708,0
3961,-0.0062791299479346835,0
3962,-0.04280724679258569,0
3963,-0.0685239877098007,0
3964,-0.12060315158246084,0
3965,-0.11248250804143861,0
3966,-0.035772163771555884,0
3967,1.5737983763813874,0
3968,6.883167549274345,0
3969,-0.4214329685019519,0
3970,-0.936424269054198,0
3971,0.7166571266697321,0
3972,-0.3742353409321777,0
3973,0.09360665172814567,0
3974,-0.09599356811934145,0
3975,-0.006060708726703522,0
3976,0.0019896523105703834,0
3977,0.04723703077022249,0
3978,-0.0059697178224896764,0
3979,-0.04024359701370302,0
3980,-0.008636328724996213,0
3981,-0.05346671245932021,0
3982,-0.14485745454518664,0
3983,0.11419364134693208,0
3984,3.525307166649963,0
3985,6.185157962540749,0
3986,-2.8520009661124894,0
3987,1.030689936339396,0
3988,-0.38637131393108676,0
3989,0.13446722194295802,0
3990,0.013401498099212442,0
3991,0.01875071344016034,0
3992,0.028485417190586892,0
3993,-0.04335584133055119,0
3994,-0.010585003451077706,0
3995,-0.06577361718801579,0
3996,-0.0117604369170572,0
3997,-0.12527748588726859,0
3998,-0.09347742210409751,0
3999,-0.03607764052601409,0
4000,0.44080273651396706,0
4001,5.5884623924553525,0
4002,3.138050735320472,0
4003,-2.700231101309784,0
4004,1.555626032983689,0
4005,-0.8423094483743119,0
4006,0.27751539694766203,0
4007,-0.2216504794643026,0
4008,-0.0732051457431081,0
4009,-0.06968241413551637,0
4010,-0.13916756181416728,0
4011,-0.04639111149501468,0
4012,-0.059226480292005806,0
4013,-0.05976004095844403,0
4014,-0.08869046708192153,0
4015,-0.10079531199939298,0
4016,-0.15159105331360484,0
4017,1.5429759979950997,0
4018,6.8688903121101985,0
4019,-0.4306195651734314,0
4020,-0.8887576317442938,0
4021,0.6928948353743734,0
4022,-0.4488855613362396,0
4023,0.047589694853319216,0
4024,-0.08848028628332102,0
4025,0.03424517079545425,0
4026,-0.1336507371305617,0
4027,-0.04967156489936354,0
4028,0.056818319564022696,0
4029,-0.09919307688712484,0
4030,0.03756976502538961,0
4031,0.025643865768426574,0
4032,-0.019342393207281705,0
4033,0.1125692044202265,0
4034,3.563101363754408,0
4035,6.078076635484413,0
4036,-2.85846071140529,0
4037,1.096953557303255,0
4038,-0.46032426267570664,0
4039,0.1581745459442523,0
4040,-0.1671577555234665,0
4041,-0.10208057495726718,0
4042,-0.016578463028475814,0
4043,-0.09409941862722608,0
4044,-0.06524573441318052,0
4045,-0.14711370504514182,0
4046,-0.03427205672091021,0
4047,-0.059828808678231184,0
4048,0.03189262642498637,0
4049,-0.09111487467848338,0
4050,0.48757234967218993,0
4051,5.521928201007198,0
4052,3.2920924177753705,0
4053,-2.6563901527190628,0
4054,1.5310016297911901,0
4055,-0.8465851206370586,0
4056,0.24573905238177376,0
4057,-0.1981031021937883,0
4058,0.039211926166309904,0
4059,-0.16162527760556405,0
4060,0.014923926343228984,0
4061,-0.0844324701569269,0
4062,-0.012049470614546153,0
4063,0.018540689866089782,0
4064,0.018211617709142182,0
4065,0.06323541947605832,0
4066,0.023655511206711,0
4067,1.6143586406466819,0
4068,6.902626722896804,0
4069,-0.45655587896941446,0
4070,-0.8367252853059066,0
4071,0.7073992003605457,0
4072,-0.2889908246279512,0
4073,0.06332269907451452,0
4074,-0.09541948649824361,0
4075,0.005779680230591711,0
4076,-0.049219231871592835,0
4077,0.05581477047746141,0
4078,-0.11287593116080556,0
4079,-0.03141631499038983,0
4080,0.024931269145081952,0
4081,-0.10946121796456589,0
4082,-0.03113552916783323,0
4083,0.006904747439844552,0
4084,3.56906053886339,0
4085,6.00773755813534,0
4086,-2.930261894654925,0
4087,1.0253742945140232,0
4088,-0.48502653305748733,0
4089,0.09630304980982193,0
4090,-0.049666473758594135,0
4091,-0.006841694109509258,0
4092,-0.02149017761560215,0
4093,-0.06333954876773926,0
4094,-0.0403501691418234,0
4095,-0.08981746978788911,0
4096,-0.004818345127534818,0
4097,-0.05772419320007616,0
4098,-0.03570609773397758,0
4099,-0.02067014089952153,0
4100,0.5933055067049741,0
4101,5.68423913796354,0
4102,3.1713698009044524,0
4103,-2.6059519643918003,0
4104,1.5093808352076385,0
4105,-0.8200876158423956,0
4106,0.4127109251073553,0
4107,-0.09553182320966289,0
4108,-0.010995913196114177,0
4109,0.011549210302157878,0
4110,0.014650617750135108,0
4111,0.059246807238499066,0
4112,0.016701536180034615,0
4113,0.05294073440049085,0
4114,-0.074343125411788,0
4115,0.09512918404740042,0
4116,-0.012762053876408223,0
4117,1.6862724702099212,0
4118,6.923081297921186,0
4119,-0.45456484598735397,0
4120,-0.8694913324839634,0
4121,0.6721872528565536,0
4122,-0.3673881253352875,0
4123,0.1608129493305419,0
4124,-0.0627544059216838,0
4125,0.00403580058395454,0
4126,0.007707497572415168,0
4127,-0.05885512191220392,0
4128,-0.02257432130298333,0
4129,-0.03633872301840928,0
4130,0.0614073378119356,0
4131,-0.029089947389057257,0
4132,0.03204640348345067,0
4133,0.10263342698380379,0
4134,3.5894457022428936,0
4135,6.124009149861507,0
4136,-2.72754046955489,0
4137,1.2344279030617753,0
4138,-0.4350193676540147,0
4139,0.1740408976100772,0
4140,-0.09321726937640709,0
4141,-0.016082448467284766,0
4142,-0.09335058735365745,0
4143,-0.13667666583541518,0
4144,-0.06580810685027752,0
4145,-0.027261283757245763,0
4146,-0.07939516413980457,0
4147,-0.024345440547494275,0
4148,-0.010828161179498256,0
4149,-0.009882622998440765,0
4150,0.6211085499971306,0
4151,5.651909950117193,0
4152,3.155808198603028,0
4153,-2.5830201273923348,0
4154,1.5341827265160513,0
4155,-0.7632620985156294,0
4156,0.29752016909376877,0
4157,-0.09064642132681204,0
4158,0.08152145641021011,0
4159,0.04372414549250721,0
4160,0.041248647693072654,0
4161,0.005033587295599718,0
4162,0.0456744144161873,0
4163,-0.007223233586145572,0
4164,-0.007341961837553186,0
4165,0.0006122622982009801,0
4166,-0.056328277113898026,0
4167,1.7460444046079664,0
4168,7.026432894645987,0
4169,-0.3921129851272517,0
4170,-0.817739167193418,0
4171,0.7163383951622223,0
4172,-0.2619842535302548,0
4173,0.20995131596652333,0
4174,-0.11691694602983607,0
4175,0.06994542291244682,0
4176,0.04030407389054126,0
4177,0.08481789092076414,0
4178,0.10767710594592936,0
4179,0.06714179714227472,0
4180,-0.00119850764341254,0
4181,0.06352247520869457,0
4182,0.014337237306025739,0
4183,0.05951821593728932,0
4184,3.6777847119726816,0
4185,6.038530130718141,0
4186,-2.8502513244124397,0
4187,1.156546646838598,0
4188,-0.42055287428816107,0
4189,0.11310659378932585,0
4190,-0.16318564308243003,0
4191,-0.03548290734614598,0
4192,-0.20501276887115233,0
4193,-0.07766761328656974,0
4194,-0.058939465829172456,0
4195,-0.08047709791586544,0
4196,-0.07025828275546186,0
4197,-0.0499291206060671,0
4198,-0.015664032618419633,0
4199,-0.027406273397253142,0
4200,0.545539205702243,0
4201,5.6442128948128945,0
4202,3.170575936129165,0
4203,-2.6072170192565576,0
4204,1.4534826742013076,0
4205,-0.83292505073452,0
4206,0.2292803259924266,0
4207,-0.1649659906414791,0
4208,-0.007001630147670995,0
4209,0.04679754727972498,0
4210,-0.010135766661306497,0
4211,-0.11635570174388718,0
4212,0.041067827645788355,0
4213,-0.08448628185370809,0
4214,0.010335298934116284,0
4215,-0.014803196165679617,0
4216,-0.07432771313896439,0
4217,1.6754207434316082,0
4218,6.803817830884923,0
4219,-0.39372149525756306,0
4220,-0.7569375941192751,0
4221,0.6711934217553753,0
4222,-0.34474466922511227,0
4223,0.15741054838548033,0
4224,-0.09075871794890712,0
4225,0.023091198825894048,0
4226,-0.0016701398731121218,0
4227,-0.04862915263577153,0
4228,-0.15457162362017382,0
4229,0.07406016216263733,0
4230,-0.06997579417780503,0
4231,-0.012809985777000894,0
4232,0.03812340667515418,0
4233,0.11257504005692505,0
4234,3.6053202485811324,0
4235,6.125037820891543,0
4236,-2.755196045724644,0
4237,1.1838457569949716,0
4238,-0.4497352303270572,0
4239,0.12566422285708945,0
4240,-0.0516700968100222,0
4241,0.007459901277991421,0
4242,-0.041088232249796255,0
4243,-0.07364095441737344,0
4244,0.06477486873499419,0
4245,0.00718278917692999,0
4246,-0.013683966441012939,0
4247,-0.12380940710138034,0
4248,0.04176475951696629,0
4249,-0.013055143438465443,0
4250,0.5766739779439358,0
4251,5.698825782894021,0
4252,3.1074097517794548,0
4253,-2.6262626913523817,0
4254,1.514460379843557,0
4255,-0.7721629106775919,0
4256,0.36728412212903316,0
4257,-0.07063205958023601,0
4258,-0.017315945886834744,0
4259,-0.0199154676371396,0
4260,-0.01865138529370976,0
4261,-0.05833724960264957,0
4262,0.009556018609225364,0
4263,-0.01094373173611713,0
4264,-0.028555628798987882,0
4265,-0.11286178544084638,0
4266,0.012839548822056415,0
4267,1.7253492177976377,0
4268,6.903689254500758,0
4269,-0.506234996893787,0
4270,-0.7429323130036328,0
4271,0.5524384107164282,0
4272,-0.34138596931208964,0
4273,0.125291831497242,0
4274,-0.08975653963443833,0
4275,0.02760745791142518,0
4276,0.032569980930698905,0
4277,0.018853688034819658,0
4278,-0.10221473965486919,0
4279,0.04068329803262394,0
4280,0.03505403262897677,0
4281,0.01235427793748442,0
4282,-0.03328639197931199,0
4283,0.17467668820051113,0
4284,3.590114005435725,0
4285,6.1204833160836625,0
4286,-2.8137995004294005,0
4287,1.1403482238448324,0
4288,-0.47440260958111546,0
4289,0.11882174223885827,0
4290,-0.025510330929170225,0
4291,0.07776978138031815,0
4292,-0.017993150549776023,0
4293,0.06709159413860721,0
4294,0.031655310630333944,0
4295,-0.02011824889910488,0
4296,0.01807632360315327,0
4297,-0.014571323765222,0
4298,-0.17237923531089014,0
4299,0.06083984439930769,0
4300,0.5585509454334223,0
4301,5.654655624242961,0
4302,3.10733795190311,0
4303,-2.6399681381905853,0
4304,1.5303116957978269,0
4305,-0.8833054245668563,0
4306,0.314450579269688,0
4307,-0.13620740203824552,0
4308,0.026301549827880053,0
4309,-0.07258129898865914,0
4310,-0.06532785769976884,0
4311,0.0043606590341779185,0
4312,0.004285770194363665,0
4313,-0.07935101133478978,0
4314,0.08074584845049881,0
4315,0.06478662393783832,0
4316,0.05049062116257856,0
4317,1.7077764080298328,0
4318,7.061661090715612,0
4319,-0.4700337805413954,0
4320,-0.7398486073609218,0
4321,0.6852885183915428,0
4322,-0.28395573174405825,0
4323,0.1714232510957072,0
4324,-0.03591424198667973,0
4325,0.024846892526119494,0
4326,-0.0009221502506735132,0
4327,-0.07298587470241001,0
4328,-0.10245547667602958,0
4329,0.07688174519925528,0
4330,0.0653304879643244,0
4331,-0.045576016819107154,0
4332,0.036058606056858226,0
4333,0.20960608518121876,0
4334,3.7257855845905152,0
4335,6.085155014336876,0
4336,-2.837433127263115,0
4337,1.0928599173254165,0
4338,-0.37962615525872917,0
4339,0.23332706549761256,0
4340,-0.10703727159986254,0
4341,0.00347725738238909,0
4342,0.034366398518674984,0
4343,-0.10803445351373059,0
4344,-0.006369526701251556,0
4345,-0.020372826466604623,0
4346,-0.03394913060841756,0
4347,0.030142133481401455,0
4348,-0.07768719745982716,0
4349,-0.012418284221203162,0
4350,0.5490250104570222,0
4351,5.729198476086531,0
4352,3.1866921363722556,0
4353,-2.7174806851254476,0
4354,1.578301790461138,0
4355,-0.7603192247436472,0
4356,0.22400169021598243,0
4357,-0.13923131477151532,0
4358,-0.006719945261549223,0
4359,-0.04386751930184404,0
4360,-0.011078152908615232,0
4361,0.0625028506421265,0
4362,-0.04790959533874703,0
4363,0.010905440549037948,0
4364,-0.03560238495537754,0
4365,-0.028614907274492993,0
4366,0.0607000425268171,0
4367,1.7850021303424064,0
4368,7.0580553444306435,0
4369,-0.4509317337347283,0
4370,-0.6357296213283569,0
4371,0.6991349117307335,0
4372,-0.21060583096293145,0
4373,0.2747752412511075,0
4374,0.015381701196282363,0
4375,0.07346850317662092,0
4376,0.15449673255972704,0
4377,0.051274647923369734,0
4378,0.026279692471616628,0
4379,0.11357886980431797,0
4380,0.10174437100096753,0
4381,0.1442582265284924,0
4382,0.10846570332646695,0
4383,0.18933032413816847,0
4384,3.6421909248292037,0
4385,6.006488400272852,0
4386,-2.813958165427545,0
4387,1.1298287059332943,0
4388,-0.44363989633820344,0
4389,0.1805916332583965,0
4390,-0.14772382054072375,0
4391,-0.04170751728474198,0
4392,0.03838540643258366,0
4393,-0.02429499174307917,0
4394,0.014687465872223363,0
4395,0.04383497854935326,0
4396,-0.08871618334792175,0
4397,-0.00392612445815115,0
4398,-0.03139317198195289,0
4399,-0.08329260706109921,0
4400,0.6958924925240958,0
4401,5.787240179278354,0
4402,3.074563143577001,0
4403,-2.5661170914632705,0
4404,1.5001059605584341,0
4405,-0.8264891463584223,0
4406,0.29944287555644755,0
4407,-0.1039154419506263,0
4408,0.12092736873920014,0
4409,0.0014952239690660088,0
4410,-0.008533096741084182,0
4411,0.05427729462636201,0
4412,0.07040200561114535,0
4413,-0.0755315746204043,0
4414,-0.0803385657923088,0
4415,-0.08018292515331393,0
4416,0.08576413586349077,0
4417,1.7516611283777594,0
4418,6.98134216392869,0
4419,-0.5615028301249649,0
4420,-0.743597367906259,0
4421,0.6596112241502257,0
4422,-0.3650235714333536,0
4423,0.1420762494633717,0
4424,-0.06524053401253511,0
4425,0.06174822935327136,0
4426,-0.030393567593138143,0
4427,0.017892463252468686,0
4428,-0.05914984534218728,0
4429,-0.03558310697124101,0
4430,0.027955837389300908,0
4431,0.002705856422986417,0
4432,0.074322402126571,0
4433,0.05028569535381221,0
4434,3.585613256394367,0
4435,6.017250313834236,0
4436,-2.8485941819808756,0
4437,1.207655284519483,0
4438,-0.3761056083393214,0
4439,0.15879506721833817,0
4440,-0.002682260720700061,0
4441,0.06362156122196486,0
4442,-0.07830052120954177,0
4443,0.05174388492707596,0
4444,0.049927237404815736,0
4445,-0.07157404896322694,0
4446,0.023501015031594786,0
4447,0.021348179968213865,0
4448,0.03907360490089949,0
4449,0.05207991484772209,0
4450,0.7061801636421815,0
4451,5.80890846817988,0
4452,3.15344844886294,0
4453,-2.703653693603828,0
4454,1.5044111461707415,0
4455,-0.7590550475519052,0
4456,0.41344159184265694,0
4457,-0.16868464792416432,0
4458,0.025978193091356228,0
4459,-0.012330863054047635,0
