timestamp,value-0,is_anomaly
0,0.25064870983850057,0.0
1,4.521870399778639,0.0
2,4.9296036644243495,0.0
3,-2.9332671237481773,0.0
4,1.4986820854440428,0.0
5,-0.7095213966576094,0.0
6,0.3005189748434391,0.0
7,-0.08900595242852681,0.0
8,0.10720707307794315,0.0
9,-0.01259158717415828,0.0
10,0.10805820067126723,0.0
11,0.04410094397831515,0.0
12,0.024882349660170163,0.0
13,0.02432237657208938,0.0
14,0.12040234964653511,0.0
15,0.06098558263784175,0.0
16,-0.08486968427889185,0.0
17,0.9690235277907034,0.0
18,6.301549292285894,0.0
19,1.5133998957070018,0.0
20,-1.9685860150805343,0.0
21,1.1619427007758931,0.0
22,-0.5846983316874352,0.0
23,0.21613219888291596,0.0
24,-0.11348367241916603,0.0
25,0.05023402353663006,0.0
26,-0.03060684463587498,0.0
27,-0.00899676883351674,0.0
28,0.053114131192098436,0.0
29,0.005589568441719171,0.0
30,0.11652788019611282,0.0
31,0.10171287520035535,0.0
32,0.0023942438737931046,0.0
33,0.11474645563931384,0.0
34,2.456761632562569,0.0
35,6.87698716544834,0.0
36,-1.8036631204995266,0.0
37,0.19225917553573071,0.0
38,0.14296490803636497,0.0
39,-0.15310729599239564,0.0
40,-0.020282130318593633,0.0
41,-0.0016698551824337465,0.0
42,-0.028136005227833365,0.0
43,0.0836956500956737,0.0
44,-0.005678974177759297,0.0
45,-0.007526730208276777,0.0
46,-0.050778495281384436,0.0
47,-0.05110219839961991,0.0
48,0.01714640266644988,0.0
49,-0.0775959369043059,0.0
50,0.2513295074337876,0.0
51,4.656414616063547,0.0
52,4.978579238731433,0.0
53,-2.9199605735186505,0.0
54,1.5558088776428978,0.0
55,-0.8008841426085984,0.0
56,0.1821379388200173,0.0
57,-0.08749442939356042,0.0
58,0.06396749272653146,0.0
59,-0.05376043303537842,0.0
60,-0.13873221079597953,0.0
61,-0.016935600169541508,0.0
62,-0.008543139396885887,0.0
63,-0.013613873024204845,0.0
64,0.03873093637325697,0.0
65,0.009945533551748993,0.0
66,-0.05289272446460499,0.0
67,0.8894578163127752,0.0
68,6.485367205607611,0.0
69,1.4482942398851952,0.0
70,-1.909938735195542,0.0
71,1.1589850777220556,0.0
72,-0.7050802660044174,0.0
73,0.23690841799153786,0.0
74,-0.14933813891477585,0.0
75,-0.061049914162713326,0.0
76,-0.019482650111975537,0.0
77,-0.1056965497526747,0.0
78,-0.09692811984876962,0.0
79,-0.06385206836248598,0.0
80,-0.016569982340422097,0.0
81,-0.03303506760856315,0.0
82,-0.05877123612239286,0.0
83,0.03623628391482009,0.0
84,2.51793634359751,0.0
85,6.831221479082903,0.0
86,-1.8349574994462572,0.0
87,0.18201790682001653,0.0
88,0.0450101031856355,0.0
89,-0.057036974287640624,0.0
90,0.060531858869006,0.0
91,-0.051985202961252676,0.0
92,0.03398232110560914,0.0
93,0.0018458177366850737,0.0
94,-0.12759210507304558,0.0
95,-0.0031596156463439516,0.0
96,-0.10157217530423014,0.0
97,-0.0009769540436300114,0.0
98,-0.049245878960752276,0.0
99,-0.004986634852754135,0.0
100,0.19432501165282223,0.0
101,4.489140493523492,0.0
102,4.952213737599539,0.0
103,-3.090331172163483,0.0
104,1.5355530715243542,0.0
105,-0.8127861128486104,0.0
106,0.15546670602985635,0.0
107,-0.24193249656211463,0.0
108,-0.012297052283521057,0.0
109,-0.1668891522446448,0.0
110,-0.0397136821698824,0.0
111,-0.10780362895397183,0.0
112,-0.058793210865406106,0.0
113,-0.07405188416293848,0.0
114,-0.14657708923735202,0.0
115,0.050962484489750645,0.0
116,-0.05798810267029959,0.0
117,1.011185396034627,0.0
118,6.399819614897173,0.0
119,1.463194195885679,0.0
120,-1.967372205534167,0.0
121,1.143212887303285,0.0
122,-0.6996927361638248,0.0
123,0.18682341038046973,0.0
124,-0.1274877230747893,0.0
125,-0.08580717701630974,0.0
126,-0.04062207308657163,0.0
127,-0.011134258215941058,0.0
128,-0.012296922313011632,0.0
129,-0.040856574753026675,0.0
130,-0.04592188203440907,0.0
131,0.02895336043575133,0.0
132,-0.05107170483916092,0.0
133,0.06387098309761433,0.0
134,2.5166563805489397,0.0
135,6.896129337773745,0.0
136,-1.8506568234651524,0.0
137,0.20262625515540134,0.0
138,0.030728562349850705,0.0
139,-0.14578224671290727,0.0
140,-0.06060944246223098,0.0
141,-0.06876745455123179,0.0
142,0.03994341782972662,0.0
143,-0.15363621329417337,0.0
144,-0.018558028911666434,0.0
145,-0.03698211412826072,0.0
146,0.01465636917358401,0.0
147,-0.026579404237497873,0.0
148,-0.10921674694945852,0.0
149,-0.06831759440370065,0.0
150,0.30084136504441783,0.0
151,4.497690726249348,0.0
152,4.903956741080325,0.0
153,-3.0424819911355807,0.0
154,1.5247261615388954,0.0
155,-0.8435166838619494,0.0
156,0.3212392522690506,0.0
157,-0.13212165435434386,0.0
158,-0.00634772621958276,0.0
159,0.0409288322342936,0.0
160,-0.03671846380268999,0.0
161,0.0874532781501936,0.0
162,-0.06841869409774437,0.0
163,-0.003164952549820423,0.0
164,0.010627815030133922,0.0
165,0.008397715865627403,0.0
166,-0.06684734374591905,0.0
167,0.9752322047470277,0.0
168,6.4663008087209874,0.0
169,1.4222505286043459,0.0
170,-1.849399524322773,0.0
171,1.1122758220456335,0.0
172,-0.7183588057665731,0.0
173,0.29082160781968064,0.0
174,-0.13038385702664906,0.0
175,0.08743816988310216,0.0
176,-0.010352409571256233,0.0
177,0.07393531645869077,0.0
178,0.013072117459778097,0.0
179,0.07060547862433188,0.0
180,-0.02511548880578907,0.0
181,0.043520511220377506,0.0
182,-0.02130785780373765,0.0
183,0.030228843490415377,0.0
184,2.4456482619237097,0.0
185,6.874759510286661,0.0
186,-1.8259456516943806,0.0
187,0.1469721584262393,0.0
188,0.17841449008540972,0.0
189,-0.06695749072396691,0.0
190,0.011424930627669794,0.0
191,-0.07321643675696755,0.0
192,-0.01761992386296926,0.0
193,0.06558692308394304,0.0
194,-0.06288513488518573,0.0
195,-0.0767476237984473,0.0
196,0.07140985618061696,0.0
197,-0.04977493015471431,0.0
198,0.029829656808823424,0.0
199,0.08837644254403741,0.0
200,0.37737300289633835,0.0
201,4.5295853799699195,0.0
202,4.913605833810435,0.0
203,-3.0247344054572243,0.0
204,1.5499167247438825,0.0
205,-0.7173422939368252,0.0
206,0.32490814698869,0.0
207,-0.05995671961076329,0.0
208,-0.005958715862657178,0.0
209,0.012131330633778862,0.0
210,-0.01899620959196687,0.0
211,-0.10051341819995807,0.0
212,-0.12063787481961115,0.0
213,0.023756729349202563,0.0
214,0.03458612512565311,0.0
215,0.1030516145513205,0.0
216,-0.03037425351127163,0.0
217,0.9455794114091011,0.0
218,6.363062426928541,0.0
219,1.4973930082063467,0.0
220,-1.8926314821011287,0.0
221,1.209108216524265,0.0
222,-0.6421018105828172,0.0
223,0.24172368514797488,0.0
224,-0.10381523016521371,0.0
225,-0.04220895071360532,0.0
226,-0.003431531108703173,0.0
227,0.02181450202055502,0.0
228,0.04989864017061288,0.0
229,0.07503896871393312,0.0
230,0.08611912355262544,0.0
231,0.05022244722736802,0.0
232,0.08534350687307016,0.0
233,0.06296298679073684,0.0
234,2.5952029271287826,0.0
235,6.9086182703461825,0.0
236,-1.79175952271003,0.0
237,0.26348946166850196,0.0
238,0.08022131776962083,0.0
239,-0.17482135252476447,0.0
240,0.0527314185415601,0.0
241,0.016233606333654206,0.0
242,-0.026392788540510956,0.0
243,0.07034912669429086,0.0
244,0.10182973692892788,0.0
245,0.06441296632296303,0.0
246,-0.025132436972700737,0.0
247,0.003600389237565199,0.0
248,0.09427517766074903,0.0
249,0.06129526590952307,0.0
250,0.33839380568405864,0.0
251,4.601322832931712,0.0
252,4.9173192548664435,0.0
253,-3.0125605806887323,0.0
254,1.503159335208739,0.0
255,-0.7077094564986854,0.0
256,0.3632598311208413,0.0
257,0.09797873455049388,0.0
258,0.042204312454221224,0.0
259,0.057812524609544884,0.0
260,0.06714726008732054,0.0
261,0.031726889471401204,0.0
262,0.08674690619958386,0.0
263,0.058865256316929286,0.0
264,0.0722283806336441,0.0
265,0.07704383484115465,0.0
266,0.0048118149443397915,0.0
267,1.101965773803933,0.0
268,6.49410830655271,0.0
269,1.418829075768541,0.0
270,-1.9872337024004256,0.0
271,1.284081342200597,0.0
272,-0.6946399925628258,0.0
273,0.36630309001454875,0.0
274,-0.11072031662460632,0.0
275,0.0013438791466598085,0.0
276,-0.03488880867045653,0.0
277,0.041640014396471,0.0
278,0.10912849883068482,0.0
279,0.07218066519171408,0.0
280,0.062400924540897365,0.0
281,0.08649298941093114,0.0
282,0.13998262150531643,0.0
283,0.19682518756508455,0.0
284,2.682334590462552,0.0
285,6.979177057095384,0.0
286,-1.716262481794311,0.0
287,0.3233400530379053,0.0
288,0.2952831617288531,0.0
289,0.016694549266699873,0.0
290,0.22598978396184663,0.0
291,0.14155820854465892,0.0
292,0.17123865170287297,0.0
293,0.09006892351606222,0.0
294,0.0321707885790386,0.0
295,-0.03818403746007028,0.0
296,0.09619893346815883,0.0
297,0.04135231814660991,0.0
298,0.12011561553880162,0.0
299,0.06240450563564351,0.0
300,0.31321632796050636,0.0
301,4.801708682917939,0.0
302,4.979070238720299,0.0
303,-3.0535900201878268,0.0
304,1.6357646363960352,0.0
305,-0.7848374380374671,0.0
306,0.39557045912608124,0.0
307,-0.12178852719525697,0.0
308,0.04356530203493038,0.0
309,0.020996025266128607,0.0
310,0.06810128399737003,0.0
311,0.05577977511757426,0.0
312,0.09432634627487724,0.0
313,0.027294479031568352,0.0
314,0.11261686366952131,0.0
315,0.0938203640377766,0.0
316,-0.017719533368189003,0.0
317,0.9824482821743771,0.0
318,6.476571778275471,0.0
319,1.567309068245573,0.0
320,-1.8505350914579533,0.0
321,1.2984078473838383,0.0
322,-0.49336841576882684,0.0
323,0.3104511089601167,0.0
324,0.03939979905464887,0.0
325,-0.019421392636409143,0.0
326,0.001575448893737716,0.0
327,0.01995986997098896,0.0
328,-0.0006751650555197053,0.0
329,0.08561341841735819,0.0
330,0.12401217157693488,0.0
331,-0.09763783278408977,0.0
332,-0.0688979823652357,0.0
333,0.14891346683049733,0.0
334,2.5780884356787195,0.0
335,6.985063531942651,0.0
336,-1.7688823519765937,0.0
337,0.2693471803498313,0.0
338,0.12698884477428807,0.0
339,-0.044285819037070545,0.0
340,0.05052015724768631,0.0
341,0.053462180454398024,0.0
342,0.05069046920338024,0.0
343,0.16797600260620044,0.0
344,0.017298475928104906,0.0
345,0.14731771539219016,0.0
346,-0.04136970529765513,0.0
347,0.0641214335578233,0.0
348,0.18472577095731807,0.0
349,0.08591899263550576,0.0
350,0.29206290901919174,0.0
351,4.813586337554735,0.0
352,4.948332206202976,0.0
353,-2.9500283803953278,0.0
354,1.5794856355394362,0.0
355,-0.6729849213794371,0.0
356,0.3906282278414613,0.0
357,-0.07160353817168597,0.0
358,0.027137483054164663,0.0
359,0.10777917237625509,0.0
360,0.18416605576109998,0.0
361,0.06407859914004696,0.0
362,0.1210273432061762,0.0
363,0.04983884245904678,0.0
364,-0.011260746813818952,0.0
365,0.052903587587549206,0.0
366,0.025866947192064754,0.0
367,1.1446360462915963,0.0
368,6.496832134656386,0.0
369,1.4697409493039992,0.0
370,-1.7849952204952189,0.0
371,1.2804718144146405,0.0
372,-0.6470646379298534,0.0
373,0.28985346250884597,0.0
374,-0.14835752953461767,0.0
375,0.08311793454228503,0.0
376,0.06346198206778411,0.0
377,-0.00632881087274172,0.0
378,-0.11251415317270597,0.0
379,0.04944043677006617,0.0
380,0.06610396532965147,0.0
381,-0.0633954117776194,0.0
382,0.09616675584636225,0.0
383,0.08650286311787028,0.0
384,2.578133230212375,0.0
385,6.868015080574867,0.0
386,-1.8190111041205923,0.0
387,0.2797002867860493,0.0
388,0.20931355621681247,0.0
389,-0.07477619885646765,0.0
390,0.040609619905586376,0.0
391,-0.004181535886273727,0.0
392,0.0540207849302031,0.0
393,0.07281141209518845,0.0
394,0.060618553091431285,0.0
395,-0.03814325834747904,0.0
396,-0.07434421275145196,0.0
397,0.009160861053276041,0.0
398,-0.02523350379393416,0.0
399,0.0012596940533802226,0.0
400,0.24027129235145772,0.0
401,4.644778393305312,0.0
402,4.8278617091354725,0.0
403,-3.043018004924357,0.0
404,1.608876898444442,0.0
405,-0.7317405440999516,0.0
406,0.3062393971970514,0.0
407,-0.038346413591833745,0.0
408,-0.010838011084467178,0.0
409,-0.025121588656429314,0.0
410,0.016784492370637755,0.0
411,0.040255675395470994,0.0
412,0.015515559396531082,0.0
413,-0.0025659355861605546,0.0
414,0.01343741949404857,0.0
415,-0.015936578072988032,0.0
416,0.014987827880728305,0.0
417,1.0918248887835704,0.0
418,6.490516032919463,0.0
419,1.3019294153480987,0.0
420,-1.8879220091245927,0.0
421,1.2849090761682973,0.0
422,-0.648445580299901,0.0
423,0.21787906097426096,0.0
424,-0.10882254903897913,0.0
425,0.07905101824488277,0.0
426,0.01255042980490426,0.0
427,-0.024715230515588087,0.0
428,0.0014448897964100746,0.0
429,0.07403894540120232,0.0
430,-0.08543741132150139,0.0
431,0.07725732520671245,0.0
432,-0.008799740472356238,0.0
433,0.017673481642392595,0.0
434,2.6372818899659163,0.0
435,6.824822074200248,0.0
436,-1.8646890902079392,0.0
437,0.3147867195304835,0.0
438,0.15734442092323456,0.0
439,-0.04021421370373611,0.0
440,0.06412228973078424,0.0
441,0.04068214936333532,0.0
442,-0.06087707422742006,0.0
443,0.023900036679537932,0.0
444,0.04834538383954865,0.0
445,-0.0016701777415014277,0.0
446,-0.009958785816333533,0.0
447,0.07166568072448933,0.0
448,0.011254707103555021,0.0
449,0.019317071945344943,0.0
450,0.2623472754673507,0.0
451,4.710046573618872,0.0
452,4.8054117331555135,0.0
453,-3.012381710213869,0.0
454,1.5210681224702296,0.0
455,-0.7274392917015333,0.0
456,0.29542611366467486,0.0
457,-0.04883793802747354,0.0
458,0.08279654609562534,0.0
459,0.026000994473984074,0.0
460,-0.08849804200178425,0.0
461,-0.010875583254028195,0.0
462,0.05546478077395925,0.0
463,0.0934071122753059,0.0
464,0.026721099259859653,0.0
465,0.04659888122050232,0.0
466,-0.004944791414674196,0.0
467,0.9963386893657988,0.0
468,6.431502721343766,0.0
469,1.3828614717361765,0.0
470,-1.9640011424198043,0.0
471,1.2125504160260063,0.0
472,-0.5250417862238718,0.0
473,0.25479318281995617,0.0
474,-0.14658512257863132,0.0
475,0.0022200041617831956,0.0
476,-0.026418554233396167,0.0
477,-0.030657783264624712,0.0
478,0.10638133949119638,0.0
479,-0.008005183444571412,0.0
480,0.04118163611855673,0.0
481,-0.002647544357104417,0.0
482,-0.02796337032956259,0.0
483,0.023669378739913274,0.0
484,2.596013889245103,0.0
485,6.909452949742392,0.0
486,-1.904313310953808,0.0
487,0.32376310870998637,0.0
488,0.19871712745710907,0.0
489,0.016641184730070223,0.0
490,0.05966617102851739,0.0
491,0.030918951775522077,0.0
492,-0.008586722664913587,0.0
493,0.0694881184585676,0.0
494,-0.030279393851170983,0.0
495,0.07659562862203217,0.0
496,-0.042290815899415565,0.0
497,0.03055404752212195,0.0
498,-0.047229505432753796,0.0
499,0.057924417009480714,0.0
500,0.24520087278472918,0.0
501,4.711749741081616,0.0
502,4.814186568845217,0.0
503,-2.985821822880349,0.0
504,1.590635997484822,0.0
505,-0.717798031317415,0.0
506,0.38766354249158685,0.0
507,-0.04810689428502533,0.0
508,0.1341993739998294,0.0
509,0.06532395907019685,0.0
510,-0.031883332316715425,0.0
511,-0.006772582758645888,0.0
512,0.06292143688935786,0.0
513,0.029277260682843913,0.0
514,-0.0437656447012682,0.0
515,0.045405871353148455,0.0
516,0.015958907786460183,0.0
517,1.091821753076625,0.0
518,6.5564576110024015,0.0
519,1.35141364281233,0.0
520,-1.9259480044017991,0.0
521,1.1846922025842221,0.0
522,-0.6128817452165912,0.0
523,0.3181786332542671,0.0
524,-0.12760504413476234,0.0
525,-0.003862614442408905,0.0
526,0.01281414063975588,0.0
527,0.03660394323439349,0.0
528,-0.008260503705045993,0.0
529,-0.0917413152473413,0.0
530,-0.04992718107870869,0.0
531,-0.007650179456411027,0.0
532,-0.00478933338797656,0.0
533,-0.03242074177031523,0.0
534,2.6298986588876847,0.0
535,6.879911026754942,0.0
536,-1.9698138568462624,0.0
537,0.33258422690448325,0.0
538,0.21947010355988333,0.0
539,-0.056770699614490515,0.0
540,0.05002274788011077,0.0
541,-0.005992843945129726,0.0
542,-0.007815395565886799,0.0
543,0.05046862234695507,0.0
544,0.0005262913485208354,0.0
545,0.025658876774529334,0.0
546,0.10155016433361122,0.0
547,0.003809312842642576,0.0
548,0.042390857246796504,0.0
549,0.07754808362334145,0.0
550,0.31899665441779845,0.0
551,4.753940166111935,0.0
552,4.9048747446430285,0.0
553,-2.9291239717934805,0.0
554,1.5625765726301477,0.0
555,-0.6640743721560514,0.0
556,0.31089180621292895,0.0
557,-0.0793561126382642,0.0
558,0.09381987890012616,0.0
559,0.0414439743352428,0.0
560,-0.030131963085290994,0.0
561,-0.12919862323313286,0.0
562,0.05557803446821896,0.0
563,0.050032558508935336,0.0
564,-0.06130351586966225,0.0
565,0.02875980874668125,0.0
566,0.006359347257843735,0.0
567,0.9629082864276914,0.0
568,6.541152726307273,0.0
569,1.3554527264509233,0.0
570,-1.8016410699181113,0.0
571,1.2099601763371564,0.0
572,-0.5525616653235379,0.0
573,0.26392524271049683,0.0
574,-0.13460474155805735,0.0
575,0.02411895831972359,0.0
576,0.06333970842154794,0.0
577,-0.035845116524596696,0.0
578,-0.0346086567950491,0.0
579,0.08438952845602353,0.0
580,0.008772873880391165,0.0
581,0.0015283440337419893,0.0
582,0.01708836148172974,0.0
583,-0.05975828607645678,0.0
584,2.533054479646315,0.0
585,6.825613843662599,0.0
586,-1.957623855425404,0.0
587,0.31886282390497994,0.0
588,0.06968696020706226,0.0
589,-0.08315505748627354,0.0
590,0.028804497861754604,0.0
591,0.0077706990987028,0.0
592,-0.012590387134594525,0.0
593,0.006131702808334955,0.0
594,-0.04932111041609071,0.0
595,0.03835407735679912,0.0
596,0.10155995454478543,0.0
597,0.0005670090055029248,0.0
598,0.09630387097221672,0.0
599,-0.03887689956840166,0.0
600,0.3609080111945673,0.0
601,4.811316263302687,0.0
602,4.744897838782081,0.0
603,-3.018637932574618,0.0
604,1.5819404357058702,0.0
605,-0.6693135128634897,0.0
606,0.3762876039788596,0.0
607,0.0011936918634571775,0.0
608,0.07708525206909757,0.0
609,-0.03757497198486036,0.0
610,0.07645552442113246,0.0
611,0.08580435859827551,0.0
612,0.08465936402299376,0.0
613,0.10898373296337606,0.0
614,-0.04782529497963532,0.0
615,0.04130761578673178,0.0
616,0.03279647664153213,0.0
617,1.2158922038946183,0.0
618,6.504945633888335,0.0
619,1.3412257011632343,0.0
620,-1.8341490629085206,0.0
621,1.3157120020833712,0.0
622,-0.599217683719564,0.0
623,0.3493817998099434,0.0
624,-0.07602247699158521,0.0
625,0.08380589995796145,0.0
626,0.0372589505292318,0.0
627,0.05879628638783754,0.0
628,0.005764668613990269,0.0
629,-0.10660147148235642,0.0
630,0.031053522734611295,0.0
631,-0.07080128764116433,0.0
632,-0.1333091869757692,0.0
633,-0.08525660457348089,0.0
634,2.611685625645906,0.0
635,6.764901561609638,0.0
636,-2.0109938156903766,0.0
637,0.380474933478524,0.0
638,-0.05241158826334823,0.0
639,-0.20964276306443963,0.0
640,-0.015466913833690423,0.0
641,0.03675309213805629,0.0
642,-0.05831727251640524,0.0
643,-0.05710776294656239,0.0
644,-0.06665366815620266,0.0
645,-0.04055393410355297,0.0
646,-0.07604812393555022,0.0
647,-0.034449704499450964,0.0
648,-0.027333701779149847,0.0
649,-0.046656287817701945,0.0
650,0.19527127238367173,0.0
651,4.683941526645891,0.0
652,4.729318245914732,0.0
653,-2.968032877365979,0.0
654,1.5294112925572287,0.0
655,-0.784672592533588,0.0
656,0.28969944989864305,0.0
657,-0.13710153648198858,0.0
658,0.06570375364498554,0.0
659,-0.0786481593254633,0.0
660,-0.0679673202678549,0.0
661,-0.03375304428160403,0.0
662,-0.06239362679418585,0.0
663,0.07145203395353182,0.0
664,0.0041233903287736535,0.0
665,-0.00698576105361464,0.0
666,-0.010293955224598111,0.0
667,1.1061696513289432,0.0
668,6.563349837056701,0.0
669,1.321351287294566,0.0
670,-1.7657377032012616,0.0
671,1.2498486570466063,0.0
672,-0.5920001111769752,0.0
673,0.3547821839048397,0.0
674,-0.05615571035822066,0.0
675,0.030166376401230634,0.0
676,0.025600335857689584,0.0
677,-0.03467055425962987,0.0
678,-0.06572940559242862,0.0
679,-0.07352919128875211,0.0
680,-0.0670038081089375,0.0
681,-0.07713965798250508,0.0
682,-0.04016076495840457,0.0
683,-0.0196497407515293,0.0
684,2.6579635205706107,0.0
685,6.817263086735022,0.0
686,-2.002482024892352,0.0
687,0.2771051213487227,0.0
688,0.003131150617074273,0.0
689,-0.09590350731730264,0.0
690,0.009035805371256304,0.0
691,0.026653328527980254,0.0
692,0.004871739182479464,0.0
693,-0.021434233340669937,0.0
694,-0.03355992980558185,0.0
695,-0.02924553873296576,0.0
696,0.10690860731410133,0.0
697,0.005853967942258058,0.0
698,0.03138855679633756,0.0
699,-0.048697957447126655,0.0
700,0.3322124940329119,0.0
701,4.798935576232208,0.0
702,4.751095693363707,0.0
703,-3.0173049903276263,0.0
704,1.4660438266615505,0.0
705,-0.7012724730826647,0.0
706,0.2683720385616235,0.0
707,-0.14149073470584922,0.0
708,-0.0201194973343818,0.0
709,0.02339246649722554,0.0
710,-0.0008393779495423984,0.0
711,-0.03833859273822193,0.0
712,0.027507228917872367,0.0
713,-0.010031455385175341,0.0
714,0.01869854384670129,0.0
715,0.04756207405827122,0.0
716,0.013776098124300607,0.0
717,1.1876770861513142,0.0
718,6.563361811537203,0.0
719,1.3024240512068035,0.0
720,-1.835633497879503,0.0
721,1.1527734689429014,0.0
722,-0.5022049948231104,0.0
723,0.3855214330502754,0.0
724,-0.021694945241491154,0.0
725,0.008738784825435136,0.0
726,-0.06312002174026612,0.0
727,0.012585565030382509,0.0
728,-0.11446749443752109,0.0
729,-0.023815798168689555,0.0
730,-0.07728952210499329,0.0
731,0.025017913953275094,0.0
732,-0.05876866938174949,0.0
733,7.442170343674968e-05,0.0
734,2.613876749113099,0.0
735,6.770241994196309,0.0
736,-2.0692144728475115,0.0
737,0.3528579809523298,0.0
738,0.02217983628533244,0.0
739,-0.13044972578833958,0.0
740,0.019603116535943946,0.0
741,0.07158590172232625,0.0
742,0.11922641232224254,0.0
743,0.10779188108354548,0.0
744,-0.0013542821005194314,0.0
745,0.07783969230446354,0.0
746,0.08453391493679138,0.0
747,0.12696568925716156,0.0
748,-0.09489892999397645,0.0
749,0.04675860608610018,0.0
750,0.3677917951841917,0.0
751,4.802100203733768,0.0
752,4.79047138169239,0.0
753,-3.0820408841236704,0.0
754,1.5386084207142603,0.0
755,-0.739040097748101,0.0
756,0.3447430549048233,0.0
757,-0.07635025612973374,0.0
758,-0.012072198675009707,0.0
759,0.011163096187539965,0.0
760,0.01610898169618299,0.0
761,0.06734092720771369,0.0
762,0.050649360991859675,0.0
763,0.09056673189603173,0.0
764,0.10588272346244201,0.0
765,-0.03578014669422992,0.0
766,0.05636367311892486,0.0
767,1.131552154757398,0.0
768,6.662169973157492,0.0
769,1.2597785796161132,0.0
770,-1.760270776334626,0.0
771,1.1919611740864835,0.0
772,-0.6242608695233111,0.0
773,0.35830464109785937,0.0
774,0.03315872606041439,0.0
775,0.09511658072511109,0.0
776,0.02904839720351205,0.0
777,0.07457652844773816,0.0
778,0.062686724290831,0.0
779,0.006482938441645936,0.0
780,0.005442654784822275,0.0
781,0.07872303373016233,0.0
782,0.00279695963407825,0.0
783,0.09992426361617371,0.0
784,2.6781231906389613,0.0
785,6.810734966984517,0.0
786,-1.9277647506241427,0.0
787,0.4380259087232178,0.0
788,0.15082298615037787,0.0
789,-0.09903801426157349,0.0
790,0.12621818942300844,0.0
791,0.0690259938300621,0.0
792,0.1837743822568411,0.0
793,0.08850954408080677,0.0
794,0.04838696828073851,0.0
795,0.09328379746117955,0.0
796,-0.015658694560321998,0.0
797,-0.03783750687715137,0.0
798,0.01585698519826812,0.0
799,0.01598863713659133,0.0
800,0.3268895555603678,0.0
801,4.918354036019152,0.0
802,4.820029434383203,0.0
803,-2.9379530518040555,0.0
804,1.6623999625706627,0.0
805,-0.7408363978260258,0.0
806,0.4478045738636889,0.0
807,-0.07733463557473244,0.0
808,0.03272061495046341,0.0
809,0.036204793394907855,0.0
810,0.03057523191830494,0.0
811,0.016132523400070806,0.0
812,0.07741406120850262,0.0
813,0.06223764951640855,0.0
814,0.06916018788988697,0.0
815,-0.0256873041873815,0.0
816,0.0504064464043102,0.0
817,1.0745954541486578,0.0
818,6.578628186716804,0.0
819,1.1837953272582082,0.0
820,-1.6959383756886854,0.0
821,1.210204870646378,0.0
822,-0.5470738584324396,0.0
823,0.202481240175312,0.0
824,-0.012274953179557142,0.0
825,0.10388362218679004,0.0
826,0.08377770546913374,0.0
827,0.06834803666987964,0.0
828,-0.00637173238402771,0.0
829,0.11077433668464254,0.0
830,0.0004281098196480121,0.0
831,0.05714489400930217,0.0
832,0.061971573261710905,0.0
833,0.07527125625652684,0.0
834,2.788939402444759,0.0
835,6.823792588978571,0.0
836,-2.013986818929158,0.0
837,0.47682447372579495,0.0
838,0.10371663014995919,0.0
839,-0.019686208704837206,0.0
840,0.03281995079588938,0.0
841,0.05543809786677206,0.0
842,-0.023714614611634988,0.0
843,0.02599811097666017,0.0
844,0.04976577238248865,0.0
845,-0.004049978332923795,0.0
846,-0.02890704464310047,0.0
847,0.16132428635316817,0.0
848,-0.014498214342823619,0.0
849,0.05008690735860025,0.0
850,0.3222087755615431,0.0
851,4.839610228799276,0.0
852,4.741127591216419,0.0
853,-2.9920797972436706,0.0
854,1.5930537393050825,0.0
855,-0.6867552981981729,0.0
856,0.42431662306953577,0.0
857,-0.0507732937250975,0.0
858,0.10022800115662608,0.0
859,0.03976133198975182,0.0
860,0.024415823009965868,0.0
861,0.03241772673016685,0.0
862,0.02727836982611409,0.0
863,0.028602960886055295,0.0
864,0.060980969968168194,0.0
865,-0.08422967954917722,0.0
866,0.048252079826115846,0.0
867,1.1177293591799835,0.0
868,6.5191369665868155,0.0
869,1.2202937408321812,0.0
870,-1.7267194957730359,0.0
871,1.1980781963159057,0.0
872,-0.5899425613844247,0.0
873,0.33319104421936174,0.0
874,-0.06371445338075216,0.0
875,0.037152113922305045,0.0
876,-0.024372349672234773,0.0
877,0.07147668988197052,0.0
878,0.045355964085562174,0.0
879,-0.005691189662115692,0.0
880,-0.005406269217912256,0.0
881,-0.08644740630695602,0.0
882,0.027304264158978103,0.0
883,-0.0209817951976477,0.0
884,2.6619215843565347,0.0
885,6.7821351762193505,0.0
886,-2.018919571805882,0.0
887,0.451573601158329,0.0
888,-0.021876138226080012,0.0
889,-0.026917110657254516,0.0
890,0.013767152353506944,0.0
891,-0.020650883258528433,0.0
892,0.028096226199410795,0.0
893,-0.06432547149937726,0.0
894,0.04387098238643415,0.0
895,-0.030290986004423422,0.0
896,-0.004526476210768477,0.0
897,0.009929644865207365,0.0
898,0.04780522630217887,0.0
899,0.0031624829548181216,0.0
900,0.25513635232861726,0.0
901,4.81552802433244,0.0
902,4.5540056689311434,0.0
903,-3.0415508166702696,0.0
904,1.6211986234801272,0.0
905,-0.8602499799250098,0.0
906,0.3523521835264916,0.0
907,-0.11594620250533996,0.0
908,0.053102156487533414,0.0
909,-0.08354690752360987,0.0
910,0.03148033388199287,0.0
911,0.02059492843062541,0.0
912,0.027718524376463608,0.0
913,-0.06887085831096552,0.0
914,0.03218448765266743,0.0
915,0.008314428799207916,0.0
916,0.05836910299862691,0.0
917,1.20035835729059,0.0
918,6.6254722145477665,0.0
919,1.2453431158716237,0.0
920,-1.6833537244717494,0.0
921,1.1220847600798627,0.0
922,-0.6425474503929448,0.0
923,0.2280792016066422,0.0
924,-0.10745906199978517,0.0
925,0.03400838201612872,0.0
926,0.016312324118006382,0.0
927,0.004227271471516338,0.0
928,-0.08324518086927575,0.0
929,-0.0017317451473183518,0.0
930,-0.016217907015496216,0.0
931,-0.017625841089978934,0.0
932,-0.05600422363078683,0.0
933,-0.035968051539529595,0.0
934,2.7109461662486374,0.0
935,6.7281538985592055,0.0
936,-2.034805867768261,0.0
937,0.41367871908570747,0.0
938,0.012021283441950234,0.0
939,-0.12120306150541016,0.0
940,0.058577561243927774,0.0
941,0.05556514762401327,0.0
942,0.067219170863591,0.0
943,-0.007670643935785912,0.0
944,-0.09145015448234678,0.0
945,-0.058929502569818826,0.0
946,0.025783100000447666,0.0
947,0.019241552402862797,0.0
948,-0.09610822341152088,0.0
949,-0.024810390076935508,0.0
950,0.3186887980574534,0.0
951,4.827600617963291,0.0
952,4.68162471265179,0.0
953,-2.9297768910150706,0.0
954,1.571246508993604,0.0
955,-0.7628635669994576,0.0
956,0.17471835826202137,0.0
957,-0.10068078031112664,0.0
958,0.0067515038001341975,0.0
959,-0.049479548098505924,0.0
960,-0.09563121000255922,0.0
961,-0.052917883898341546,0.0
962,0.009850646047894016,0.0
963,0.03918305255699276,0.0
964,-0.022168083925300015,0.0
965,0.08867593097536597,0.0
966,-0.012084114265282065,0.0
967,1.0643303004090703,0.0
968,6.531926565960383,0.0
969,1.0709483000037079,0.0
970,-1.7245600019487521,0.0
971,1.161327823964518,0.0
972,-0.5897794860844551,0.0
973,0.3269057996335205,0.0
974,-0.0703058819377009,0.0
975,-0.033757263461530296,0.0
976,-0.04580458504136416,0.0
977,0.12672020349032312,0.0
978,0.034373658822624976,0.0
979,0.007010735346794517,0.0
980,-0.14044100156161654,0.0
981,-0.025941236696985785,0.0
982,-0.019353753634687634,0.0
983,-0.00249642387428526,0.0
984,2.83197316577258,0.0
985,6.7690658452116415,0.0
986,-2.1114617114602448,0.0
987,0.3685772167135957,0.0
988,0.10749911979179816,0.0
989,-0.041641957563300455,0.0
990,0.09943680830536583,0.0
991,0.162167042666052,0.0
992,0.01138251699195167,0.0
993,0.019725143675002596,0.0
994,-0.1183516804655144,0.0
995,0.01314661696999213,0.0
996,0.04843892452770972,0.0
997,0.026788763081366976,0.0
998,0.05653773031666898,0.0
999,0.00980713148781151,0.0
1000,0.2995156061680856,0.0
1001,4.854248620298485,0.0
1002,4.610398466662203,0.0
1003,-3.115825072756587,0.0
1004,1.536973838115941,0.0
1005,-0.7793281219834933,0.0
1006,0.2643914564588099,0.0
1007,-0.253483542674561,0.0
1008,0.0067091794657528625,0.0
1009,-0.08195213573314516,0.0
1010,-0.023933122663610584,0.0
1011,-0.1055757060400348,0.0
1012,-0.08867031929337889,0.0
1013,-0.14437574045677176,0.0
1014,-0.04860480507692878,0.0
1015,-0.03837155214406934,0.0
1016,-0.00014447133318050247,0.0
1017,1.1610967196590365,0.0
1018,6.666926556341423,0.0
1019,1.0932578751766233,0.0
1020,-1.6600597496228189,0.0
1021,1.1130990263606713,0.0
1022,-0.47349261266444903,0.0
1023,0.27873757912567443,0.0
1024,-0.12827351922637056,0.0
1025,0.09319567568506211,0.0
1026,0.13156122367526088,0.0
1027,0.13914629034420117,0.0
1028,-0.06352133242195654,0.0
1029,0.023780041984881675,0.0
1030,-0.04285427539991192,0.0
1031,-0.01906773991423578,0.0
1032,0.03021997899989571,0.0
1033,0.05581831254922519,0.0
1034,2.768876923846861,0.0
1035,6.724408966852752,0.0
1036,-2.106938309898007,0.0
1037,0.48680164470154735,0.0
1038,0.07182074928783178,0.0
1039,-0.042587587556349914,0.0
1040,0.011947234509117652,0.0
1041,0.027868389707352413,0.0
1042,0.08218656483170779,0.0
1043,0.08440688670036971,0.0
1044,-0.0016325568446044977,0.0
1045,0.029319605049199157,0.0
1046,0.030049479018930958,0.0
1047,0.06506910213185925,0.0
1048,0.12403343106833833,0.0
1049,0.0540211796248968,0.0
1050,0.4462935532153669,0.0
1051,4.88655969716733,0.0
1052,4.716771503084607,0.0
1053,-2.880796461563535,0.0
1054,1.602976900387184,0.0
1055,-0.7338196611544293,0.0
1056,0.4477628719103546,0.0
1057,-0.04058974331002446,0.0
1058,0.06256509299732844,0.0
1059,-0.02576992190008117,0.0
1060,-0.00519251386035155,0.0
1061,0.05381093732806887,0.0
1062,-0.017656411168265763,0.0
1063,-0.002136095769498753,0.0
1064,0.04032722533147038,0.0
1065,-0.0010348243520015912,0.0
1066,-0.03255399502833273,0.0
1067,1.0749164751639364,0.0
1068,6.588174226575321,0.0
1069,1.086253347634793,0.0
1070,-1.6155906488151945,0.0
1071,1.124547535736411,0.0
1072,-0.5006031934864981,0.0
1073,0.2794872786644055,0.0
1074,-0.021981456255457357,0.0
1075,0.06879614413193398,0.0
1076,0.06225277635461619,0.0
1077,0.09584700602900637,0.0
1078,0.031077508535195378,0.0
1079,0.12454685915328428,0.0
1080,0.07693261679877861,0.0
1081,0.07134884546367466,0.0
1082,0.15260630262486957,0.0
1083,0.11516667306121718,0.0
1084,2.829508122391155,0.0
1085,6.810375628126186,0.0
1086,-2.091526131840373,0.0
1087,0.48548531310622056,0.0
1088,0.053565303208999666,0.0
1089,-0.019181739183839537,0.0
1090,0.12975386037388445,0.0
1091,-0.015520332666542909,0.0
1092,0.00233009373446215,0.0
1093,0.011505446152411032,0.0
1094,0.07570423981828352,0.0
1095,-0.041963836388712816,0.0
1096,-0.028671883421659536,0.0
1097,-0.05671692405288567,0.0
1098,0.025516187949235956,0.0
1099,-0.007801045194769856,0.0
1100,0.30394051217670376,0.0
1101,4.9615915889875835,0.0
1102,4.534190594461731,0.0
1103,-2.997162686669085,0.0
1104,1.5931827855228193,0.0
1105,-0.7660295540197846,0.0
1106,0.2645209187819649,0.0
1107,-0.03134548583551826,0.0
1108,0.030326385523698207,0.0
1109,-0.024832593643974558,0.0
1110,-0.036470995939350985,0.0
1111,-7.567349984260834e-05,0.0
1112,0.07180472136959216,0.0
1113,-0.04669415283359587,0.0
1114,-0.00992104939834129,0.0
1115,0.013660483580276241,0.0
1116,0.001636563489035658,0.0
1117,1.0699119734553864,0.0
1118,6.68903031074649,0.0
1119,1.0246465941405016,0.0
1120,-1.5958080683393707,0.0
1121,1.1099071772367326,0.0
1122,-0.6363847801592244,0.0
1123,0.24442699057036443,0.0
1124,-0.0033084044128209866,0.0
1125,0.012010495445578964,0.0
1126,0.017263904516068775,0.0
1127,-0.10421008998570243,0.0
1128,-0.07444629000416533,0.0
1129,-0.03533260652515103,0.0
1130,-0.048668073871579676,0.0
1131,0.03476847840961595,0.0
1132,0.048544481534959855,0.0
1133,0.01754646770832215,0.0
1134,2.7523119380378636,0.0
1135,6.7159856579427,0.0
1136,-2.10888146841275,0.0
1137,0.3378524298033363,0.0
1138,-0.044321974012959495,0.0
1139,-0.09087332927872051,0.0
1140,0.03219959533666619,0.0
1141,-0.0005598342221644348,0.0
1142,-0.020514186475950626,0.0
1143,-0.08595908637240471,0.0
1144,-0.07495268991869665,0.0
1145,-0.06853806440098553,0.0
1146,-0.053434111464946754,0.0
1147,0.003704989282103874,0.0
1148,-0.07150469246046179,0.0
1149,-0.03821383811346091,0.0
1150,0.22224118184428476,0.0
1151,4.8798304297149375,0.0
1152,4.538749987506833,0.0
1153,-3.029333457247521,0.0
1154,1.5215340492155172,0.0
1155,-0.8521237246763742,0.0
1156,0.2652453111923163,0.0
1157,-0.045491677425444785,0.0
1158,0.07505399309951041,0.0
1159,0.005319987446219192,0.0
1160,-0.12502985307898323,0.0
1161,-0.02312034726886377,0.0
1162,-0.1761225925060998,0.0
1163,0.04467583322380011,0.0
1164,-0.021827731549462673,0.0
1165,-0.07731202356430412,0.0
1166,0.14881241742976853,0.0
1167,1.1437858214348686,0.0
1168,6.5950624856382385,0.0
1169,0.902129903883477,0.0
1170,-1.6956519368121943,0.0
1171,1.0851581336784462,0.0
1172,-0.6587726825853958,0.0
1173,0.2641421085775295,0.0
1174,-0.1286770518835244,0.0
1175,-0.07226068254536053,0.0
1176,-0.06726148351414203,0.0
1177,-0.12683065054475756,0.0
1178,-0.13434950334367557,0.0
1179,-0.13598213970009596,0.0
1180,-0.09730578324561365,0.0
1181,-0.1222816497595713,0.0
1182,-0.27075712463744406,0.0
1183,-0.12141824751007461,0.0
1184,2.6237562008483377,0.0
1185,6.630002275403417,0.0
1186,-2.2942342654293615,0.0
1187,0.3487931593562413,0.0
1188,-0.10347581832720029,0.0
1189,-0.17184454051164755,0.0
1190,-0.12041355789345713,0.0
1191,-0.09204526847091071,0.0
1192,-0.06715842779931104,0.0
1193,0.04326812889555257,0.0
1194,-0.06443042871933707,0.0
1195,0.015369619273312068,0.0
1196,-0.07026914388806636,0.0
1197,-0.08996306504160387,0.0
1198,-0.11905831811211741,0.0
1199,-0.040004269198374645,0.0
1200,0.35810056734202245,0.0
1201,4.810227858917213,0.0
1202,4.426826136979502,0.0
1203,-3.0657758754894955,0.0
1204,1.5304056305086826,0.0
1205,-0.8485348531289281,0.0
1206,0.28846097892406125,0.0
1207,-0.1389992089596945,0.0
1208,0.029723535029889392,0.0
1209,-0.08241374714282153,0.0
1210,-0.028510216126893084,0.0
1211,-0.06507182796211142,0.0
1212,-0.007960736033756955,0.0
1213,-0.10648079658509776,0.0
1214,0.06928837007427956,0.0
1215,0.07750800305877346,0.0
1216,-0.036481375162299795,0.0
1217,1.1947083129769234,0.0
1218,6.709960145617416,0.0
1219,0.9781174023157138,0.0
1220,-1.707226518514483,0.0
1221,1.1317061974864826,0.0
1222,-0.5916807397835702,0.0
1223,0.22828511495698378,0.0
1224,-0.07294409739152324,0.0
1225,0.06860121837573094,0.0
1226,-0.006560192535810923,0.0
1227,-0.08679260215655399,0.0
1228,-0.13266293742661217,0.0
1229,-0.12047177806593211,0.0
1230,-0.08351028318326183,0.0
1231,-0.04886157274667378,0.0
1232,-0.05484482713124511,0.0
1233,-0.06487402362958888,0.0
1234,2.752546208381378,0.0
1235,6.691970408024684,0.0
1236,-2.236307203377141,0.0
1237,0.5597891018104476,0.0
1238,-0.06178855197056465,0.0
1239,0.0187676575628032,0.0
1240,-0.023929372436058388,0.0
1241,-0.04667798392300275,0.0
1242,-0.08858999038889732,0.0
1243,-0.07127845596269239,0.0
1244,0.005238529627977974,0.0
1245,-0.07165966282284758,0.0
1246,-0.014797614624121692,0.0
1247,-0.08808501092907334,0.0
1248,-0.08459340645804453,0.0
1249,-0.03166925431322623,0.0
1250,0.3794650550958635,0.0
1251,4.917057697062295,0.0
1252,4.420922392410805,0.0
1253,-2.9831285908031795,0.0
1254,1.5564137786074044,0.0
1255,-0.7601336103821497,0.0
1256,0.2278640666596967,0.0
1257,-0.13580904136045446,0.0
1258,0.08445907894953888,0.0
1259,-0.10587886500768744,0.0
1260,-0.030689781843035724,0.0
1261,-0.05935946715684495,0.0
1262,0.002889164595920887,0.0
1263,-0.00910600526186545,0.0
1264,-0.030007080498600597,0.0
1265,-0.008494535458912478,0.0
1266,-0.024189636340371818,0.0
1267,1.228419653567673,0.0
1268,6.721909023434679,0.0
1269,1.017000220012241,0.0
1270,-1.657055781192952,0.0
1271,1.1108875946300467,0.0
1272,-0.5481940545812977,0.0
1273,0.27979499101506433,0.0
1274,-0.02941544286977002,0.0
1275,0.008790999245021587,0.0
1276,-0.009384354688345692,0.0
1277,0.000532078865640738,0.0
1278,0.01384616908607033,0.0
1279,-0.11038067301639137,0.0
1280,-0.050834185302264606,0.0
1281,-0.018727420984796433,0.0
1282,-0.05309868309159205,0.0
1283,0.0021794005038522357,0.0
1284,2.8092384788836147,0.0
1285,6.774097494324738,0.0
1286,-2.1355676080894668,0.0
1287,0.529794547761782,0.0
1288,-0.1135358040110515,0.0
1289,-0.03361405144503716,0.0
1290,-0.018357117389547286,0.0
1291,-0.0207259275831665,0.0
1292,-0.0316357681751632,0.0
1293,0.0061367649386046275,0.0
1294,-0.008698663243968133,0.0
1295,0.014815461384503417,0.0
1296,0.008862259725073514,0.0
1297,0.061382246887086316,0.0
1298,0.02949779942748053,0.0
1299,0.01734971195894524,0.0
1300,0.400974510141164,0.0
1301,4.9675698200985625,0.0
1302,4.5241197548922,0.0
1303,-3.0250593255023093,0.0
1304,1.6491408862108288,0.0
1305,-0.773708986235525,0.0
1306,0.3428133595140139,0.0
1307,-0.1115169193968109,0.0
1308,0.11615033602327784,0.0
1309,0.06918830550421774,0.0
1310,-0.009265428206805357,0.0
1311,-0.04992703647868571,0.0
1312,-0.018968240159243224,0.0
1313,-0.020225769095185454,0.0
1314,-0.013552446963110119,0.0
1315,0.07308564595450495,0.0
1316,-0.014860622205616576,0.0
1317,1.0909294547547934,0.0
1318,6.694300947663679,0.0
1319,0.8273376701452397,0.0
1320,-1.6840363117388175,0.0
1321,0.9260954643440931,0.0
1322,-0.6694069424041614,0.0
1323,0.06556973609654555,0.0
1324,-0.11430031945713699,0.0
1325,0.03825045508838958,0.0
1326,-0.014974346215938163,0.0
1327,0.052005862135599296,0.0
1328,-0.05433635890900837,0.0
1329,0.12044088131725497,0.0
1330,0.03240858430852066,0.0
1331,0.06357640538793383,0.0
1332,0.062022080859680716,0.0
1333,0.12438318573995986,0.0
1334,2.952905185598688,0.0
1335,6.819232725421496,0.0
1336,-2.119207878641081,0.0
1337,0.5542020351178663,0.0
1338,-0.002835013194737576,0.0
1339,0.014623539096076358,0.0
1340,-0.04700734416985769,0.0
1341,0.05381986883819147,0.0
1342,-0.022553827900882437,0.0
1343,0.1280839550932115,0.0
1344,0.05555303094861534,0.0
1345,-0.008531503479061397,0.0
1346,-0.0224989748533077,0.0
1347,0.052080972847494855,0.0
1348,-0.030390911909667747,0.0
1349,0.01233601593140573,0.0
1350,0.29084718863860104,0.0
1351,5.006921591718687,0.0
1352,4.54031956959221,0.0
1353,-2.9940304329017815,0.0
1354,1.638245462519546,0.0
1355,-0.6718653795635717,0.0
1356,0.41491790827593944,0.0
1357,-0.11792881705561009,0.0
1358,0.045185343655662416,0.0
1359,0.02434459665596199,0.0
1360,0.0043878675700581155,0.0
1361,0.019670455007304632,0.0
1362,0.03925740335277369,0.0
1363,-0.00854437456993994,0.0
1364,-0.050261956966292196,0.0
1365,0.06610626791912806,0.0
1366,0.04231965794221521,0.0
1367,1.2265715742515992,0.0
1368,6.604968190685958,0.0
1369,0.8935585833956355,0.0
1370,-1.6382194040820603,0.0
1371,1.218416065620471,0.0
1372,-0.4665139748621593,0.0
1373,0.313596164106596,0.0
1374,-0.06501970062812873,0.0
1375,0.06172518611464594,0.0
1376,0.03892766865855033,0.0
1377,-0.0014311550013202112,0.0
1378,0.13723054203142662,0.0
1379,0.10759857966478915,0.0
1380,0.07407357012190695,0.0
1381,0.047605205605350275,0.0
1382,0.09304886708182017,0.0
1383,0.08427248157172192,0.0
1384,2.9146973117416395,0.0
1385,6.804359396364084,0.0
1386,-2.1842797437555164,0.0
1387,0.5525003966750448,0.0
1388,-0.07438890571837645,0.0
1389,-0.0336399317883559,0.0
1390,0.0447809890876933,0.0
1391,0.006257193884847035,0.0
1392,0.001904788993474875,0.0
1393,0.010185089804443891,0.0
1394,0.015518997214057953,0.0
1395,-0.13688352327766884,0.0
1396,-0.09535370350609469,0.0
1397,-0.01022594360667101,0.0
1398,-0.013748791707375765,0.0
1399,0.13346531637515407,0.0
1400,0.44638734674606695,0.0
1401,4.975352119713606,0.0
1402,4.453640665227448,0.0
1403,-3.026779517624915,0.0
1404,1.6119206681460816,0.0
1405,-0.823503489947291,0.0
1406,0.2535223877322771,0.0
1407,-0.15754415777283692,0.0
1408,0.0055773001011874546,0.0
1409,-0.1188152495330171,0.0
1410,-0.16665051503647552,0.0
1411,-0.19300798278333464,0.0
1412,-0.09425196510577505,0.0
1413,-0.19893162915422555,0.0
1414,-0.08152837371152785,0.0
1415,-0.14648986233133332,0.0
1416,0.040309509790436876,0.0
1417,1.0924749856876759,0.0
1418,6.65869155223662,0.0
1419,0.849218322502312,0.0
1420,-1.6372829342952537,0.0
1421,1.007702728921751,0.0
1422,-0.450987209817831,0.0
1423,0.29179724841321697,0.0
1424,-0.12387786064517689,0.0
1425,0.05661253383497094,0.0
1426,0.040921576086787606,0.0
1427,-0.0055362546803797985,0.0
1428,0.0032673495494259363,0.0
1429,-0.10192376383755578,0.0
1430,0.053271506546011496,0.0
1431,-0.058356149483749634,0.0
1432,-0.005806197114115737,0.0
1433,-0.009486864203110078,0.0
1434,2.8567020145431736,0.0
1435,6.676158661336869,0.0
1436,-2.332484963380351,0.0
1437,0.44962272024943994,0.0
1438,-0.026741235311258882,0.0
1439,-0.0277240889755586,0.0
1440,-0.06715574961880422,0.0
1441,0.10868721115908185,0.0
1442,0.028767386451489286,0.0
1443,0.024064720905007622,0.0
1444,0.04286462928743026,0.0
1445,0.0075439851452076545,0.0
1446,-0.0011013350614145385,0.0
1447,-0.022079450420743392,0.0
1448,-0.0907036709282377,0.0
1449,-0.013114056397284756,0.0
1450,0.41417412600163356,0.0
1451,4.963402112802674,0.0
1452,4.460086156698051,0.0
1453,-3.0292110018926857,0.0
1454,1.5614290320209747,0.0
1455,-0.7428201358141352,0.0
1456,0.30030326522239115,0.0
1457,-0.21008917750945177,0.0
1458,-0.058077750500345006,0.0
1459,-0.04618393958661567,0.0
1460,-0.03479170750105726,0.0
1461,-0.010499847838234246,0.0
1462,0.034469911191533406,0.0
1463,0.000466229188681562,0.0
1464,-0.0420565061819144,0.0
1465,-0.0003404377962566256,0.0
1466,0.11396705550035725,0.0
1467,1.1561470756293075,0.0
1468,6.602925455378063,0.0
1469,0.8649415200998616,0.0
1470,-1.5881378051351143,0.0
1471,1.087734237153663,0.0
1472,-0.6064554592648084,0.0
1473,0.1354818794607745,0.0
1474,-0.06464528513558995,0.0
1475,-0.0288119810678776,0.0
1476,-0.02950299749373303,0.0
1477,-0.08875247909832948,0.0
1478,-0.10863173062167353,0.0
1479,0.02358895192812712,0.0
1480,-0.13221841652255348,0.0
1481,-0.10936772111132043,0.0
1482,-0.046300484007684405,0.0
1483,-0.027007609500294058,0.0
1484,2.7677127627301386,0.0
1485,6.633784673757284,0.0
1486,-2.3458718531360625,0.0
1487,0.4676074944773401,0.0
1488,-0.07788201019387903,0.0
1489,-0.059391873900034954,0.0
1490,-0.10791540268060917,0.0
1491,-0.08558087798194414,0.0
1492,-0.028416632392369072,0.0
1493,-0.0921029180927505,0.0
1494,0.053461448847849896,0.0
1495,0.01781335057900263,0.0
1496,0.07881921388839692,0.0
1497,0.035551667508266216,0.0
1498,0.023539002626392826,0.0
1499,0.06016441677131897,0.0
1500,0.38541812107636386,0.0
1501,4.991573195218423,0.0
1502,4.436946845549271,0.0
1503,-2.91721146634953,0.0
1504,1.5043522209700353,0.0
1505,-0.7882937659273164,0.0
1506,0.32103806468935836,0.0
1507,-0.11031726977566947,0.0
1508,-0.01277982015528252,0.0
1509,-0.019742860908936344,0.0
1510,0.0032075366009514175,0.0
1511,-0.03755475559808674,0.0
1512,-0.027277454599360908,0.0
1513,-0.11270253459971098,0.0
1514,0.007907850250165698,0.0
1515,-0.007901077177550755,0.0
1516,0.04688091055243423,0.0
1517,1.2128559790068836,0.0
1518,6.702363934300935,0.0
1519,0.7846052148282485,0.0
1520,-1.5452649946085903,0.0
1521,1.1159178228721778,0.0
1522,-0.5344789568356045,0.0
1523,0.29926359099080974,0.0
1524,-0.12216364008779836,0.0
1525,0.08830107225936411,0.0
1526,0.06969854903161878,0.0
1527,-0.04037788260505594,0.0
1528,0.0752569930206426,0.0
1529,-0.1466632714100429,0.0
1530,0.012866917687728062,0.0
1531,-0.07017440914703293,0.0
1532,0.017504424796920416,0.0
1533,0.01514399993390788,0.0
1534,2.8235528607692966,0.0
1535,6.650255386972359,0.0
1536,-2.292561062536104,0.0
1537,0.4215540078144926,0.0
1538,-0.09239872201871045,0.0
1539,-0.03935151012085533,0.0
1540,-0.0687891108138643,0.0
1541,-0.10010022236099675,0.0
1542,0.019660404778877025,0.0
1543,-0.11154529947479708,0.0
1544,-0.07981783738009818,0.0
1545,-0.07968809967371017,0.0
1546,-0.03270370739054013,0.0
1547,-0.07123005486581815,0.0
1548,0.04698483851140797,0.0
1549,-0.05378772327777188,0.0
1550,0.3373952153758196,0.0
1551,5.053477523591369,0.0
1552,4.324966874587588,0.0
1553,-2.9716190879038518,0.0
1554,1.6546643267368826,0.0
1555,-0.787419563065905,0.0
1556,0.3592419115087138,0.0
1557,-0.14072627706180704,0.0
1558,-0.06749265369644655,0.0
1559,-0.08497692944174057,0.0
1560,-0.041942224755836824,0.0
1561,-0.03678186550744754,0.0
1562,-0.07029911751456414,0.0
1563,-0.0412067028563738,0.0
1564,-0.12459564787368771,0.0
1565,0.04684840040660027,0.0
1566,-0.06773078103082877,0.0
1567,1.1342064062901378,0.0
1568,6.670865272311391,0.0
1569,0.7999579700991913,0.0
1570,-1.55511861642297,0.0
1571,0.9849727037384448,0.0
1572,-0.5029524033559711,0.0
1573,0.189772986239036,0.0
1574,-0.05865435877061027,0.0
1575,-0.009273992551497735,0.0
1576,-0.03840678850929993,0.0
1577,0.04587496598828095,0.0
1578,0.0341419203441903,0.0
1579,-0.013352784881953489,0.0
1580,-0.1474137191898735,0.0
1581,-0.1162486768402142,0.0
1582,-0.034724934396124375,0.0
1583,-0.07398181660474021,0.0
1584,2.934057879482411,0.0
1585,6.487630552268247,0.0
1586,-2.2874960573220267,0.0
1587,0.5565964986914752,0.0
1588,-0.1602874265913024,0.0
1589,-0.019862598026054272,0.0
1590,-0.12456015006045518,0.0
1591,0.0009322628006421599,0.0
1592,-0.10018999833647983,0.0
1593,-0.06560882470386391,0.0
1594,-0.030045643239020578,0.0
1595,-0.026016107454583128,0.0
1596,-0.1120257981741383,0.0
1597,-0.03148031296173222,0.0
1598,-0.11346890541931029,0.0
1599,-0.07633684513574536,0.0
1600,0.3722284263423941,0.0
1601,5.024174746819455,0.0
1602,4.273723999115861,0.0
1603,-2.981048528588429,0.0
1604,1.5384208855438748,0.0
1605,-0.7995912743350898,0.0
1606,0.194087471816636,0.0
1607,-0.17154094220447869,0.0
1608,-0.009104913109683466,0.0
1609,-0.0513225773147781,0.0
1610,-0.02007970756891849,0.0
1611,-0.0501736807722273,0.0
1612,-0.055625081840576365,0.0
1613,0.03616435664565854,0.0
1614,-0.024899256662057848,0.0
1615,-0.020046101220100095,0.0
1616,-0.05623543508201698,0.0
1617,1.0837678805047544,0.0
1618,6.558914134957903,0.0
1619,0.6155914270691986,0.0
1620,-1.6158968722621692,0.0
1621,0.9343497605119736,0.0
1622,-0.5948470040109407,0.0
1623,0.16130644040919437,0.0
1624,-0.17736849911747313,0.0
1625,-0.0334136164503321,0.0
1626,-0.01774802323893514,0.0
1627,0.027054506729062122,0.0
1628,-0.14525493303729414,0.0
1629,-0.02604525366866252,0.0
1630,-0.07668384567650513,0.0
1631,0.013032295294770985,0.0
1632,-0.08296999697471921,0.0
1633,-0.09423398137861877,0.0
1634,2.8117281609598983,0.0
1635,6.599934493673012,0.0
1636,-2.31984302612392,0.0
1637,0.5298302124945296,0.0
1638,-0.2626403311853101,0.0
1639,-0.17858859785994224,0.0
1640,-0.09951097181576818,0.0
1641,-0.06177854546249671,0.0
1642,-0.10135513806113475,0.0
1643,-0.01229951553221588,0.0
1644,-0.09163513400067302,0.0
1645,-0.10770906941725607,0.0
1646,-0.15752529189994896,0.0
1647,-0.12151270856694307,0.0
1648,-0.0780653969810914,0.0
1649,-0.1908475032633292,0.0
1650,0.27754529318977805,0.0
1651,4.917431212875241,0.0
1652,4.15255506034546,0.0
1653,-2.8877520243119412,0.0
1654,1.5377550017311048,0.0
1655,-0.9377528911535222,0.0
1656,0.23387322355607157,0.0
1657,-0.1498862762921395,0.0
1658,0.08310729667992112,0.0
1659,-0.10406453493293602,0.0
1660,-0.1254639853888146,0.0
1661,-0.06222981288918515,0.0
1662,-0.017735906360772394,0.0
1663,0.01920917610408311,0.0
1664,-0.02634131610353995,0.0
1665,-0.0571540616632321,0.0
1666,-0.12145122102933485,0.0
1667,1.211063197185838,0.0
1668,6.709389103593321,0.0
1669,0.6948782430552541,0.0
1670,-1.5764902395610625,0.0
1671,1.0123684781632893,0.0
1672,-0.6399875523711367,0.0
1673,0.17731013319668273,0.0
1674,-0.17363810932939183,0.0
1675,-0.027383059768278685,0.0
1676,0.04092770452196159,0.0
1677,-0.0968000105884316,0.0
1678,-0.03572987999415228,0.0
1679,-0.029132929997287,0.0
1680,-0.04082470652716897,0.0
1681,-0.04361411970669911,0.0
1682,-0.02096727713473315,0.0
1683,0.003919113046337596,0.0
1684,2.8742149308279514,0.0
1685,6.573344249525122,0.0
1686,-2.395511337587361,0.0
1687,0.5666798344045156,0.0
1688,-0.1655616410603817,0.0
1689,-0.13781265803205028,0.0
1690,-0.13413685039341255,0.0
1691,-0.10243410048429306,0.0
1692,-0.11053280254704007,0.0
1693,-0.1097433064035594,0.0
1694,-0.08164400702496007,0.0
1695,-0.10732430112012445,0.0
1696,-0.05546742543449475,0.0
1697,-0.058372528494599896,0.0
1698,-0.025366034925496876,0.0
1699,-0.11831770440383821,0.0
1700,0.34485348605751154,0.0
1701,5.087260373586765,0.0
1702,4.2499164199481125,0.0
1703,-2.945340524301392,0.0
1704,1.508234998443309,0.0
1705,-0.758783303425124,0.0
1706,0.2943208666972199,0.0
1707,-0.1434997139075124,0.0
1708,-0.0406205671357526,0.0
1709,-0.1453455463812388,0.0
1710,-0.09338169226159033,0.0
1711,-0.03280326387291116,0.0
1712,0.03555098046907694,0.0
1713,-0.014919418050482218,0.0
1714,-0.02604646361105611,0.0
1715,0.014284372156189377,0.0
1716,0.00021945620849266045,0.0
1717,1.221356957694329,0.0
1718,6.718338050755535,0.0
1719,0.693354552934164,0.0
1720,-1.4441025928538531,0.0
1721,1.0038878785456526,0.0
1722,-0.5783075187868539,0.0
1723,0.219751541500138,0.0
1724,-0.10902397184576511,0.0
1725,-0.09072985243304471,0.0
1726,-0.03763398735270414,0.0
1727,-0.008509176965813048,0.0
1728,-0.14135032647219126,0.0
1729,-0.1056882012399186,0.0
1730,0.03913428640354077,0.0
1731,0.06988664241549333,0.0
1732,-0.030648369521835524,0.0
1733,-0.0011028246145124779,0.0
1734,2.871986183637908,0.0
1735,6.674713865182458,0.0
1736,-2.4152130112428782,0.0
1737,0.5153621469869528,0.0
1738,-0.22544185707025918,0.0
1739,-0.034658800892633866,0.0
1740,-0.05750821855356743,0.0
1741,-0.07949123724700603,0.0
1742,-0.059411045517445055,0.0
1743,-0.10842114818920723,0.0
1744,-0.02274116643093638,0.0
1745,-0.050870694209656925,0.0
1746,0.0138742161009704,0.0
1747,-0.0495589738364613,0.0
1748,-0.015459094099565971,0.0
1749,-0.08261063076913644,0.0
1750,0.32428981786620203,0.0
1751,5.033516123817722,0.0
1752,4.300327735243454,0.0
1753,-3.0199317953851033,0.0
1754,1.5574029407538008,0.0
1755,-0.9581427923723566,0.0
1756,0.14774280316925098,0.0
1757,-0.18212083876243543,0.0
1758,0.03055465476574311,0.0
1759,0.009318960072163318,0.0
1760,-0.028791355358431713,0.0
1761,-0.011527475381391513,0.0
1762,0.0695068257784521,0.0
1763,0.032821770854788754,0.0
1764,-0.03941057679303494,0.0
1765,-0.029412523235209626,0.0
1766,-0.09038885871391476,0.0
1767,1.2686624751723046,0.0
1768,6.66600400783579,0.0
1769,0.6680590541014366,0.0
1770,-1.5358504523330867,0.0
1771,0.884428456315176,0.0
1772,-0.4997470892060207,0.0
1773,0.12763322929351373,0.0
1774,-0.114160913231284,0.0
1775,0.0166606608658382,0.0
1776,0.0007337263682307207,0.0
1777,-0.10993743896771516,0.0
1778,-0.0582031686212936,0.0
1779,-0.050164112517020264,0.0
1780,-0.05381400808917008,0.0
1781,-0.0012960275392877758,0.0
1782,-0.045184712216353756,0.0
1783,0.05756675407585367,0.0
1784,3.001598246832245,0.0
1785,6.674327239275879,0.0
1786,-2.247048030305705,0.0
1787,0.6422342305495496,0.0
1788,-0.13831705550076245,0.0
1789,0.08858733715956754,0.0
1790,-0.06938489913745212,0.0
1791,0.010255721550056577,0.0
1792,-0.11356033187554668,0.0
1793,-0.03987314851425351,0.0
1794,-0.023124653186901566,0.0
1795,-0.06615859923234105,0.0
1796,-0.13423779465176877,0.0
1797,-0.1309546196602831,0.0
1798,-0.04015327036386565,0.0
1799,-0.06114177260630541,0.0
1800,0.23102386461330912,0.0
1801,4.99009991581271,0.0
1802,4.1471020574862925,0.0
1803,-3.0551557235408784,0.0
1804,1.500939215294198,0.0
1805,-0.848204906778755,0.0
1806,0.2180288091802967,0.0
1807,-0.20099778036687238,0.0
1808,0.039518112076938915,0.0
1809,-0.033181256077795235,0.0
1810,0.02177598858953874,0.0
1811,0.15809595421462214,0.0
1812,0.0683914957759491,0.0
1813,0.05504728105462076,0.0
1814,0.0477962161505999,0.0
1815,0.0364125604257802,0.0
1816,0.030275501500997323,0.0
1817,1.2826347210261244,0.0
1818,6.79401844050697,0.0
1819,0.763237636699288,0.0
1820,-1.4616191209264888,0.0
1821,1.0611198810492781,0.0
1822,-0.53680303800226,0.0
1823,0.18879946804286207,0.0
1824,-0.020160060658396373,0.0
1825,-0.024426508595554324,0.0
1826,0.0658672608579996,0.0
1827,0.00929027646589704,0.0
1828,0.0049074972662497655,0.0
1829,0.022552275846202053,0.0
1830,-0.03975026954517138,0.0
1831,-0.055396471163303374,0.0
1832,-0.006501785070124387,0.0
1833,0.023805819945815473,0.0
1834,2.99217100144622,0.0
1835,6.5700404184624,0.0
1836,-2.33213346216241,0.0
1837,0.710022876490802,0.0
1838,-0.0643009325643485,0.0
1839,0.09712168048514504,0.0
1840,0.09140477236480136,0.0
1841,-0.006088312516408536,0.0
1842,0.0947097461165623,0.0
1843,0.005060847967091504,0.0
1844,0.06926968746819809,0.0
1845,0.008569515289202025,0.0
1846,0.1252257809972603,0.0
1847,-0.02204243090640893,0.0
1848,0.02473081556946539,0.0
1849,0.07068250656788747,0.0
1850,0.3498202495952969,0.0
1851,5.170007589626087,0.0
1852,4.270389450103642,0.0
1853,-2.9377845388667816,0.0
1854,1.6386338448692104,0.0
1855,-0.7525352497237427,0.0
1856,0.2795839048748314,0.0
1857,-0.1160543910529121,0.0
1858,0.06285643693292663,0.0
1859,-0.07586772790548774,0.0
1860,0.022217938062434578,0.0
1861,0.0315821163056304,0.0
1862,0.02522378264509572,0.0
1863,-0.03151549160245999,0.0
1864,-0.012416367898836683,0.0
1865,-0.018350357370111856,0.0
1866,0.10914415139431935,0.0
1867,1.33624077395231,0.0
1868,6.841976467216564,0.0
1869,0.7397170177842981,0.0
1870,-1.3744759083678195,0.0
1871,1.0464697325174837,0.0
1872,-0.600730070367226,0.0
1873,0.30548765002028944,0.0
1874,-0.07500636770822193,0.0
1875,-0.03315034522473419,0.0
1876,0.08042274402924923,0.0
1877,0.008036711867193359,0.0
1878,0.1285080104142401,0.0
1879,0.0049404123403166255,0.0
1880,0.06314852626908063,0.0
1881,0.09066364325529053,0.0
1882,0.00019841592059673813,0.0
1883,0.15099641332168134,0.0
1884,2.948217766938582,0.0
1885,6.560866851884958,0.0
1886,-2.2770849775758917,0.0
1887,0.6375155648952834,0.0
1888,-0.09338158940324955,0.0
1889,0.029187273293058386,0.0
1890,0.1094072731792189,0.0
1891,0.009662103245073194,0.0
1892,-0.016993942995541758,0.0
1893,-0.08658412325524971,0.0
1894,0.011696259632489828,0.0
1895,-0.04936421696672118,0.0
1896,-0.014724611250698467,0.0
1897,0.06056852090203874,0.0
1898,-0.004904929304077599,0.0
1899,-0.024479333419128224,0.0
1900,0.3556606818602922,0.0
1901,5.122506533348807,0.0
1902,4.063637072977559,0.0
1903,-3.143208001577606,0.0
1904,1.4962201586943933,0.0
1905,-0.7541898820634428,0.0
1906,0.3932133117866617,0.0
1907,-0.14823275293358254,0.0
1908,0.03092963907376238,0.0
1909,-0.04526629463010376,0.0
1910,0.030580554819930605,0.0
1911,-0.004087841055184591,0.0
1912,-0.0015901867188911137,0.0
1913,0.043669043545408175,0.0
1914,-0.03786726978704149,0.0
1915,-0.02855287992173692,0.0
1916,0.10749297447786277,0.0
1917,1.2894298452163255,0.0
1918,6.780802277743418,0.0
1919,0.6231571546752666,0.0
1920,-1.4172059709664386,0.0
1921,0.975687692342054,0.0
1922,-0.5339843195633609,0.0
1923,0.2613031531406667,0.0
1924,-0.004754985400834653,0.0
1925,0.13405135717679817,0.0
1926,-0.0395645901343637,0.0
1927,-0.03509916059180254,0.0
1928,-0.03696847252692804,0.0
1929,-0.013089577611642936,0.0
1930,0.039697315886202546,0.0
1931,0.012442013895831718,0.0
1932,0.061066081610315764,0.0
1933,0.016993749567682126,0.0
1934,3.0075844124816924,0.0
1935,6.5460875427444165,0.0
1936,-2.2814244114255033,0.0
1937,0.7404194301563884,0.0
1938,-0.18243615472014263,0.0
1939,0.06636412313189245,0.0
1940,0.06596376540104547,0.0
1941,0.1069506528484567,0.0
1942,0.0796404577765388,0.0
1943,0.17573954023964655,0.0
1944,-0.05271833081959126,0.0
1945,0.07859348943083819,0.0
1946,0.05688731917050748,0.0
1947,-0.008018121294925747,0.0
1948,0.015066090612245675,0.0
1949,0.0628388614117765,0.0
1950,0.38406224313930115,0.0
1951,5.20303619782674,0.0
1952,4.229258789614208,0.0
1953,-2.898114347975046,0.0
1954,1.5518229812680993,0.0
1955,-0.8037374889946565,0.0
1956,0.4190704330407794,0.0
1957,-0.0639329401376674,0.0
1958,0.12011933054912893,0.0
1959,0.03188356934351445,0.0
1960,0.04902446574254252,0.0
1961,0.014552501594737532,0.0
1962,0.04190588458076403,0.0
1963,0.11189238897750758,0.0
1964,0.06583767596660978,0.0
1965,0.02687873608972949,0.0
1966,0.0583191696881023,0.0
1967,1.300646749647226,0.0
1968,6.7033403609088325,0.0
1969,0.5502131967030583,0.0
1970,-1.3311914746081241,0.0
1971,1.0535387222331432,0.0
1972,-0.482463927963376,0.0
1973,0.30996639111936086,0.0
1974,-0.07796075535293905,0.0
1975,0.00031606103005290404,0.0
1976,0.02114125841203905,0.0
1977,0.1148369402940244,0.0
1978,0.05723782773226056,0.0
1979,0.08567570787990111,0.0
1980,0.05990740100334463,0.0
1981,-0.010457938476601997,0.0
1982,-0.03160811451199447,0.0
1983,0.0017232900240091165,0.0
1984,3.0286915485202277,0.0
1985,6.601646986082646,0.0
1986,-2.388462849112229,0.0
1987,0.7255990480512433,0.0
1988,-0.08753000015963684,0.0
1989,0.09175150822359668,0.0
1990,-0.021193610475859916,0.0
1991,-0.03310974702717677,0.0
1992,-0.03920566266227677,0.0
1993,0.06266175002798594,0.0
1994,-0.0032151967320196433,0.0
1995,0.04228084961644967,0.0
1996,0.0079192392731512,0.0
1997,0.04342393627475358,0.0
1998,0.02388355645648946,0.0
1999,-0.06157841279027744,0.0
2000,0.3206718128631964,0.0
2001,5.079730797814953,0.0
2002,4.195218381476624,0.0
2003,-2.9185354013489113,0.0
2004,1.6505773532115984,0.0
2005,-0.7815759565516023,0.0
2006,0.3713699629900127,0.0
2007,-0.05670551961084066,0.0
2008,0.1728857294550921,0.0
2009,-0.06850358102273975,0.0
2010,-0.02296435654765172,0.0
2011,0.044312562753188976,0.0
2012,0.06289872990883141,0.0
2013,-0.012481483546635766,0.0
2014,-0.05495430095976311,0.0
2015,0.009572017208493516,0.0
2016,0.06862723943976773,0.0
2017,1.2126958702186141,0.0
2018,6.835346124367403,0.0
2019,0.6085165462605009,0.0
2020,-1.5045961437708222,0.0
2021,0.9782333527328063,0.0
2022,-0.6003484075673571,0.0
2023,0.2726606785469219,0.0
2024,-0.04381226878636342,0.0
2025,-0.05651175328396929,0.0
2026,0.0337384346422418,0.0
2027,0.06449299041929649,0.0
2028,-0.04683878115554938,0.0
2029,-0.05689561897240554,0.0
2030,0.003058266941213226,0.0
2031,0.09840255693016876,0.0
2032,-0.01281123530500322,0.0
2033,0.03481971168268735,0.0
2034,3.005214911181699,0.0
2035,6.63447231305274,0.0
2036,-2.396877495798238,0.0
2037,0.7256211945333587,0.0
2038,-0.17346364443872803,0.0
2039,0.04101510272416196,0.0
2040,-0.009228119193755222,0.0
2041,0.1226451022778377,0.0
2042,-0.019817295126398453,0.0
2043,0.0646506364914627,0.0
2044,-0.06844108243939448,0.0
2045,-0.05366753159078593,0.0
2046,0.07294214494023973,0.0
2047,-0.020639997652538097,0.0
2048,-0.015070066355914031,0.0
2049,-0.0023037831944923183,0.0
2050,0.34588970003823605,0.0
2051,5.166296155187432,0.0
2052,4.242553605146741,0.0
2053,-2.8435968374464666,0.0
2054,1.6488050139005421,0.0
2055,-0.7479007608719844,0.0
2056,0.3949123718726596,0.0
2057,-0.0703903030176613,0.0
2058,0.17388355760981605,0.0
2059,0.09160920168219303,0.0
2060,0.04676933880177975,0.0
2061,0.10340101705824122,0.0
2062,0.12052017647162162,0.0
2063,0.05134232215097262,0.0
2064,0.07820072545463262,0.0
2065,0.09370493097045214,0.0
2066,-0.0031160928178139563,0.0
2067,1.3322102131467484,0.0
2068,6.661413899521662,0.0
2069,0.5612844865513524,0.0
2070,-1.3956297739627004,0.0
2071,0.9218119599608564,0.0
2072,-0.5510053173538174,0.0
2073,0.22703816690332926,0.0
2074,-0.06822104449172499,0.0
2075,0.030729282128931164,0.0
2076,0.05786609517391686,0.0
2077,-0.02978424916098831,0.0
2078,0.05116445930218538,0.0
2079,0.04461559804787959,0.0
2080,0.058606725645132654,0.0
2081,0.1007695498717209,0.0
2082,0.0779416848833507,0.0
2083,0.19336737827879774,0.0
2084,3.0760262879235425,0.0
2085,6.655905703784663,0.0
2086,-2.3421608866134136,0.0
2087,0.8279904141698108,0.0
2088,-0.0642930298737049,0.0
2089,0.026401726876309456,0.0
2090,0.02775774165210607,0.0
2091,0.01601979659418685,0.0
2092,0.10556244373908023,0.0
2093,0.023597628158589644,0.0
2094,-0.003815804787796598,0.0
2095,0.04991099191147546,0.0
2096,0.02611480061812575,0.0
2097,-0.04650963030721883,0.0
2098,0.027026777297608308,0.0
2099,0.033289185832513855,0.0
2100,0.4073912509980442,0.0
2101,5.202804013376333,0.0
2102,4.189653574581736,0.0
2103,-2.9421645199422173,0.0
2104,1.6393338714057661,0.0
2105,-0.73204998967442,0.0
2106,0.38080185155159363,0.0
2107,-0.05440834455932503,0.0
2108,-0.060459944598081114,0.0
2109,-0.032696765291618156,0.0
2110,0.012023365679695116,0.0
2111,-0.005999346576793017,0.0
2112,0.03285596009941327,0.0
2113,0.03308676561160972,0.0
2114,-0.018681114615544947,0.0
2115,0.05557296541121464,0.0
2116,0.09265887712683196,0.0
2117,1.3183522977357978,0.0
2118,6.720647878255037,0.0
2119,0.48938745051739485,0.0
2120,-1.3616808368535955,0.0
2121,1.042107687608755,0.0
2122,-0.5635058857330555,0.0
2123,0.2473504632455918,0.0
2124,0.027302920958528973,0.0
2125,-0.06637824175816603,0.0
2126,-0.09101994159039582,0.0
2127,-0.07555421695420139,0.0
2128,0.0031117125668967812,0.0
2129,-0.013495573517473809,0.0
2130,0.012934464905873685,0.0
2131,0.06833819392019516,0.0
2132,0.06394256853293057,0.0
2133,0.07221493907779752,0.0
2134,3.0501554632276395,0.0
2135,6.644387331721833,0.0
2136,-2.38176425252651,0.0
2137,0.8986498142096956,0.0
2138,-0.04813596024568914,0.0
2139,0.17034171601519704,0.0
2140,0.04120700478880155,0.0
2141,0.15499046097090585,0.0
2142,0.14457966967755997,0.0
2143,0.12469152197009577,0.0
2144,0.12914454518223925,0.0
2145,-0.011987797998409558,0.0
2146,0.09994884220332034,0.0
2147,0.07792381342622379,0.0
2148,0.0761977548851662,0.0
2149,0.1437235301749526,0.0
2150,0.3375724302360259,0.0
2151,5.156342722217024,0.0
2152,4.095472974965891,0.0
2153,-2.8412070434987378,0.0
2154,1.6406059291685686,0.0
2155,-0.7740478776787323,0.0
2156,0.3059789644093446,0.0
2157,-0.14542627575463712,0.0
2158,0.043952821347444784,0.0
2159,0.025922274591562725,0.0
2160,-0.026804439886823656,0.0
2161,0.029821001836927048,0.0
2162,-0.02096979084316476,0.0
2163,-0.007917748304883628,0.0
2164,0.013365130788002251,0.0
2165,0.0038956577898004476,0.0
2166,0.04997103149308976,0.0
2167,1.3083485602020892,0.0
2168,6.754276973636869,0.0
2169,0.6529260698349745,0.0
2170,-1.3230568788812547,0.0
2171,0.9356272123131804,0.0
2172,-0.5898365009577853,0.0
2173,0.13940248901373986,0.0
2174,-0.08562951125225018,0.0
2175,-0.0119168777230655,0.0
2176,-0.059539222300529604,0.0
2177,0.044885709178692196,0.0
2178,0.15518758844551114,0.0
2179,0.15599124100901926,0.0
2180,0.12501598236644795,0.0
2181,-0.014142644505613283,0.0
2182,0.051154663456069505,0.0
2183,0.09796579101605413,0.0
2184,3.1451685383475074,0.0
2185,6.599073316319299,0.0
2186,-2.478300973937678,0.0
2187,0.793999245044825,0.0
2188,-0.1287738487197896,0.0
2189,0.06893537961010804,0.0
2190,-0.010432043615815245,0.0
2191,0.06373781567708992,0.0
2192,-0.014633049450076333,0.0
2193,0.09526489954926909,0.0
2194,0.0299565205742014,0.0
2195,-0.06595291554890702,0.0
2196,0.062353748599456596,0.0
2197,0.05409012985881714,0.0
2198,0.009718367479357429,0.0
2199,-0.057446645038357474,0.0
2200,0.4270577047451205,0.0
2201,5.256233047859101,0.0
2202,4.0548562253700835,0.0
2203,-2.891868478383023,0.0
2204,1.6523934713684343,0.0
2205,-0.9032256327333055,0.0
2206,0.3499901550408865,0.0
2207,-0.2594213444575163,0.0
2208,0.06372935007852998,0.0
2209,0.06828322847365265,0.0
2210,0.055089676784994004,0.0
2211,-0.08945268797484296,0.0
2212,-0.1026625158802137,0.0
2213,-0.08981192401370572,0.0
2214,-0.025689713309019445,0.0
2215,-0.04028698934420313,0.0
2216,-0.09221804464685282,0.0
2217,1.228696615070986,0.0
2218,6.77594747327201,0.0
2219,0.3745026816822305,0.0
2220,-1.3864081737295775,0.0
2221,0.9783050057719536,0.0
2222,-0.6195508347504728,0.0
2223,0.19553066311325112,0.0
2224,-0.11087185410071887,0.0
2225,-0.07298339385191266,0.0
2226,-0.09323004716238228,0.0
2227,-0.023443706971281186,0.0
2228,0.0067985978925643314,0.0
2229,0.0021098835495181947,0.0
2230,-0.039169831820276196,0.0
2231,-0.06617804914324457,0.0
2232,-0.031533175861377556,0.0
2233,0.010463450478164701,0.0
2234,3.0305982802609606,0.0
2235,6.437934128085256,0.0
2236,-2.482223174153731,0.0
2237,0.7605926839840115,0.0
2238,-0.24200874965089883,0.0
2239,-0.06004452954451601,0.0
2240,-0.09210855026665374,0.0
2241,0.0038457589644262727,0.0
2242,-0.0041975735653524485,0.0
2243,-0.01805571641342317,0.0
2244,-0.054730168709642465,0.0
2245,-0.06259836964613436,0.0
2246,-0.08032382914599828,0.0
2247,-0.045324634743867796,0.0
2248,-0.10282522214274961,0.0
2249,-0.08405789550482747,0.0
2250,0.43026182372583593,0.0
2251,5.229524613376571,0.0
2252,3.9889068841573887,0.0
2253,-2.999245587459528,0.0
2254,1.587314546192762,0.0
2255,-0.8700344931175048,0.0
2256,0.29344260781651177,0.0
2257,-0.1526830298796353,0.0
2258,-0.06753871257454619,0.0
2259,-0.1307244311310757,0.0
2260,-0.09753193219885786,0.0
2261,-0.046137332286844225,0.0
2262,-0.15728774236007015,0.0
2263,-0.03735534417942461,0.0
2264,-0.042268807682824386,0.0
2265,-0.060342033038209446,0.0
2266,0.009547216267129413,0.0
2267,1.201409195356738,0.0
2268,6.68080429051424,0.0
2269,0.4078549234393732,0.0
2270,-1.4484738922843403,0.0
2271,0.8633615828283253,0.0
2272,-0.5320851638380387,0.0
2273,0.11568526514316246,0.0
2274,-0.09288651295295192,0.0
2275,-0.04613914635562747,0.0
2276,-0.05620985514074302,0.0
2277,-0.02119015375811703,0.0
2278,-0.0815747333323955,0.0
2279,-0.06069159347999284,0.0
2280,-0.09495690805856938,0.0
2281,-0.15499117024752054,0.0
2282,0.012252205693369822,0.0
2283,-0.039935166886081175,0.0
2284,3.0890565963323686,0.0
2285,6.546694132346471,0.0
2286,-2.591038212503552,0.0
2287,0.6446717441097825,0.0
2288,-0.24301826668475707,0.0
2289,-0.01250077051617441,0.0
2290,-0.10555776938488877,0.0
2291,-0.17739686768423468,0.0
2292,-0.07570736294977408,0.0
2293,-0.1451686563329202,0.0
2294,-0.1484309543083311,0.0
2295,-0.05146579845086574,0.0
2296,0.018277437684678308,0.0
2297,-0.09305649239674188,0.0
2298,0.02037792882728899,0.0
2299,-0.06190149641900809,0.0
2300,0.34405873358335015,0.0
2301,5.256323047238445,0.0
2302,4.057636697136432,0.0
2303,-2.8826196780965705,0.0
2304,1.6045592424698143,0.0
2305,-0.7749620857529023,0.0
2306,0.20505892114851737,0.0
2307,-0.16396972471683396,0.0
2308,-0.008853119042371321,0.0
2309,-0.08602524120076831,0.0
2310,-0.14892122574465533,0.0
2311,-0.07884530835788164,0.0
2312,-0.09746620852725697,0.0
2313,-0.1350593279228196,0.0
2314,-0.07337926382399115,0.0
2315,0.00986382112604152,0.0
2316,-0.05315752804541897,0.0
2317,1.2375646639119728,0.0
2318,6.740345719125617,0.0
2319,0.238343075015153,0.0
2320,-1.4217462175219817,0.0
2321,0.8689841877640856,0.0
2322,-0.5167683495706326,0.0
2323,0.10679550111939029,0.0
2324,-0.07371574949858792,0.0
2325,0.027667478604590068,0.0
2326,-0.0040853324643538025,0.0
2327,-0.0814019862005466,0.0
2328,-0.026619607471626693,0.0
2329,-0.028145264027990072,0.0
2330,0.03759550792347211,0.0
2331,-0.06810499051874362,0.0
2332,-0.08401552447953584,0.0
2333,0.07590381155487755,0.0
2334,3.0811935347581434,0.0
2335,6.436420013601066,0.0
2336,-2.4216686814762602,0.0
2337,0.75311355658544,0.0
2338,-0.15798868628328444,0.0
2339,-0.07064986538645528,0.0
2340,-0.10145226009559549,0.0
2341,-0.05725952074341861,0.0
2342,-0.09202960610939309,0.0
2343,-0.0667547415919485,0.0
2344,-0.06532979443142067,0.0
2345,-0.07367142083570649,0.0
2346,-0.05199540579363597,0.0
2347,-0.09842573195313459,0.0
2348,0.014457072211131277,0.0
2349,-0.008518438473482163,0.0
2350,0.4815693309370007,0.0
2351,5.2167576000810545,0.0
2352,3.9863925222745125,0.0
2353,-2.9030730489664287,0.0
2354,1.6303334421296405,0.0
2355,-0.7655323145948416,0.0
2356,0.250639983271383,0.0
2357,-0.18640159354523322,0.0
2358,-0.009824605293161894,0.0
2359,-0.21789111298764186,0.0
2360,-0.10288328251092155,0.0
2361,-0.04517113690909683,0.0
2362,-0.016174661924409944,0.0
2363,-0.10085942930814508,0.0
2364,-0.11117177193155442,0.0
2365,0.004304095476667338,0.0
2366,-0.11302734922484807,0.0
2367,1.2913404848768262,0.0
2368,6.763579447620867,0.0
2369,0.293820302008679,0.0
2370,-1.2718880666227124,0.0
2371,0.946543121245337,0.0
2372,-0.4445829178373292,0.0
2373,0.2142106497335484,0.0
2374,-0.04623668382079688,0.0
2375,-0.02011448005445058,0.0
2376,0.09356185714577456,0.0
2377,-0.023214027378176787,0.0
2378,0.008745000524351867,0.0
2379,0.008283889588628489,0.0
2380,-0.07389891403362309,0.0
2381,0.008714507069372861,0.0
2382,-0.00765531083078156,0.0
2383,0.011204895482702495,0.0
2384,3.0930728733193313,0.0
2385,6.604743100046827,0.0
2386,-2.302742242000027,0.0
2387,0.8753948138529808,0.0
2388,-0.29496522515933576,0.0
2389,0.07767839247661801,0.0
2390,-0.06584911840844467,0.0
2391,0.00039462112518382636,0.0
2392,-0.0802819987248258,0.0
2393,0.03958343551410177,0.0
2394,0.01597333536308221,0.0
2395,-0.07452468718755881,0.0
2396,0.033548905269570925,0.0
2397,-0.047464689037356844,0.0
2398,-0.016467315125170433,0.0
2399,0.007649314462540207,0.0
2400,0.4212467992367405,0.0
2401,5.251359533107351,0.0
2402,3.9978684132270166,0.0
2403,-2.8338189868443027,0.0
2404,1.653893984854006,0.0
2405,-0.7119677053986381,0.0
2406,0.34681445447921794,0.0
2407,-0.11053999044636098,0.0
2408,0.020286087277738493,0.0
2409,0.036653008059839495,0.0
2410,-0.08009635443013259,0.0
2411,0.013864664247819732,0.0
2412,0.0007956101539667443,0.0
2413,0.0062918065256467835,0.0
2414,0.07771665541058723,0.0
2415,-0.00407716655614274,0.0
2416,0.038222022723140334,0.0
2417,1.4386623690772848,0.0
2418,6.801527588736847,0.0
2419,0.3232722756436538,0.0
2420,-1.1961157516368224,0.0
2421,0.9202001776018264,0.0
2422,-0.46559668515939645,0.0
2423,0.21986777130777013,0.0
2424,-0.022252621854163247,0.0
2425,0.09891590260085648,0.0
2426,-0.07794360058382703,0.0
2427,-0.04979830503975759,0.0
2428,0.14351590915127707,0.0
2429,0.06224728662237295,0.0
2430,0.058696518951788845,0.0
2431,0.08287705172922352,0.0
2432,0.12929981641076924,0.0
2433,0.0778618780133134,0.0
2434,3.1427613341421643,0.0
2435,6.520719783179858,0.0
2436,-2.345676691538626,0.0
2437,0.838036034558034,0.0
2438,-0.17710949619769745,0.0
2439,0.10967343444299738,0.0
2440,0.010912237362509415,0.0
2441,0.06286783538886093,0.0
2442,0.0031528336924262525,0.0
2443,0.0019307456168849019,0.0
2444,-0.03859493612552636,0.0
2445,0.072082174260756,0.0
2446,0.01900346386026522,0.0
2447,0.03256687700580178,0.0
2448,0.03794987781637191,0.0
2449,0.029014661812804585,0.0
2450,0.47643745148774447,0.0
2451,5.340352670005703,0.0
2452,4.045298166164786,0.0
2453,-2.876877016471789,0.0
2454,1.575285746458502,0.0
2455,-0.7750020950815234,0.0
2456,0.30182628859830796,0.0
2457,-0.07722116990116751,0.0
2458,0.1234268938841084,0.0
2459,-0.009140791280737262,0.0
2460,0.05446437792390431,0.0
2461,0.055848064083358545,0.0
2462,0.04833192888296556,0.0
2463,0.02941150431001756,0.0
2464,0.036258482253907036,0.0
2465,0.07115559767167308,0.0
2466,0.05091256857708531,0.0
2467,1.4151881580415215,0.0
2468,6.749916954187462,0.0
2469,0.24815363975137697,0.0
2470,-1.267710507540423,0.0
2471,0.9254712505142858,0.0
2472,-0.4794880170424149,0.0
2473,0.24130632990524103,0.0
2474,-0.012411833038807482,0.0
2475,-0.010743547470106602,0.0
2476,-0.033045239207293645,0.0
2477,-0.010450559919770078,0.0
2478,-0.07230196738458122,0.0
2479,-0.016827705921035867,0.0
2480,-0.04993100062908959,0.0
2481,-0.05610027606997943,0.0
2482,0.00041383178094991056,0.0
2483,0.10769384918004005,0.0
2484,3.174816611449475,0.0
2485,6.502231802133676,0.0
2486,-2.498946096440623,0.0
2487,0.7902742007538813,0.0
2488,-0.248426802386597,0.0
2489,0.07589983088669755,0.0
2490,-0.07532052334180005,0.0
2491,-0.06880150609631927,0.0
2492,0.061652591712296055,0.0
2493,-0.03282317355846663,0.0
2494,-0.20263903555538954,0.0
2495,-0.05342083278118154,0.0
2496,-0.08931548443368495,0.0
2497,-0.06515528718789146,0.0
2498,-0.07211161113531694,0.0
2499,-0.015160114737539289,0.0
2500,0.365914185865095,0.0
2501,5.29345245552074,0.0
2502,3.901692543095097,0.0
2503,-2.989965322645911,0.0
2504,1.5679961152508737,0.0
2505,-0.8855374514689558,0.0
2506,0.26211482074991543,0.0
2507,-0.16361110360492623,0.0
2508,-0.020198714503374397,0.0
2509,-0.12691580386929585,0.0
2510,0.01887681956441087,0.0
2511,-0.08921975230098672,0.0
2512,-0.05770032543682966,0.0
2513,0.04990713418461424,0.0
2514,-0.0831550934123077,0.0
2515,-0.0723464596169123,0.0
2516,-0.1376063307108412,0.0
2517,1.4173027272315935,0.0
2518,6.737482881988166,0.0
2519,0.3216201218127046,0.0
2520,-1.2210452623408026,0.0
2521,0.8952130600267774,0.0
2522,-0.5049944488649594,0.0
2523,0.25516993250840714,0.0
2524,-0.11193955257031848,0.0
2525,-0.0021738558199445868,0.0
2526,0.033792401354276684,0.0
2527,-0.1420343171639577,0.0
2528,-0.1425888767401333,0.0
2529,-0.10131089633731122,0.0
2530,-0.08957892366119052,0.0
2531,-0.11693014250826714,0.0
2532,-0.1261210464655219,0.0
2533,0.012966270951893042,0.0
2534,3.118162264495173,0.0
2535,6.449352388917087,0.0
2536,-2.6261694705538634,0.0
2537,0.6859668142389138,0.0
2538,-0.26084507440667953,0.0
2539,0.01477846579404099,0.0
2540,-0.15120900459167053,0.0
2541,-0.08913915617783352,0.0
2542,-0.04798580496879009,0.0
2543,-0.05331573266554951,0.0
2544,-0.03572507742258453,0.0
2545,0.027623343020287468,0.0
2546,-0.09977690465761103,0.0
2547,-0.050184236684941985,0.0
2548,-0.02724709551537162,0.0
2549,-0.12126503307746626,0.0
2550,0.32738841536398183,0.0
2551,5.2318212128301305,0.0
2552,3.835356081293543,0.0
2553,-2.957462824805928,0.0
2554,1.4245306963139934,0.0
2555,-0.8644179544609301,0.0
2556,0.2848399030721912,0.0
2557,-0.11763353145588516,0.0
2558,-0.047330780627212216,0.0
2559,-0.07226115773336182,0.0
2560,-0.07139648990072354,0.0
2561,-0.000471497898653625,0.0
2562,-0.05954307741603897,0.0
2563,-0.21373550231141675,0.0
2564,-0.06905617239265731,0.0
2565,-0.13660558971736925,0.0
2566,-0.1205884008121245,0.0
2567,1.286346585369936,0.0
2568,6.773955611929661,0.0
2569,0.19598518349000477,0.0
2570,-1.385943018498094,0.0
2571,0.7712817354092064,0.0
2572,-0.7201474406861208,0.0
2573,0.07669290930034763,0.0
2574,-0.2298418202644083,0.0
2575,-0.09128617248763525,0.0
2576,-0.09685997789248606,0.0
2577,-0.15560899773852616,0.0
2578,-0.21886975763991914,0.0
2579,-0.10893561528148404,0.0
2580,-0.1511557308396984,0.0
2581,-0.07179890038727961,0.0
2582,-0.12241116248501041,0.0
2583,-0.0876844353199796,0.0
2584,3.052224576190466,0.0
2585,6.389296103181323,0.0
2586,-2.611070166331538,0.0
2587,0.7051641471794636,0.0
2588,-0.33406081813324345,0.0
2589,-0.03315135762937118,0.0
2590,-0.0963717992535674,0.0
2591,-0.07299333197107516,0.0
2592,-0.1855290249916836,0.0
2593,-0.11070018351506468,0.0
2594,-0.035258091695141214,0.0
2595,-0.12452290560512878,0.0
2596,-0.1654386702581569,0.0
2597,-0.15770372200323318,0.0
2598,-0.14062415400795042,0.0
2599,-0.10055933885392442,0.0
2600,0.3569916151101056,0.0
2601,5.203709968213034,0.0
2602,3.8410301977700696,0.0
2603,-2.934633414888793,0.0
2604,1.5736182453227159,0.0
2605,-0.9296078695787734,0.0
2606,0.24913489292491803,0.0
2607,-0.1563806706988945,0.0
2608,-0.10238900290006345,0.0
2609,-0.06939436512878752,0.0
2610,-0.019625414863509306,0.0
2611,-0.03944691595666917,0.0
2612,-0.04013785830881959,0.0
2613,-0.06540675794872217,0.0
2614,0.006328265003249213,0.0
2615,-0.05187275179642404,0.0
2616,0.024847512756777143,0.0
2617,1.2732298129734017,0.0
2618,6.8231455114360635,0.0
2619,0.2405087782595003,0.0
2620,-1.352224878834833,0.0
2621,0.9034119640899817,0.0
2622,-0.5861632216553456,0.0
2623,0.1430186690300967,0.0
2624,-0.1182382578412398,0.0
2625,-0.06489740412129666,0.0
2626,-0.0962186584358726,0.0
2627,-0.17211903215477717,0.0
2628,-0.11283602789127517,0.0
2629,-0.10576727851839901,0.0
2630,-0.10026576234081087,0.0
2631,-0.0029466126656047323,0.0
2632,-0.05148279579539556,0.0
2633,-0.028132925561861033,0.0
2634,3.126524143298163,0.0
2635,6.375346365180131,0.0
2636,-2.569671147567468,0.0
2637,0.6909412836539346,0.0
2638,-0.20913840506385273,0.0
2639,0.00422763651757436,0.0
2640,-0.03320799940311079,0.0
2641,0.019561170558940043,0.0
2642,0.027232807856349253,0.0
2643,-0.16819701718786628,0.0
2644,-0.03251963637983618,0.0
2645,0.02814587592017622,0.0
2646,0.008577983999720366,0.0
2647,-0.00856108833110552,0.0
2648,-0.06485559587945118,0.0
2649,-0.07229200965830831,0.0
2650,0.3232463860279906,0.0
2651,5.256387483464445,0.0
2652,3.842993430666208,0.0
2653,-2.8342356158350865,0.0
2654,1.630010444084447,0.0
2655,-0.8027372608841074,0.0
2656,0.3922819317302092,0.0
2657,-0.10605619447596151,0.0
2658,0.06704649657223441,0.0
2659,-0.029177579281525274,0.0
2660,0.03832553177888082,0.0
2661,-0.019264338202146347,0.0
2662,-0.019377073372538377,0.0
2663,0.04277210208800833,0.0
2664,-0.02634493696302599,0.0
2665,-0.026649969623083025,0.0
2666,-0.12217691618105309,0.0
2667,1.4287284275778205,0.0
2668,6.822661133636198,0.0
2669,0.23998277136348195,0.0
2670,-1.342657370394441,0.0
2671,0.9767642785159032,0.0
2672,-0.454742498893094,0.0
2673,0.16404159655587514,0.0
2674,-0.06251056346665132,0.0
2675,-0.050463078867706616,0.0
2676,-0.09920526243247163,0.0
2677,-0.060854147178605066,0.0
2678,-0.07048936468210268,0.0
2679,-0.04523630571949888,0.0
2680,-0.059598126028985024,0.0
2681,-0.08325018878162493,0.0
2682,-0.1415807508820902,0.0
2683,0.04144295346863275,0.0
2684,3.2578316343707745,0.0
2685,6.451660378125148,0.0
2686,-2.4516293386275065,0.0
2687,0.7204215994556575,0.0
2688,-0.2860849876904774,0.0
2689,0.15161104582281953,0.0
2690,-0.05389171158600208,0.0
2691,0.17273231170027492,0.0
2692,0.03449434980784806,0.0
2693,0.09863497994903832,0.0
2694,0.12892480907069828,0.0
2695,0.07085082213086179,0.0
2696,-0.00794223709412395,0.0
2697,-0.02909529744118473,0.0
2698,-0.0017506214875706479,0.0
2699,-0.04669261165693613,0.0
2700,0.43113296675789586,0.0
2701,5.259023081080228,0.0
2702,3.991444637575481,0.0
2703,-2.8353642365179152,0.0
2704,1.5062687535664658,0.0
2705,-0.8786716856992697,0.0
2706,0.2974412659576877,0.0
2707,-0.13837662508001755,0.0
2708,-0.040689704669362205,0.0
2709,0.04163671272099148,0.0
2710,0.06335266770172422,0.0
2711,-0.057235875222793685,0.0
2712,-0.03635291369485745,0.0
2713,0.02075905579852739,0.0
2714,-0.026654463054928287,0.0
2715,0.037948098472940346,0.0
2716,0.03432389248068055,0.0
2717,1.3864863811842747,0.0
2718,6.774762628577429,0.0
2719,0.2975894793438751,0.0
2720,-1.1209989828169729,0.0
2721,0.9360572278845377,0.0
2722,-0.45242700155841126,0.0
2723,0.15637429108931672,0.0
2724,-0.03577233633234954,0.0
2725,0.04823784159568643,0.0
2726,0.009023959228737104,0.0
2727,-0.07326051537102274,0.0
2728,0.03676001888377474,0.0
2729,0.10538179769621502,0.0
2730,0.04545109873304739,0.0
2731,-0.08789295264682194,0.0
2732,0.04520387135111925,0.0
2733,0.18771303721208638,0.0
2734,3.1281736213378504,0.0
2735,6.531469268177627,0.0
2736,-2.5091997631251943,0.0
2737,0.9560484147514609,0.0
2738,-0.25367888848430886,0.0
2739,0.09442419341945112,0.0
2740,-0.06491286206974413,0.0
2741,0.04517113802427572,0.0
2742,0.10654306954636268,0.0
2743,0.04544405454212748,0.0
2744,-0.016579906015789667,0.0
2745,0.061061304205774346,0.0
2746,0.03759145905132503,0.0
2747,-0.0265472934580485,0.0
2748,0.08892146513729315,0.0
2749,0.030062624191284464,0.0
2750,0.5296757776200368,0.0
2751,5.327818824044753,0.0
2752,3.916668993279817,0.0
2753,-2.8460926087184983,0.0
2754,1.6694254090492056,0.0
2755,-0.7651023354238289,0.0
2756,0.32212484328322666,0.0
2757,-0.1762468774411532,0.0
2758,-0.02147828857025392,0.0
2759,0.04742685242516456,0.0
2760,0.04813346164912523,0.0
2761,0.11227175303988596,0.0
2762,0.039377239493703704,0.0
2763,-0.05673997174961081,0.0
2764,0.013633749260081224,0.0
2765,-0.03907525942373058,0.0
2766,-0.0997547818044736,0.0
2767,1.5217494547094965,0.0
2768,6.860229648039377,0.0
2769,0.1223108309682804,0.0
2770,-1.2097306830371195,0.0
2771,0.8433201344532504,0.0
2772,-0.49278342957407134,0.0
2773,0.16831846926422786,0.0
2774,-0.12115046469019933,0.0
2775,0.0055474431099645245,0.0
2776,0.050424923648335444,0.0
2777,-0.041572517511360416,0.0
2778,0.03793477441540701,0.0
2779,-0.004163472294143581,0.0
2780,0.05335334462386087,0.0
2781,0.029547928127740486,0.0
2782,-0.015435618584185186,0.0
2783,0.07793590885721904,0.0
2784,3.195104388160551,0.0
2785,6.50588957903896,0.0
2786,-2.5500258416040222,0.0
2787,0.8767580906703258,0.0
2788,-0.15303267860850567,0.0
2789,0.11456976557226266,0.0
2790,-0.003838284662105826,0.0
2791,0.06931577987255622,0.0
2792,-0.027630776201036204,0.0
2793,0.1599041474221627,0.0
2794,-0.061596750950021734,0.0
2795,0.002791474759216473,0.0
2796,0.016873841823970965,0.0
2797,-0.026760357678233718,0.0
2798,-0.06482565044748706,0.0
2799,0.049275446885772706,0.0
2800,0.4679992518540813,0.0
2801,5.391592545241425,0.0
2802,3.853728316075984,0.0
2803,-2.8374338508305903,0.0
2804,1.5496806062056354,0.0
2805,-0.7710855989670695,0.0
2806,0.38241954876723133,0.0
2807,-0.011240052006278839,0.0
2808,0.049930687944125446,0.0
2809,0.04920249319031869,0.0
2810,0.05644093898450721,0.0
2811,0.12359075290868747,0.0
2812,0.03321041828795593,0.0
2813,0.029705348929591122,0.0
2814,0.089176353452169,0.0
2815,0.06465015602416724,0.0
2816,0.040103957083044234,0.0
2817,1.4271983949548634,0.0
2818,6.764915546859454,0.0
2819,0.23503203210272555,0.0
2820,-1.1656834230062874,0.0
2821,0.8526281473888605,0.0
2822,-0.4827867254250356,0.0
2823,0.15426137835381776,0.0
2824,-0.03474977025917998,0.0
2825,-0.08045057875674848,0.0
2826,0.06858980013309851,0.0
2827,0.0035182575528649312,0.0
2828,0.04137548782276097,0.0
2829,0.008465705673513034,0.0
2830,0.0819403624645559,0.0
2831,0.038737859892987746,0.0
2832,0.0439555849876011,0.0
2833,0.021488954735717075,0.0
2834,3.2520156452064213,0.0
2835,6.4023165137925035,0.0
2836,-2.5603271167112984,0.0
2837,0.840476865770029,0.0
2838,-0.20299291777342188,0.0
2839,0.03409553868118152,0.0
2840,-0.05523020164366732,0.0
2841,0.015575907508910622,0.0
2842,-0.10442685451980217,0.0
2843,0.03025812004152987,0.0
2844,-0.00753597205784752,0.0
2845,-0.08663711709158005,0.0
2846,-0.020040323683420194,0.0
2847,-0.09621952221651285,0.0
2848,-0.030258077902720636,0.0
2849,0.019227397284147747,0.0
2850,0.47346200937924027,0.0
2851,5.389613452531111,0.0
2852,3.8380252932170915,0.0
2853,-2.8350000833302804,0.0
2854,1.5232731727734627,0.0
2855,-0.8544394435935238,0.0
2856,0.3625424778185512,0.0
2857,-0.05616020699006351,0.0
2858,0.02766340575071789,0.0
2859,-0.009585091306870068,0.0
2860,-0.020180445590035234,0.0
2861,-0.013610248897268508,0.0
2862,-0.0033096025577546567,0.0
2863,-0.10345402698357947,0.0
2864,-0.12309941912837807,0.0
2865,-0.014791223954106869,0.0
2866,-0.03572788309478567,0.0
2867,1.3845789811831053,0.0
2868,6.843372063801251,0.0
2869,0.13928436573706166,0.0
2870,-1.2120875557099804,0.0
2871,0.8063013466688463,0.0
2872,-0.44132714478735624,0.0
2873,0.21985942682741538,0.0
2874,-0.07721701732699991,0.0
2875,-0.03737415518120408,0.0
2876,0.011970369273561422,0.0
2877,0.009396350327188965,0.0
2878,-0.011686470440017385,0.0
2879,0.003947578206666254,0.0
2880,-0.009014159928073275,0.0
2881,-0.04903021027350888,0.0
2882,-0.10384589234998082,0.0
2883,0.09644487522053202,0.0
2884,3.21934541155595,0.0
2885,6.463413295278242,0.0
2886,-2.5980339634102787,0.0
2887,0.8387762371912331,0.0
2888,-0.2632014644076184,0.0
2889,0.12281929826479498,0.0
2890,-0.050031424336876205,0.0
2891,-0.002029854642794312,0.0
2892,0.06963148080516614,0.0
2893,-0.00734595408830005,0.0
2894,0.01578820788687406,0.0
2895,0.018934846475975473,0.0
2896,-0.014684650557131623,0.0
2897,0.02812044022040772,0.0
2898,0.05263394755972292,0.0
2899,0.07832450434686425,0.0
2900,0.4610664919405762,0.0
2901,5.427324477449649,0.0
2902,3.7949850869463546,0.0
2903,-2.733684492578318,0.0
2904,1.6743054412464735,0.0
2905,-0.7409780838936919,0.0
2906,0.4044819271594142,0.0
2907,-0.016368407750832526,0.0
2908,0.1167299519628012,0.0
2909,0.010545218937624425,0.0
2910,0.027674362688866375,0.0
2911,0.0217733043408904,0.0
2912,-0.011843332718609385,0.0
2913,0.07589673796066324,0.0
2914,0.16350218664232918,0.0
2915,0.031257475860779545,0.0
2916,0.02744425254145611,0.0
2917,1.5141610493346396,0.0
2918,6.762358046851196,0.0
2919,0.15984111288578673,0.0
2920,-1.063638585398051,0.0
2921,0.8371133115445665,0.0
2922,-0.4669648819001251,0.0
2923,0.13380211756003868,0.0
2924,-0.1015734708671332,0.0
2925,0.026476037023473564,0.0
2926,-0.02861647487088545,0.0
2927,0.02556270492939193,0.0
2928,0.03300209685216172,0.0
2929,-0.10005465503958436,0.0
2930,-0.03075884424221182,0.0
2931,-0.011727078679598497,0.0
2932,-0.02808949428410816,0.0
2933,0.1536995892938009,0.0
2934,3.336224012895591,0.0
2935,6.4384377599427856,0.0
2936,-2.6039147479599136,0.0
2937,0.8693821009574967,0.0
2938,-0.25000056261522013,0.0
2939,0.04828635421897941,0.0
2940,-0.045410776149667806,0.0
2941,0.08994746540718673,0.0
2942,0.018946605258324745,0.0
2943,0.06071699870060511,0.0
2944,0.022211584346802846,0.0
2945,-0.0166674950661266,0.0
2946,0.016450392767269513,0.0
2947,-0.03309660382353481,0.0
2948,-0.06255680066754805,0.0
2949,-0.06165096857713115,0.0
2950,0.35761012133478864,0.0
2951,5.391895408150703,0.0
2952,3.7519071072695844,0.0
2953,-2.8830217699153606,0.0
2954,1.5631105598082804,0.0
2955,-0.7616646837897335,0.0
2956,0.29654185326602667,0.0
2957,-0.10926343270329411,0.0
2958,-0.0412333170174226,0.0
2959,-0.06599810467623039,0.0
2960,0.09815691836601562,0.0
2961,-0.06824752867251635,0.0
2962,0.001696288271878777,0.0
2963,-0.08954975347149588,0.0
2964,0.030380480014148233,0.0
2965,0.045024178301824036,0.0
2966,0.0683687210276332,0.0
2967,1.478031145224765,0.0
2968,6.830987873656964,0.0
2969,0.1211808469343098,0.0
2970,-1.160801467445077,0.0
2971,0.8955300178924279,0.0
2972,-0.41739565851167515,0.0
2973,0.22615840021818137,0.0
2974,-0.03766860560067138,0.0
2975,-0.03352728057986476,0.0
2976,-0.0608162199039338,0.0
2977,0.04388947587736097,0.0
2978,-0.08292557131842399,0.0
2979,-0.08922038976082522,0.0
2980,0.061037705866828856,0.0
2981,0.11890333724656676,0.0
2982,-0.06080661720676156,0.0
2983,0.0857083359532026,0.0
2984,3.2011305934189673,0.0
2985,6.342963881197491,0.0
2986,-2.6098918601002037,0.0
2987,0.8679331007805469,0.0
2988,-0.22776454615508582,0.0
2989,0.01859733827772251,0.0
2990,-0.0822852904862808,0.0
2991,0.02467447539775558,0.0
2992,-0.055642154012311804,0.0
2993,-0.06296629549649362,0.0
2994,0.003150568917489091,0.0
2995,-0.0745199084753641,0.0
2996,-0.09721094734426264,0.0
2997,-0.08930950283965551,0.0
2998,-0.10682167549864192,0.0
2999,-0.0266839826737253,0.0
3000,0.39372742862431437,0.0
3001,5.332975011915135,0.0
3002,3.729021838358879,0.0
3003,-2.834452252263416,0.0
3004,1.5425793128925906,0.0
3005,-0.9136148296552741,0.0
3006,0.25807861441253677,0.0
3007,-0.18775654291659652,0.0
3008,-0.06321788408822628,0.0
3009,-0.07430578603196895,0.0
3010,-0.0960584098437853,0.0
3011,0.006596095729936392,0.0
3012,-0.03220424730858014,0.0
3013,-0.00040191447481468384,0.0
3014,-0.028246026685073637,0.0
3015,-0.06148269236019864,0.0
3016,0.012430407694020616,0.0
3017,1.5232348056148959,0.0
3018,6.841357139635513,0.0
3019,0.13866720984373138,0.0
3020,-1.1763442760608112,0.0
3021,0.8135966300711921,0.0
3022,-0.4486997437546061,0.0
3023,0.0869593117361916,0.0
3024,-0.11597315093650302,0.0
3025,-0.009292950923952631,0.0
3026,-0.025190896127948316,0.0
3027,-0.028079168074111146,0.0
3028,0.006394342356606228,0.0
3029,-0.10242080669439035,0.0
3030,-0.09597881485814877,0.0
3031,-0.0682663827584509,0.0
3032,-0.05146813190000474,0.0
3033,-0.019960814960964704,0.0
3034,3.248019055575202,0.0
3035,6.3210334996554955,0.0
3036,-2.6371792492080552,0.0
3037,0.8697847968309652,0.0
3038,-0.31801377104857986,0.0
3039,-0.014296322373456807,0.0
3040,-0.030302734971789036,0.0
3041,-0.06468595191621923,0.0
3042,-0.01914716709560376,0.0
3043,-0.03772126358867502,0.0
3044,-0.09317453448357124,0.0
3045,-0.0394859321522591,0.0
3046,-0.005210296628441802,0.0
3047,-0.0604595485909139,0.0
3048,-0.05725129926599906,0.0
3049,0.023771586947970547,0.0
3050,0.4168335235678101,0.0
3051,5.459922616179871,0.0
3052,3.635024376840084,0.0
3053,-2.893220145385398,0.0
3054,1.5403558188814932,0.0
3055,-0.8324570456283121,0.0
3056,0.2684308297469905,0.0
3057,-0.1275394097200407,0.0
3058,-0.12263453068517935,0.0
3059,-0.023807936892731023,0.0
3060,-0.020313657051387473,0.0
3061,-0.11075818767606577,0.0
3062,-0.034618282895200345,0.0
3063,-0.10378989202708354,0.0
3064,-0.07316327705989953,0.0
3065,-0.023726202220574463,0.0
3066,-0.0967254611698199,0.0
3067,1.4605776953830594,0.0
3068,6.852484156803294,0.0
3069,0.021685750643392194,0.0
3070,-1.1974276387137208,0.0
3071,0.7332384262850338,0.0
3072,-0.4779720849598851,0.0
3073,0.055150953930612645,0.0
3074,-0.15430906031092653,0.0
3075,-0.03345270726542603,0.0
3076,-0.12298639268095546,0.0
3077,-0.1305073155122115,0.0
3078,-0.051566770690397695,0.0
3079,-0.02522822341519009,0.0
3080,-0.06379895427794546,0.0
3081,-0.0871945164936951,0.0
3082,-0.00856880377081845,0.0
3083,-0.07322371849059157,0.0
3084,3.2441027556663045,0.0
3085,6.346663792683251,0.0
3086,-2.6690213444658166,0.0
3087,0.8076733015762922,0.0
3088,-0.3439223038856382,0.0
3089,-0.08742655264901547,0.0
3090,-0.1654864292254075,0.0
3091,-0.082740132716794,0.0
3092,-0.11809658546245093,0.0
3093,-0.24595069790016016,0.0
3094,-0.1434757948566487,0.0
3095,-0.2000835253278405,0.0
3096,-0.1317771155102831,0.0
3097,-0.04309806374449258,0.0
3098,-0.18260386107088242,0.0
3099,-0.0749750463767483,0.0
3100,0.4507495701728839,0.0
3101,5.392472651647581,0.0
3102,3.682747251768515,0.0
3103,-2.8128911282267732,0.0
3104,1.5201912483858189,0.0
3105,-0.7435205508583891,0.0
3106,0.3473726762724001,0.0
3107,-0.059903751716488554,0.0
3108,-0.019255819776444145,0.0
3109,-0.16862201992782458,0.0
3110,-0.004392028209525299,0.0
3111,-0.0842734872620644,0.0
3112,-0.11867340334625895,0.0
3113,-0.08183684638073724,0.0
3114,-0.09511388879756302,0.0
3115,-0.06700508789814844,0.0
3116,0.012829920353571764,0.0
3117,1.3443897506326055,0.0
3118,6.7981842046001315,0.0
3119,0.03972353201706253,0.0
3120,-1.1963634889697854,0.0
3121,0.8395945104856777,0.0
3122,-0.5262324208204974,0.0
3123,0.1368895864964832,0.0
3124,-0.1301792767194845,0.0
3125,-0.021771163783168936,0.0
3126,-0.06741577243203735,0.0
3127,0.018422676326424865,0.0
3128,-0.0061372344804224085,0.0
3129,-0.0175195324505326,0.0
3130,0.040436517422669294,0.0
3131,-0.059489274609121255,0.0
3132,-0.07819013680925983,0.0
3133,0.10745617875566954,0.0
3134,3.2880567575928086,0.0
3135,6.250219680793475,0.0
3136,-2.633501063204507,0.0
3137,0.9089457290213036,0.0
3138,-0.3314269092172635,0.0
3139,0.03245600492748001,0.0
3140,-0.033136814530455534,0.0
3141,-0.029444383337615124,0.0
3142,-0.07762246242577937,0.0
3143,-0.02363334601450631,0.0
3144,-0.007861644631998545,0.0
3145,0.005378573479716776,0.0
3146,-0.04047955164655685,0.0
3147,0.001246261785255564,0.0
3148,0.022283385482074574,0.0
3149,-0.03626424745484419,0.0
3150,0.452328889806494,0.0
3151,5.46794759452642,0.0
3152,3.6577839839934767,0.0
3153,-2.820432901950017,0.0
3154,1.5760827586495778,0.0
3155,-0.8417091541665388,0.0
3156,0.2660004597780664,0.0
3157,-0.04523513444334583,0.0
3158,-9.469622165109333e-05,0.0
3159,-0.017826964221093426,0.0
3160,0.026825212370105708,0.0
3161,-0.004648387926992322,0.0
3162,-0.009481902801530585,0.0
3163,-0.01228054213281424,0.0
3164,-0.03671912939331251,0.0
3165,-0.1092971313508383,0.0
3166,-0.055748122446164824,0.0
3167,1.3901481840150565,0.0
3168,6.813331678916842,0.0
3169,-0.009319059811086489,0.0
3170,-1.1812468222626789,0.0
3171,0.7836993837269878,0.0
3172,-0.41577311045123216,0.0
3173,0.12728354122449617,0.0
3174,-0.11642765346671052,0.0
3175,-0.09455227297655283,0.0
3176,-0.11498069774047004,0.0
3177,-0.08459523169072536,0.0
3178,-0.06946978774131148,0.0
3179,0.012824962389268717,0.0
3180,-0.02942147545580755,0.0
3181,-0.044998764171388976,0.0
3182,-0.009451874368583583,0.0
3183,0.07427437264199409,0.0
3184,3.367149843919251,0.0
3185,6.3395081276280445,0.0
3186,-2.7282446691048987,0.0
3187,0.947204066443353,0.0
3188,-0.3154957690355549,0.0
3189,0.15745987854857804,0.0
3190,0.0605250082250639,0.0
3191,-0.023847812452808988,0.0
3192,0.033130865422056344,0.0
3193,-0.041145474701238284,0.0
3194,-0.09525083243707681,0.0
3195,-0.0422106447467875,0.0
3196,-0.03506867691621533,0.0
3197,0.015664898513289147,0.0
3198,0.04144206372864436,0.0
3199,-0.032616037145316495,0.0
3200,0.4850990301162501,0.0
3201,5.41261232543143,0.0
3202,3.6005166075802535,0.0
3203,-2.8626365007152823,0.0
3204,1.5412735356729048,0.0
3205,-0.8469135124471576,0.0
3206,0.2514195980801412,0.0
3207,-0.10725769993793977,0.0
3208,0.03687862323534273,0.0
3209,0.010684613173153168,0.0
3210,0.0135355366678118,0.0
3211,-0.0345127119661652,0.0
3212,0.020925817294649877,0.0
3213,0.06142758228476302,0.0
3214,-0.002469392712280873,0.0
3215,0.003700480859805214,0.0
3216,0.0016207813838077928,0.0
3217,1.4355493064701228,0.0
3218,6.961151574007728,0.0
3219,-0.06101376529602621,0.0
3220,-1.1676077877004378,0.0
3221,0.7959207143744983,0.0
3222,-0.5242490722232187,0.0
3223,0.09749854637361491,0.0
3224,-0.18588938245529602,0.0
3225,-0.08339245147320745,0.0
3226,-0.07748992788709282,0.0
3227,-0.07113611690388975,0.0
3228,-0.06917757830175397,0.0
3229,-0.0814529253998455,0.0
3230,0.008318086367274161,0.0
3231,0.014024756737500862,0.0
3232,0.05723897556353884,0.0
3233,0.0736385881422664,0.0
3234,3.3278521328595696,0.0
3235,6.323091083100736,0.0
3236,-2.6799918944883494,0.0
3237,0.9262628592874017,0.0
3238,-0.2690451856417313,0.0
3239,0.15288790463511737,0.0
3240,-0.12065476740367997,0.0
3241,-0.03180666521462323,0.0
3242,0.014610140737729885,0.0
3243,0.021811736744475493,0.0
3244,-0.05869679072392571,0.0
3245,-0.00910189084764178,0.0
3246,-0.013533574233080275,0.0
3247,0.02539490892564935,0.0
3248,0.03913100562216756,0.0
3249,-0.030361410196376705,0.0
3250,0.44660775733721686,0.0
3251,5.461291065157318,0.0
3252,3.603817681025629,0.0
3253,-2.8242509255909933,0.0
3254,1.503138729616517,0.0
3255,-0.7993188171375172,0.0
3256,0.3000789386956865,0.0
3257,-0.2790089898785645,0.0
3258,-0.05404213393451857,0.0
3259,-0.024930114408991944,0.0
3260,-0.08469535344140036,0.0
3261,0.10022283910421925,0.0
3262,-0.16064155175489958,0.0
3263,-0.12079580695375094,0.0
3264,-0.05648876645543914,0.0
3265,-0.08484738384413218,0.0
3266,0.02234597888509233,0.0
3267,1.5885929949676791,0.0
3268,6.798700664592432,0.0
3269,-0.11399453879860638,0.0
3270,-1.1236377010874588,0.0
3271,0.8023633079182108,0.0
3272,-0.468933933194576,0.0
3273,0.06961795616241462,0.0
3274,-0.023192458857901513,0.0
3275,-0.047964418486164416,0.0
3276,-0.039982723740615844,0.0
3277,-0.13215391938447382,0.0
3278,-0.0972502094704604,0.0
3279,-0.0893671371367786,0.0
3280,-0.024532793433920227,0.0
3281,-0.05412026898072548,0.0
3282,-0.038340621705531444,0.0
3283,0.08233267038389619,0.0
3284,3.3042597953099087,0.0
3285,6.329734450153457,0.0
3286,-2.7039032146070645,0.0
3287,0.9505717881530453,0.0
3288,-0.34461026953404905,0.0
3289,0.0208304508497804,0.0
3290,-0.10636797043901286,0.0
3291,-0.03817057240404967,0.0
3292,-0.09566494007183911,0.0
3293,-0.029164217983444807,0.0
3294,-0.04956808939572377,0.0
3295,-0.07705301856251098,0.0
3296,-0.09159250185754864,0.0
3297,-0.12007829156230251,0.0
3298,-0.1143497944920743,0.0
3299,0.01755561727472174,0.0
3300,0.36537417853489623,0.0
3301,5.35955504257502,0.0
3302,3.4606826526280727,0.0
3303,-2.835266871781151,0.0
3304,1.5126100565664828,0.0
3305,-0.9038104133871384,0.0
3306,0.3084888688102245,0.0
3307,-0.2199324394331903,0.0
3308,-0.004528812689082493,0.0
3309,-0.050999777203016176,0.0
3310,-0.09901685268453254,0.0
3311,-0.07207720709771813,0.0
3312,-0.09295381089381678,0.0
3313,-0.046801542250019014,0.0
3314,-0.023215721161993365,0.0
3315,-0.09659978485412704,0.0
3316,-0.03455904439778903,0.0
3317,1.480060647248617,0.0
3318,6.916139223761477,0.0
3319,-0.05998560981219622,0.0
3320,-1.1460176000070208,0.0
3321,0.8089573896227262,0.0
3322,-0.48380381790686705,0.0
3323,0.13766195633548256,0.0
3324,-0.06143703590856962,0.0
3325,-0.08005466128055538,0.0
3326,-0.0014101030475347984,0.0
3327,-0.06703654138234397,0.0
3328,-0.04353325654152588,0.0
3329,-0.033266442807405386,0.0
3330,-0.050223627365218355,0.0
3331,0.054502927785990474,0.0
3332,-0.11798296146479115,0.0
3333,-0.0845705148103224,0.0
3334,3.2966988377131896,0.0
3335,6.260477029551134,0.0
3336,-2.7217990350882038,0.0
3337,0.9309702595350844,0.0
3338,-0.39873642664140524,0.0
3339,0.07569612590823799,0.0
3340,-0.03751277615483428,0.0
3341,0.002893053081242644,0.0
3342,-0.11886545029346834,0.0
3343,-0.10788803343329888,0.0
3344,-0.13174022159247456,0.0
3345,-0.10308250927382474,0.0
3346,-0.014150834954427288,0.0
3347,-0.05316057170184465,0.0
3348,-0.0573737115317872,0.0
3349,-0.10232124324415837,0.0
3350,0.42360649894765673,0.0
3351,5.504324775692868,0.0
3352,3.500914666122398,0.0
3353,-2.735260346684733,0.0
3354,1.5667852439338055,0.0
3355,-0.8087393634786466,0.0
3356,0.22567879483711023,0.0
3357,-0.19158727206923432,0.0
3358,0.017149456331093067,0.0
3359,-0.06157617269211236,0.0
3360,0.01687443808126151,0.0
3361,-0.10236960069964939,0.0
3362,-0.10049534323821277,0.0
3363,-0.019905349180656368,0.0
3364,0.002525338421824369,0.0
3365,-0.10001954093180529,0.0
3366,-0.00831710511662704,0.0
3367,1.524600291995603,0.0
3368,6.799606578832945,0.0
3369,-0.16240356237073425,0.0
3370,-1.075336583985799,0.0
3371,0.804501319742719,0.0
3372,-0.40148238862200913,0.0
3373,0.05767024336171227,0.0
3374,-0.15494505004339582,0.0
3375,-0.033408776865074936,0.0
3376,-0.036675048097278944,0.0
3377,-0.18023688684807757,0.0
3378,-0.03808347258389557,0.0
3379,-0.08362174457676777,0.0
3380,-0.05828087226561595,0.0
3381,0.02350943291069512,0.0
3382,-0.002532344549972157,0.0
3383,0.02818442322267516,0.0
3384,3.302756198732953,0.0
3385,6.277511832909157,0.0
3386,-2.6889238996649927,0.0
3387,1.0221194815833827,0.0
3388,-0.3445270409922154,0.0
3389,0.14608501465281407,0.0
3390,-0.0761082620766158,0.0
3391,-0.04945263746808944,0.0
3392,-0.0007908396962726522,0.0
3393,-0.1020385676989664,0.0
3394,-0.02865550509847617,0.0
3395,-0.029104081302605216,0.0
3396,-0.010789533858813302,0.0
3397,-0.03777698951575217,0.0
3398,-0.009221578434574836,0.0
3399,-0.08794857279808993,0.0
3400,0.5017085019290448,0.0
3401,5.405565719589221,0.0
3402,3.5159868865616426,0.0
3403,-2.7690423145898384,0.0
3404,1.4932750279016398,0.0
3405,-0.8006953893061959,0.0
3406,0.288258796611656,0.0
3407,-0.18504524328697713,0.0
3408,-0.04971179064210218,0.0
3409,-0.06683354996094162,0.0
3410,-0.0809894897527583,0.0
3411,-0.024544689826560932,0.0
3412,-0.01396470346549897,0.0
3413,-0.012911199691694119,0.0
3414,-0.06796014210778159,0.0
3415,-0.028460511476649263,0.0
3416,-0.005247941417775629,0.0
3417,1.5413068605486924,0.0
3418,6.948780383257467,0.0
3419,-0.19564891035365806,0.0
3420,-1.0243755881261674,0.0
3421,0.7224780001717561,0.0
3422,-0.46795813879495335,0.0
3423,0.1781062795950296,0.0
3424,-0.1741624060083795,0.0
3425,0.047061984970434054,0.0
3426,0.06705428620373978,0.0
3427,0.018103238999388843,0.0
3428,0.0001224860022498997,0.0
3429,0.10603174858797138,0.0
3430,-0.014403598540555933,0.0
3431,0.04659553809363473,0.0
3432,0.061644778588900065,0.0
3433,0.160569920274243,0.0
3434,3.3838375344723777,0.0
3435,6.2856638324746195,0.0
3436,-2.6494321142449953,0.0
3437,0.9921398682254753,0.0
3438,-0.3676814401701998,0.0
3439,0.11431184056151006,0.0
3440,-0.08230563290119446,0.0
3441,-0.09712350113010913,0.0
3442,-0.07344760400127413,0.0
3443,-0.2050745542968056,0.0
3444,-0.014643064433807237,0.0
3445,-0.09520655090119437,0.0
3446,-0.12147024718902337,0.0
3447,-0.10366894380303797,0.0
3448,-0.037238953978912734,0.0
3449,-0.06508787999349572,0.0
3450,0.4033901066212096,0.0
3451,5.453313985076109,0.0
3452,3.468066022976996,0.0
3453,-2.7450646115577007,0.0
3454,1.5043784748501656,0.0
3455,-0.8491711233935226,0.0
3456,0.31799082628897757,0.0
3457,-0.06941180522707358,0.0
3458,0.11979400244361124,0.0
3459,0.02360117727052546,0.0
3460,0.007436568928568367,0.0
3461,0.0009131285927540846,0.0
3462,-0.009665529954874248,0.0
3463,-0.011318745892509204,0.0
3464,0.041874251024163034,0.0
3465,-0.03015400561381021,0.0
3466,0.057960635111620466,0.0
3467,1.6001124905165791,0.0
3468,6.905535214851739,0.0
3469,-0.08716106059185716,0.0
3470,-0.9850602885588019,0.0
3471,0.8473515393681882,0.0
3472,-0.49697416726226507,0.0
3473,0.22932647728098304,0.0
3474,-0.02326603890707854,0.0
3475,-0.0776613677214043,0.0
3476,0.026683647520974466,0.0
3477,0.034088435776521306,0.0
3478,-0.03926036581891616,0.0
3479,0.04313833499912949,0.0
3480,0.024164684524759592,0.0
3481,-0.045389585789144114,0.0
3482,0.048680637218029225,0.0
3483,0.11606468751809701,0.0
3484,3.3176200626625514,0.0
3485,6.211095915941795,0.0
3486,-2.767031299241851,0.0
3487,0.9329072669199523,0.0
3488,-0.4042513438814165,0.0
3489,0.09462122599328594,0.0
3490,-0.07466371038043049,0.0
3491,0.020516058799970222,0.0
3492,-0.04152235660399679,0.0
3493,-0.009678137385699226,0.0
3494,0.038783860060654866,0.0
3495,-0.06373860781001496,0.0
3496,0.04060902336774305,0.0
3497,0.03041933907329551,0.0
3498,0.0034916776290922166,0.0
3499,0.09713953821390144,0.0
3500,0.5080639235336475,0.0
3501,5.583213632440735,0.0
3502,3.5439117215929343,0.0
3503,-2.749810622900868,0.0
3504,1.6533050913656175,0.0
3505,-0.7661424066576906,0.0
3506,0.38964404475963843,0.0
3507,-0.12268451897200194,0.0
3508,-0.05922498004061112,0.0
3509,0.01686673590054484,0.0
3510,0.05170216182280442,0.0
3511,-0.12565814394873842,0.0
3512,-0.0653529220567106,0.0
3513,-0.12269487271672422,0.0
3514,-0.10863599002964348,0.0
3515,-0.04824688770834644,0.0
3516,-0.0424305318150702,0.0
3517,1.513527684486536,0.0
3518,6.893736854173254,0.0
3519,-0.1915575280986978,0.0
3520,-1.0813033566974262,0.0
3521,0.7865442825750089,0.0
3522,-0.5148565811426313,0.0
3523,0.1446622286682273,0.0
3524,-0.20479944711317932,0.0
3525,-0.030232303203291597,0.0
3526,-0.08362281483605999,0.0
3527,-0.09338910149061916,0.0
3528,-0.05649355517452935,0.0
3529,-0.023854627576218007,0.0
3530,-0.06927618563454947,0.0
3531,-0.08698445140472917,0.0
3532,-0.11216055330520633,0.0
3533,0.07999735318063625,0.0
3534,3.318985664216487,0.0
3535,6.201904079279533,0.0
3536,-2.8459213825254097,0.0
3537,0.9101953505482235,0.0
3538,-0.40120333263544583,0.0
3539,0.11586881098169029,0.0
3540,-0.1533061781685581,0.0
3541,-0.035310701301653355,0.0
3542,-0.09389691219474587,0.0
3543,-0.018410230087425185,0.0
3544,-0.017761605031573577,0.0
3545,-0.05169874247450206,0.0
3546,-0.08937466377855344,0.0
3547,0.02981197903744419,0.0
3548,-0.10621185046908088,0.0
3549,-0.05893965030515071,0.0
3550,0.42656581458105863,0.0
3551,5.49713679520565,0.0
3552,3.4474233667848857,0.0
3553,-2.7312978698089485,0.0
3554,1.517176463432914,0.0
3555,-0.7154115952658991,0.0
3556,0.2953998531288663,0.0
3557,-0.14686956376617738,0.0
3558,-0.020216601369500358,0.0
3559,0.002965974399670508,0.0
3560,-0.040370297639782934,0.0
3561,-0.01990928823538579,0.0
3562,-0.08439588633586095,0.0
3563,0.01431250778058623,0.0
3564,-0.10384892641773094,0.0
3565,-0.08867784772068046,0.0
3566,-0.09034189296345489,0.0
3567,1.51111487348008,0.0
3568,6.970020318241054,0.0
3569,-0.1513863511495885,0.0
3570,-0.9766583585320674,0.0
3571,0.7781764084164764,0.0
3572,-0.40683701671168154,0.0
3573,0.13454385582503559,0.0
3574,0.009259646286487427,0.0
3575,0.04174233278193509,0.0
3576,-0.0050777000262591234,0.0
3577,-0.005698107404718657,0.0
3578,0.019475032587075097,0.0
3579,-0.011902472744782308,0.0
3580,0.0556664199142579,0.0
3581,-0.02412426212840312,0.0
3582,0.03668328240973667,0.0
3583,0.06956837645652426,0.0
3584,3.3785111398773537,0.0
3585,6.211184323939572,0.0
3586,-2.7268629571041556,0.0
3587,0.9709703944563061,0.0
3588,-0.29779126603952377,0.0
3589,0.057690186101567426,0.0
3590,-0.05779343999321574,0.0
3591,-0.05760548835507692,0.0
3592,0.005934630975544336,0.0
3593,-0.09015346899833078,0.0
3594,-0.015174491130825696,0.0
3595,-0.08339396554408787,0.0
3596,0.04142818955376342,0.0
3597,-0.06888964685438756,0.0
3598,-0.05522249542474479,0.0
3599,-0.09580454253531737,0.0
3600,0.44966147126099626,0.0
3601,5.507664351747969,0.0
3602,3.401860570096971,0.0
3603,-2.816540527795486,0.0
3604,1.5981169285160242,0.0
3605,-0.850650183454414,0.0
3606,0.24802048435939866,0.0
3607,-0.22376755174051915,0.0
3608,-0.08113851370784772,0.0
3609,0.015428371633077101,0.0
3610,0.031431025463939846,0.0
3611,-0.07435220686539061,0.0
3612,0.033833783238414517,0.0
3613,-0.10624971761809338,0.0
3614,0.032790486237708055,0.0
3615,0.020893028382315874,0.0
3616,-0.09517626182659376,0.0
3617,1.582526976799257,0.0
3618,6.933161935492126,0.0
3619,-0.19573390062949197,0.0
3620,-0.9040513116309614,0.0
3621,0.7608354415331356,0.0
3622,-0.2422844005958155,0.0
3623,0.17843546512700115,0.0
3624,-0.0536035295228893,0.0
3625,0.08813806595294872,0.0
3626,0.07592803730087495,0.0
3627,0.03458122548641856,0.0
3628,0.02038384239777591,0.0
3629,0.0702054539574203,0.0
3630,-0.006772782990836793,0.0
3631,0.015266418463421057,0.0
3632,0.0626045634994528,0.0
3633,0.03436794345122743,0.0
3634,3.4645461930212864,0.0
3635,6.177560445058734,0.0
3636,-2.7548781671498994,0.0
3637,1.0027345373808911,0.0
3638,-0.3426709899433464,0.0
3639,0.051819291535413016,0.0
3640,-0.06506768408140484,0.0
3641,-0.0014097759482699784,0.0
3642,0.03733401033568519,0.0
3643,-0.01180550980775996,0.0
3644,0.025791663206689897,0.0
3645,-0.016212676301668495,0.0
3646,-0.07350529616771251,0.0
3647,-0.13758404045008818,0.0
3648,-0.024182309499503386,0.0
3649,-0.026772319217228675,0.0
3650,0.560427559102125,0.0
3651,5.632196182912674,0.0
3652,3.4197471210046717,0.0
3653,-2.6297937005415637,0.0
3654,1.6525721073314856,0.0
3655,-0.7499243936069517,0.0
3656,0.34059284770423914,0.0
3657,-0.09846274994498655,0.0
3658,0.05325181872723085,0.0
3659,0.08657420801850095,0.0
3660,-0.026216867338480405,0.0
3661,0.09182733716898372,0.0
3662,0.023828660453482784,0.0
3663,-0.050391178560863545,0.0
3664,0.08710918580171648,0.0
3665,-0.03370684017532197,0.0
3666,0.10661568008233197,0.0
3667,1.7425339071288317,0.0
3668,6.876875155171971,0.0
3669,-0.15784469716765948,0.0
3670,-0.9229800333471391,0.0
3671,0.81072816441218,0.0
3672,-0.3020897797401923,0.0
3673,0.16256177401840954,0.0
3674,-0.06066955999439845,0.0
3675,0.04652476627558451,0.0
3676,-0.04910282285132565,0.0
3677,0.06139954718444981,0.0
3678,0.01131033658147772,0.0
3679,0.002555417555217862,0.0
3680,0.044310087030655844,0.0
3681,0.09806061678344852,0.0
3682,0.09488124411044446,0.0
3683,0.07779364784522262,0.0
3684,3.5509800649449126,0.0
3685,6.183984923569107,0.0
3686,-2.68292815308872,0.0
3687,1.1002707873195883,0.0
3688,-0.31077559260929294,0.0
3689,0.25688216406332864,0.0
3690,-0.03444186623084538,0.0
3691,-0.01875456443803654,0.0
3692,0.03619756809995486,0.0
3693,0.08319827695940839,0.0
3694,0.17851995613156277,0.0
3695,0.05974113033588094,0.0
3696,0.06770222296851858,0.0
3697,0.044860026626566754,0.0
3698,0.09370515817838798,0.0
3699,0.04074788657719387,0.0
3700,0.5928153348567199,0.0
3701,5.668383486319759,0.0
3702,3.472283223371292,0.0
3703,-2.6718272586699117,0.0
3704,1.6479432651841304,0.0
3705,-0.7516665915801327,0.0
3706,0.3766913515153289,0.0
3707,-0.10795722943825904,0.0
3708,0.07785150233528683,0.0
3709,0.020891038623103677,0.0
3710,0.0203202539432411,0.0
3711,0.039208978262746934,0.0
3712,0.03669169891722119,0.0
3713,-0.06587287456112947,0.0
3714,0.06911989586167724,0.0
3715,0.0225096818349098,0.0
3716,0.04290183660743409,0.0
3717,1.7235657864144702,0.0
3718,6.986700988625278,0.0
3719,-0.2227857087699498,0.0
3720,-0.8716668673466376,0.0
3721,0.8313309181010337,0.0
3722,-0.2888702561709759,0.0
3723,0.2466518661114634,0.0
3724,0.055060562941053576,0.0
3725,-0.019424401470525404,0.0
3726,0.06782208457234554,0.0
3727,0.048999108775711286,0.0
3728,-0.023960046239734967,0.0
3729,0.03435143467343611,0.0
3730,0.0957258772829318,0.0
3731,0.07900947820487195,0.0
3732,0.06349122258237996,0.0
3733,0.06147259505180898,0.0
3734,3.484598832894489,0.0
3735,6.260563146146153,0.0
3736,-2.810575526580063,0.0
3737,1.0789164646508231,0.0
3738,-0.35870698782262916,0.0
3739,0.12654651048111565,0.0
3740,0.047795716786833704,0.0
3741,0.06705078951387368,0.0
3742,0.06065740283320423,0.0
3743,0.07297883959911972,0.0
3744,0.060858689657482444,0.0
3745,0.021769280261716505,0.0
3746,-0.004786662945736646,0.0
3747,0.12237043974352788,0.0
3748,0.07666726815224553,0.0
3749,0.05552496830079109,0.0
3750,0.5731364403903692,0.0
3751,5.5075916803239755,0.0
3752,3.3657077721873336,0.0
3753,-2.6611042124545756,0.0
3754,1.5569363705695858,0.0
3755,-0.83119204298263,0.0
3756,0.3039288070466297,0.0
3757,-0.03732457412753508,0.0
3758,0.1312351487149113,0.0
3759,-0.03286493040064828,0.0
3760,0.009527952176874993,0.0
3761,0.06665526114128917,0.0
3762,-0.00923117155327859,0.0
3763,-0.04186319340035541,0.0
3764,0.042487854945859736,0.0
3765,0.08448696255881254,0.0
3766,-0.021388193216155465,0.0
3767,1.571693390283988,0.0
3768,7.028704777581914,0.0
3769,-0.27224266194556257,0.0
3770,-0.9511136124533422,0.0
3771,0.7498263762610244,0.0
3772,-0.3349636742354324,0.0
3773,0.20054617677746167,0.0
3774,-0.04021028693070372,0.0
3775,-0.03613936477912805,0.0
3776,0.048551754120180646,0.0
3777,0.026765751579992413,0.0
3778,0.014810633268492204,0.0
3779,0.04981302425710521,0.0
3780,-0.05132145385744655,0.0
3781,0.042421042991666366,0.0
3782,0.01538512623683794,0.0
3783,0.12535049011620025,0.0
3784,3.4419541945911574,0.0
3785,6.156169390809487,0.0
3786,-2.7629747799723283,0.0
3787,1.1152427330987271,0.0
3788,-0.4011263371557307,0.0
3789,0.14395177804763046,0.0
3790,-0.06052317206809922,0.0
3791,0.025895040398200047,0.0
3792,0.04823884074284443,0.0
3793,0.04634319642084868,0.0
3794,0.013804105557966705,0.0
3795,0.02932939738478492,0.0
3796,0.05827566499473109,0.0
3797,0.08628388499567595,0.0
3798,0.01223714553515226,0.0
3799,0.09760409145300848,0.0
3800,0.6860292020250247,0.0
3801,5.618651238673388,0.0
3802,3.4691422252993256,0.0
3803,-2.601240772144162,0.0
3804,1.6979886493399792,0.0
3805,-0.6564098797396132,0.0
3806,0.3749289451960618,0.0
3807,-0.01603693768827566,0.0
3808,0.12208128085358742,0.0
3809,0.11367451701608952,0.0
3810,0.13512679492432259,0.0
3811,0.10419350609620355,0.0
3812,-0.00900647809662658,0.0
3813,0.12369686774493957,0.0
3814,0.05176901238513752,0.0
3815,0.015408564895298717,0.0
3816,0.047130432004038554,0.0
3817,1.7521554186305015,0.0
3818,6.889592984497337,0.0
3819,-0.16247074573723944,0.0
3820,-0.7909023830328409,0.0
3821,0.756122908403803,0.0
3822,-0.3076646429102097,0.0
3823,0.20007640109325883,0.0
3824,-0.015057296789555686,0.0
3825,0.13460502530806462,0.0
3826,0.022170425994778857,0.0
3827,-0.005037651780317488,0.0
3828,0.06449612171134843,0.0
3829,0.08780201984788617,0.0
3830,0.05336122218505185,0.0
3831,0.00812986803105218,0.0
3832,-0.10991175568324107,0.0
3833,0.1721447338234165,0.0
3834,3.5622176452404006,0.0
3835,6.2478342029881455,0.0
3836,-2.7414455875361265,0.0
3837,1.1282940028390163,0.0
3838,-0.36159471008977406,0.0
3839,0.24843058106965782,0.0
3840,-0.01498545946228438,0.0
3841,0.11320361193661155,0.0
3842,0.0864746657116551,0.0
3843,0.0471200359427358,0.0
3844,0.0659643227807578,0.0
3845,0.04778169566765132,0.0
3846,0.007647257288259726,0.0
3847,0.08140178271639614,0.0
3848,0.0629727541148488,0.0
3849,0.018327397003911186,0.0
3850,0.5572354420332329,0.0
3851,5.6842391353471085,0.0
3852,3.4695954666927697,0.0
3853,-2.5449867468694896,0.0
3854,1.5765112555803413,0.0
3855,-0.7830907634757377,0.0
3856,0.4224286116960232,0.0
3857,-0.10586159613866299,0.0
3858,0.0004295923451176492,0.0
3859,0.030905819786558805,0.0
3860,0.03776331724797502,0.0
3861,-0.005146919882211366,0.0
3862,0.004147245587045524,0.0
3863,0.11670743192149689,0.0
3864,0.06280169165389979,0.0
3865,0.05271323837034324,0.0
3866,0.09717986148451124,0.0
3867,1.7698241113924598,0.0
3868,6.934956449658179,0.0
3869,-0.200921012504779,0.0
3870,-0.776198476211929,0.0
3871,0.7707966096704318,0.0
3872,-0.3708881208754723,0.0
3873,0.28570388348303283,0.0
3874,-0.12692520507674254,0.0
3875,0.08701841771283833,0.0
3876,0.06797953323580398,0.0
3877,-0.011611425042286724,0.0
3878,0.04225584490079479,0.0
3879,-0.04595156190029043,0.0
3880,0.04369046725148314,0.0
3881,-0.03202271192570691,0.0
3882,0.1034660395372443,0.0
3883,0.10978644149119576,0.0
3884,3.5880770190763975,0.0
3885,6.224339401415512,0.0
3886,-2.6955445595114043,0.0
3887,1.1268496806051882,0.0
3888,-0.3534496526322247,0.0
3889,0.24062569783260726,0.0
3890,-0.0183909709986987,0.0
3891,0.08145632758926431,0.0
3892,0.08326271389130112,0.0
3893,-0.004858101502660542,0.0
3894,0.03378655356564227,0.0
3895,0.04017204974321156,0.0
3896,0.10063759363664718,0.0
3897,0.01593632509784379,0.0
3898,0.17178563822528153,0.0
3899,0.04127158109492287,0.0
3900,0.6418636379844455,0.0
3901,5.779741989661477,0.0
3902,3.414172559468234,0.0
3903,-2.5710155314934253,0.0
3904,1.5608174436326787,0.0
3905,-0.7460657035548369,0.0
3906,0.41048804523461013,0.0
3907,-0.05452106958731567,0.0
3908,0.10599341022516766,0.0
3909,0.044604754951060435,0.0
3910,-0.002361873200396568,0.0
3911,-0.020721407734567793,0.0
3912,0.073268004402318,0.0
3913,0.10985717977410371,0.0
3914,0.04218477217249729,0.0
3915,0.053825872218780116,0.0
3916,0.05615924053927288,0.0
3917,1.7413381553727376,0.0
3918,7.019246873384473,0.0
3919,-0.19674226627797478,0.0
3920,-0.795722276520873,0.0
3921,0.7963749982193944,0.0
3922,-0.27924281334845613,0.0
3923,0.2868387684566631,0.0
3924,0.07938409160806989,0.0
3925,0.14291824400467965,0.0
3926,0.06478230990619158,0.0
3927,0.06832322624122017,0.0
3928,0.04195426563498365,0.0
3929,0.0944878071980082,0.0
3930,-0.005734778372195146,0.0
3931,0.06995347262847648,0.0
3932,0.14266009761593967,0.0
3933,0.23493334774072525,0.0
3934,3.6253804494787567,0.0
3935,6.159451385874484,0.0
3936,-2.8003824493332408,0.0
3937,1.1743392753651094,0.0
3938,-0.341133894212115,0.0
3939,0.06534003758001025,0.0
3940,-0.07226324970936988,0.0
3941,0.045380247882926,0.0
3942,0.016765703128728257,0.0
3943,0.009472249089961995,0.0
3944,0.010450403322018091,0.0
3945,-0.024650205429220064,0.0
3946,0.11067567896394653,0.0
3947,0.06441886419897391,0.0
3948,-0.018545426425616664,0.0
3949,0.03820446156372244,0.0
3950,0.6430906902187566,0.0
3951,5.788243599745008,0.0
3952,3.273929648574593,0.0
3953,-2.668537598393157,0.0
3954,1.4866506914522164,0.0
3955,-0.7863320406120389,0.0
3956,0.38926142013195386,0.0
3957,-0.04615632502115938,0.0
3958,0.1306919680697078,0.0
3959,0.08642910139140161,0.0
3960,0.09384887655607499,0.0
3961,0.07525999278054787,0.0
3962,0.1101704508301995,0.0
3963,0.01141891121686428,0.0
3964,0.09704276060661671,0.0
3965,0.06968165520574136,0.0
3966,-0.05302405997558395,0.0
3967,1.716282063312677,0.0
3968,6.944339505419203,0.0
3969,-0.3069095879438905,0.0
3970,-0.8016798902438076,0.0
3971,0.7092567545081382,0.0
3972,-0.3345552294970533,0.0
3973,0.22334079747449095,0.0
3974,0.01016332417971777,0.0
3975,-0.006630250057699322,0.0
3976,0.016833566987305607,0.0
3977,-0.028601970506473895,0.0
3978,0.054867480150151623,0.0
3979,0.007014467574485844,0.0
3980,0.02373726928394285,0.0
3981,0.026667372894195632,0.0
3982,0.04740522538622103,0.0
3983,0.16675008673210154,0.0
3984,3.701701338818384,0.0
3985,6.101323191350076,0.0
3986,-2.707751847817542,0.0
3987,1.1490277428847868,0.0
3988,-0.42210493840378194,0.0
3989,0.202085885383336,0.0
3990,0.015372694280958048,0.0
3991,-0.001888872390446071,0.0
3992,0.02797716516510281,0.0
3993,-0.03108394964906095,0.0
3994,0.03943896393099544,0.0
3995,0.016114628903303473,0.0
3996,0.012347915368570534,0.0
3997,0.012473088728377733,0.0
3998,-0.04207411892410511,0.0
3999,0.0035017448034771054,0.0
4000,0.5732136715342816,0.0
4001,5.600685878477891,0.0
4002,3.2808691115788164,0.0
4003,-2.65551270073472,0.0
4004,1.6047614909295012,0.0
4005,-0.7232214063039378,0.0
4006,0.2975304922771562,0.0
4007,0.02480605815959372,0.0
4008,0.060700880851164096,0.0
4009,-0.04584183868124958,0.0
4010,-0.0377752600949913,0.0
4011,0.06399612506569444,0.0
4012,0.04229162331027221,0.0
4013,0.024674323547700713,0.0
4014,-0.030047143054153652,0.0
4015,-0.012020282894085101,0.0
4016,-0.012218694924835839,0.0
4017,1.6191175075133422,0.0
4018,7.004084699505872,0.0
4019,-0.41481791680455743,0.0
4020,-0.9154938227021946,0.0
4021,0.7033034686127778,0.0
4022,-0.44119079577232556,0.0
4023,0.2346249501316301,0.0
4024,-0.08791838093815514,0.0
4025,0.15753796163237307,0.0
4026,-0.051623007083171996,0.0
4027,0.025735013246570185,0.0
4028,-0.014240878803470854,0.0
4029,0.05136192822595072,0.0
4030,-0.015437719766374185,0.0
4031,0.03114386762175874,0.0
4032,-0.048834119653347594,0.0
4033,0.06416646727429584,0.0
4034,3.547999321632206,0.0
4035,6.16802024232778,0.0
4036,-2.7567440329742436,0.0
4037,1.1462024873475816,0.0
4038,-0.41041100256082724,0.0
4039,0.1346429635134569,0.0
4040,0.019465823745706518,0.0
4041,0.001968296958520764,0.0
4042,-0.1149032354657433,0.0
4043,-0.006861705158118167,0.0
4044,-0.07618483585063066,0.0
4045,-0.052617638888525754,0.0
4046,-0.0985520548734359,0.0
4047,-0.1644282014043656,0.0
4048,-0.09292694919613545,0.0
4049,-0.1327349277034412,0.0
4050,0.5502151698640979,0.0
4051,5.603139601334993,0.0
4052,3.25453980971709,0.0
4053,-2.695214313680739,0.0
4054,1.4647953160193004,0.0
4055,-0.7963685714459636,0.0
4056,0.36323957477788194,0.0
4057,-0.11488960534223516,0.0
4058,-0.014216207285140128,0.0
4059,0.04252367667375559,0.0
4060,-0.012436412995507969,0.0
4061,0.08189158431133711,0.0
4062,-0.03260834626065051,0.0
4063,-0.08146241625527242,0.0
4064,0.010600007500590453,0.0
4065,-0.02039157638842672,0.0
4066,0.043072925498872504,0.0
4067,1.69006888582465,0.0
4068,6.923207495833507,0.0
4069,-0.3539316562029725,0.0
4070,-0.8346425018409059,0.0
4071,0.7061203183237621,0.0
4072,-0.32527197197283403,0.0
4073,0.14479705186652184,0.0
4074,-0.07071682154893212,0.0
4075,0.10719435099294955,0.0
4076,0.04382041384601958,0.0
4077,-0.04639011084921826,0.0
4078,0.08171880168291423,0.0
4079,-0.030669263737773116,0.0
4080,-0.034920851256147946,0.0
4081,0.10185564678537484,0.0
4082,-0.0681335641235828,0.0
4083,0.12975088212393865,0.0
4084,3.563100966262304,0.0
4085,6.120782613417889,0.0
4086,-2.7975192118777774,0.0
4087,1.1338174653965232,0.0
4088,-0.3975779374479431,0.0
4089,0.06912085560868587,0.0
4090,-0.052519605818481044,0.0
4091,0.021846449090341294,0.0
4092,0.012219967858966622,0.0
4093,-0.003851017255082613,0.0
4094,0.019047469430768554,0.0
4095,-0.05108958862043284,0.0
4096,-0.08649540584300695,0.0
4097,-0.018696276472887678,0.0
4098,-0.015367153283568717,0.0
4099,-0.0202346870453066,0.0
4100,0.5606057166247482,0.0
4101,5.650835830207961,0.0
4102,3.289386933333257,0.0
4103,-2.6136503558523922,0.0
4104,1.5340978337196536,0.0
4105,-0.7724082205837359,0.0
4106,0.20227282978951955,0.0
4107,-0.09859305563585118,0.0
4108,0.001962311062283579,0.0
4109,-0.0447354530956324,0.0
4110,-0.037362823823548975,0.0
4111,-0.06094259218052829,0.0
4112,0.01691611438201773,0.0
4113,-0.0016945812539999991,0.0
4114,-0.12188741487320494,0.0
4115,-0.026027160588269056,0.0
4116,-0.04801434951560104,0.0
4117,1.6286234138156979,0.0
4118,6.927578134651129,0.0
4119,-0.43413276717340177,0.0
4120,-0.7847221748030102,0.0
4121,0.6781970466047266,0.0
4122,-0.42578277282461297,0.0
4123,0.18043414646551267,0.0
4124,-0.0448199586639432,0.0
4125,0.0347092209574017,0.0
4126,-0.0033741871638702896,0.0
4127,-0.007275851232036363,0.0
4128,-0.02224797012701885,0.0
4129,-0.07575857311653811,0.0
4130,-0.04343139015013952,0.0
4131,-0.007882143743316142,0.0
4132,0.048340493148832014,0.0
4133,0.09962795137046661,0.0
4134,3.525504196676696,0.0
4135,6.025366358569383,0.0
4136,-2.808359103020023,0.0
4137,1.0688432974383726,0.0
4138,-0.38928851067116793,0.0
4139,0.1254209801768375,0.0
4140,0.008885790377458416,0.0
4141,-0.027190871084783467,0.0
4142,0.0747668425287617,0.0
4143,0.03397010869739924,0.0
4144,-0.1189392780242708,0.0
4145,-0.04864771013313471,0.0
4146,0.04196685166796847,0.0
4147,0.05237809326972381,0.0
4148,-0.06765764382581049,0.0
4149,-0.048486389342505175,0.0
