timestamp,value-0,is_anomaly
0,0.2777736200673632,0
1,3.552986309246336,0
2,6.87501746120812,0
3,-0.24961674680410412,0
4,-1.9775671439974656,0
5,1.5697429822275537,0
6,-0.6756848718647837,0
7,0.12686870520823315,0
8,0.04455849047709898,0
9,-0.06711552342535017,0
10,-0.09341023180176705,0
11,0.012130530924283255,0
12,-0.07151293479837602,0
13,-0.06945434499853786,0
14,0.04052569333681122,0
15,-0.016012571395567776,0
16,0.057174236119240406,0
17,0.08276572908986202,0
18,-0.04316861366882724,0
19,0.029496161944912416,0
20,0.3677367143850389,0
21,3.5424054512445737,0
22,6.8759438869787735,0
23,-0.2868427580021354,0
24,-1.9489221538117953,0
25,1.6385680516895649,0
26,-0.714108674762604,0
27,0.193259585153444,0
28,0.044555753346136553,0
29,0.037515804014875996,0
30,-0.018048266249782258,0
31,-0.07639022872776104,0
32,0.04000703568320435,0
33,-0.026188054122761237,0
34,-0.008225950850639173,0
35,-0.03854965853312362,0
36,-0.06346147063377815,0
37,0.09801235277255166,0
38,-0.04758792255067916,0
39,-0.05057054689602267,0
40,0.19388118776976188,0
41,3.435112307132444,0
42,6.812644403921853,0
43,-0.24676848585437794,0
44,-1.9426378536342617,0
45,1.5220119428537484,0
46,-0.701094183618628,0
47,0.16918398805848855,0
48,0.029387474883177576,0
49,-0.1326313873487685,0
50,-0.10023394110135032,0
51,-0.026072340876532367,0
52,0.14721591637321546,0
53,0.06278987572239418,0
54,-0.048779105513519674,0
55,0.04749804342659364,0
56,-0.06347829876689123,0
57,-0.023507499197398488,0
58,0.06545800746895494,0
59,-0.02070793692469364,0
60,0.2571922105201858,0
61,3.4546193338823286,0
62,6.82139981617096,0
63,-0.2840935728370698,0
64,-1.8910291503194037,0
65,1.480707197392146,0
66,-0.7068395836501932,0
67,0.06558635957939941,0
68,-0.08289305982732076,0
69,-0.09834298010367917,0
70,0.010952366381378278,0
71,-0.009124374752060372,0
72,-0.0026496161046486045,0
73,-0.025193321482154623,0
74,0.01369368814751473,0
75,0.03872851000529222,0
76,-0.059653274647100414,0
77,-0.012208780214168376,0
78,0.012393135065492196,0
79,0.04336841241427719,0
80,0.18653942154650457,0
81,3.497055936124812,0
82,6.926042428763157,0
83,-0.16909566374840196,0
84,-2.005226806244523,0
85,1.465587453615512,0
86,-0.7290046746161668,0
87,0.08684165889162139,0
88,0.016886820355187647,0
89,-0.102125284424233,0
90,-0.026772042797527613,0
91,-0.015106183022821889,0
92,-0.010925769063993604,0
93,-0.07959224379045937,0
94,-0.003319455977846837,0
95,0.0227303066889395,0
96,0.026991158243215782,0
97,-0.06825278291484763,0
98,0.09156772183965972,0
99,0.05318860553511583,0
100,0.3253985310472951,0
101,3.4988351109037077,0
102,6.85177129016767,0
103,-0.3197610310522559,0
104,-1.9530973339154327,0
105,1.5005607713123188,0
106,-0.6135197827175696,0
107,0.13990753239538065,0
108,-0.09394236246724844,0
109,-0.20004002895972894,0
110,-0.005786040242086897,0
111,-0.018297317272225826,0
112,0.03613572249034967,0
113,0.009530964994319695,0
114,-0.05131312271244709,0
115,-0.034989361548872014,0
116,-0.03064460847586404,0
117,-0.0005710200996008746,0
118,-0.07243055352468457,0
119,-0.09519551100185171,0
120,0.2039363985800356,0
121,3.4891585236209215,0
122,6.8750686107090155,0
123,-0.2274886270406996,0
124,-1.9490977273834587,0
125,1.559538917117634,0
126,-0.6573706666521634,0
127,0.1325193490869189,0
128,-0.00027820087173002425,0
129,-0.07765091141888185,0
130,-0.017029091471760047,0
131,0.06399091259424525,0
132,-0.04657720663161172,0
133,-0.09771427115664792,0
134,-0.016987565334289276,0
135,0.0003737858438792527,0
136,0.04816794768645709,0
137,-0.025369752111989306,0
138,0.024909691700262252,0
139,0.04496046855124096,0
140,0.23513515591921583,0
141,3.4608345837083885,0
142,7.02573692651364,0
143,-0.28762199227102914,0
144,-1.9790988273671586,0
145,1.515608551432587,0
146,-0.7026729877850539,0
147,0.08180791653067573,0
148,-0.040898823147666366,0
149,-0.034025338264831964,0
150,0.0035686660788503285,0
151,-0.09966813667146528,0
152,0.03613128023802,0
153,-0.09105999338713588,0
154,-0.00225116490511128,0
155,-0.0007206068236680803,0
156,-0.08690743061590463,0
157,0.0379097048470122,0
158,0.0796695687744749,0
159,0.012694911098972689,0
160,0.3322373032122982,0
161,3.63336733757169,0
162,6.877100235794701,0
163,-0.2132402614670362,0
164,-1.9005279285775847,0
165,1.4720708335302484,0
166,-0.7970863924213061,0
167,0.1257751190351302,0
168,-0.027721856675039572,0
169,-0.039451027028060526,0
170,-0.06298289231216402,0
171,-0.048227460758687724,0
172,0.05728319767050408,0
173,-0.005623221761066246,0
174,-0.09580341930136735,0
175,0.01787428352930196,0
176,-0.05441375023108784,0
177,-0.06877614589615103,0
178,-0.0049456944661713555,0
179,0.007301279286729603,0
180,0.24507582433127278,0
181,3.5580312298458354,0
182,6.796774564627207,0
183,-0.4198741066346959,0
184,-1.9502087025678216,0
185,1.6011372590709145,0
186,-0.8355511157196021,0
187,0.10988674751039737,0
188,-0.02782767903214025,0
189,0.0004151404765907127,0
190,0.1130492610524336,0
191,0.05475386324083063,0
192,0.022982944476080375,0
193,0.038888548208367,0
194,-0.07754420124737063,0
195,-0.015669952339184372,0
196,0.02879249669071696,0
197,0.12347627298244186,0
198,-0.003573554864810015,0
199,0.02483395947251272,0
200,0.2998895061201677,0
201,3.5231662314211545,0
202,6.817961215570506,0
203,-0.3109120034913673,0
204,-1.88186583201989,0
205,1.4872529060070712,0
206,-0.7387457921616354,0
207,0.13711651293047514,0
208,-0.04809341897389021,0
209,-0.022156585125031034,0
210,0.019284547489252443,0
211,0.05291355727117626,0
212,0.06644287890234443,0
213,0.08353400059366052,0
214,0.027267198466324763,0
215,0.003969093342177987,0
216,0.017080985695287515,0
217,0.11352566402578038,0
218,0.043925579595837386,0
219,-0.027145063852302975,0
220,0.30382649178042653,0
221,3.556565131923032,0
222,6.917627517914664,0
223,-0.3199295398719512,0
224,-1.931272692927051,0
225,1.5343043147850242,0
226,-0.7483158777311282,0
227,0.04923329547699132,0
228,-0.027610946871645486,0
229,-0.0837597139325895,0
230,-0.038599827346624295,0
231,0.013917675947851427,0
232,-0.057081849598790285,0
233,0.0043667549397959585,0
234,0.06441105089063823,0
235,-0.03443772991880425,0
236,-0.0469987111722994,0
237,-0.0013896999811179814,0
238,0.10623812029771798,0
239,0.0971524565301991,0
240,0.34991696062270905,0
241,3.593487467891305,0
242,6.999892763930346,0
243,-0.2468500233868821,0
244,-1.8872933919475676,0
245,1.5604249186549097,0
246,-0.7323389415849795,0
247,0.09594951917852722,0
248,0.04425590692445376,0
249,-0.016022109865851814,0
250,0.07307395532348804,0
251,0.002924104305816945,0
252,-0.01419046208143358,0
253,0.039673906383720786,0
254,-0.0935530422519893,0
255,0.08163146815590948,0
256,0.0003445109076649122,0
257,-0.06097275667163747,0
258,-0.002018830485743867,0
259,-0.11094391309533998,0
260,1.253052161707964,1
261,4.509293093806693,1
262,7.860897818610094,1
263,0.6915306369109027,1
264,-0.8676701034602661,1
265,2.577552591006194,1
266,0.2741033820201408,1
267,1.043569454109738,1
268,1.1078570555635026,1
269,0.9489485640255718,1
270,1.1807194538772747,1
271,1.1032928717320336,1
272,1.0549202182118285,1
273,1.0259673235520907,1
274,0.999071117445186,1
275,1.051004919078097,1
276,1.0343790140544342,1
277,0.9686077579768743,1
278,1.1115106017376637,1
279,1.0629810219970544,1
280,1.2871947853883003,1
281,4.521447872211602,1
282,7.851484637179571,1
283,0.7487132121487158,1
284,-0.8622858335910266,1
285,2.5118962289954645,1
286,0.3834645308360359,1
287,1.2407544157272048,1
288,1.0823854632764183,1
289,0.9689911659587481,1
290,1.1127781734274258,1
291,1.0753802911368713,1
292,1.1062628701772517,1
293,1.079671525269826,1
294,1.0689549027641698,1
295,1.0435455198127819,1
296,1.0079586742825035,1
297,1.1377322485936299,1
298,1.079708092914177,1
299,1.1015986529228734,1
300,1.3311038803646826,1
301,4.696204144869144,1
302,7.978955397051283,1
303,0.7892720703272986,1
304,-0.808058003338121,1
305,2.5536080714944758,1
306,0.40249042832726994,1
307,1.2418507813367394,1
308,1.0822705341645475,1
309,1.0056997898581916,1
310,0.9937583704151118,1
311,1.0756634825161955,1
312,1.0014839832503708,1
313,0.9917821012176619,1
314,0.9935463193054237,1
315,1.0180487743083937,1
316,1.083120338074755,1
317,1.0317986095530693,1
318,1.0006925258400186,1
319,1.0013298006765785,1
320,1.2342813828420638,1
321,4.573873790749763,1
322,7.941204830262096,1
323,0.6614309060097471,1
324,-0.9070890088105084,1
325,2.5956411084541355,1
326,0.3027391007368295,1
327,1.1825561709562158,1
328,1.179858902614069,1
329,0.9324685911192564,1
330,1.0561724120688707,1
331,0.9239046934327109,1
332,0.9906361375642717,1
333,1.1070867375022502,1
334,1.0377609782714348,1
335,0.9468275775304578,1
336,0.9941550297708664,1
337,1.0416910067473684,1
338,0.996959620789729,1
339,0.977858202626633,1
340,1.2190242931990898,1
341,4.477097177398212,1
342,7.889357374866167,1
343,0.6236237705351227,1
344,-0.942899262888213,1
345,2.515680302956742,1
346,0.31205180292288276,1
347,1.0865407461787584,1
348,1.040511104164037,1
349,0.9666609083002363,1
350,1.0582536649778007,1
351,0.94887066772908,1
352,1.0547811798112068,1
353,1.004064177915327,1
354,0.9948817769530945,1
355,0.9960084856618125,1
356,0.9569403690550236,1
357,1.086055808205538,1
358,1.0456164849429244,1
359,0.9931366322624741,1
360,0.21976109077965933,0
361,3.6099697164463493,0
362,6.902706312591507,0
363,-0.30026873619074873,0
364,-1.875161099326535,0
365,1.557955356936059,0
366,-0.7701125678141056,0
367,0.2329131577619643,0
368,0.045710600701191456,0
369,-0.006509201851178022,0
370,-0.07839694191936933,0
371,-0.014833816035526054,0
372,-0.018174237784684535,0
373,0.07685180877639358,0
374,0.05974154036281921,0
375,-0.08750101202976468,0
376,0.039815292868191,0
377,0.13037812239098442,0
378,0.047033820081456165,0
379,0.15787690538531396,0
380,0.26654584478890503,1
381,1.9410542360247274,1
382,3.7705048904975302,1
383,5.487922510962783,1
384,6.042080705951602,1
385,2.3924650090820716,1
386,-0.6090800872201965,1
387,-1.375378502252691,1
388,-1.1516951344337667,1
389,0.6577516552112701,1
390,0.9758953462065182,1
391,-0.16399909693746864,1
392,-0.4778507618626379,1
393,0.01731881991571029,1
394,0.08606923608005604,1
395,0.1778241912028687,1
396,0.06862338506002377,1
397,0.00926653687188918,1
398,0.050021340551697775,1
399,-0.0009818040686759184,1
400,0.07712614435246422,1
401,0.003988532552379576,1
402,0.037299804641791154,1
403,0.03968338043659139,1
404,0.14453655693273051,1
405,0.09663467122010255,1
406,0.0882058642737239,1
407,0.06295165255185334,1
408,-0.03574716832016944,1
409,0.0054533295392714155,1
410,0.19396892077928804,1
411,3.612431993008411,1
412,6.870520186773332,1
413,-0.2719266939431285,1
414,-1.9952231484899465,1
415,1.5413945883418576,1
416,-0.7185743252756972,1
417,0.13495239716674565,1
418,-0.022830516768636594,1
419,-0.1138407080695574,1
420,-0.07973962366125799,1
421,-0.0140298258554273,1
422,-0.07708585210561886,1
423,0.11463477318585347,1
424,-0.05559816614044829,1
425,0.06072195478736506,1
426,0.013444735416748383,1
427,0.04436420240370281,1
428,-0.0020537003634651108,1
429,-0.013309851018648768,1
430,0.3706546157361249,1
431,3.632125702029863,1
432,6.922627816826546,1
433,-0.2681468647263486,1
434,-1.9331659944466204,1
435,1.4982817635000658,1
436,-0.7205525129826394,1
437,0.17501555424873225,1
438,0.1462892697817249,1
439,0.007569322833181701,1
440,0.0348097987232364,1
441,0.052811313005524024,1
442,-0.01256575356949018,1
443,0.09864233537001244,1
444,0.07771632628820228,1
445,-0.002094388715896985,1
446,0.028795112720081464,1
447,0.03270969818385041,1
448,-0.013651743698607045,1
449,0.021585298098180265,1
450,0.21245774828325306,1
451,3.561189543242961,1
452,6.895194367038588,1
453,-0.4132495391428953,1
454,-1.9793760023279026,1
455,1.5690001567083984,1
456,-0.8004181367834293,1
457,0.14549727770508475,1
458,0.0745246378164393,1
459,0.03081264130762528,1
460,0.0490549864772758,1
461,0.04563601810301024,1
462,0.042601497020092305,1
463,0.10517694496413706,1
464,0.03963400738204951,1
465,0.13022338465464,1
466,0.0009047261788283738,1
467,0.09702995372417884,1
468,0.01286364165392457,1
469,0.062882634173194,1
470,0.32797304580535785,1
471,3.6890645138847113,1
472,6.848929167881677,1
473,-0.33517700561854646,1
474,-1.8833920173048408,1
475,1.5205452799759283,1
476,-0.6891654265250935,1
477,0.18322787538319063,1
478,0.05910960648114796,1
479,-0.09881161004086582,1
480,0.2271626756636269,0
481,3.5929237602160233,0
482,6.8702662058058,0
483,-0.3452118946675138,0
484,-1.8399534451222308,0
485,1.492549539122855,0
486,-0.7672016681309739,0
487,0.15969238480377237,0
488,0.02077167552796046,0
489,-0.043157493362526715,0
490,-2.394689902802949e-05,0
491,-0.02990824245298598,0
492,0.07880043750528026,0
493,0.0807634035734088,0
494,-0.002551326832982953,0
495,0.008052135042609954,0
496,0.03624593409100255,0
497,0.076655531066202,0
498,0.016567918753416584,0
499,-0.07706463658911716,0
500,0.3005086969424376,0
501,3.602014356777265,0
502,6.851389235853434,0
503,-0.31912122974242124,0
504,-1.8845767413433026,0
505,1.4766626685884223,0
506,-0.6961269645156861,0
507,0.16252173037725973,0
508,0.1389827057676106,0
509,-0.07857974801614023,0
510,0.06226850876412559,0
511,0.06366104022294763,0
512,0.10375779058586221,0
513,0.04278288297644815,0
514,0.013020386125703932,0
515,0.07200804880620264,0
516,-0.11398306270106315,0
517,-0.06982515509811416,0
518,-0.04628627432035238,0
519,-0.03077734329250957,0
520,0.2451086055288214,0
521,3.5872251140148297,0
522,6.839025115822781,0
523,-0.41813320320635256,0
524,-1.876039526041008,0
525,1.5028046857420756,0
526,-0.652593053011604,0
527,0.12990725606422582,0
528,0.09400078992138515,0
529,-0.09254320621286018,0
530,0.08658886211636728,0
531,0.028164661372696416,0
532,0.11711527660308722,0
533,0.060371584922367764,0
534,0.09171034470011656,0
535,-0.017946938185424064,0
536,0.06241017976195778,0
537,0.01307364320003409,0
538,0.04384522596847667,0
539,-0.03512463552503397,0
540,0.3164351564660572,0
541,3.5372236693560044,0
542,6.930331649728599,0
543,-0.3530106810496515,0
544,-1.865914223053022,0
545,1.514688374173355,0
546,-0.7441373218340631,0
547,0.16702381577777448,0
548,0.0872891539676125,0
549,-0.06556770067254333,0
550,0.055538610072553805,0
551,0.11163983854211666,0
552,-0.0005215689203900324,0
553,-0.02189896227765427,0
554,0.008218985163673979,0
555,0.005595307804625518,0
556,-0.0865809299808316,0
557,-0.02548193862475049,0
558,-0.032441526293800094,0
559,0.016844382612471405,0
560,0.2666418066841082,0
561,3.555453673487211,0
562,6.836810053009145,0
563,-0.4163972423167156,0
564,-1.9409887538743775,0
565,1.4956163414428565,0
566,-0.795510143312508,0
567,0.1880616264400689,0
568,0.05932762575816378,0
569,0.004378460569383312,0
570,0.06408631336657249,0
571,-0.025168697632918832,0
572,-0.05728322325593225,0
573,0.0811851801990024,0
574,-0.05603019423547818,0
575,0.02034674209852715,0
576,0.015263778199631312,0
577,-0.005719072157746147,0
578,0.01322371590985348,0
579,0.01967426238667857,0
580,0.31489021112263293,0
581,3.5554999961660445,0
582,6.91724021789239,0
583,-0.426106971813121,0
584,-1.9609741382828734,0
585,1.5146416299240282,0
586,-0.7586352248582315,0
587,0.1126255120442251,0
588,0.05007681039633742,0
589,-0.09202337245425544,0
590,0.007964653659288851,0
591,-0.030407378271257585,0
592,0.00012096491366923867,0
593,-0.0019787787861529193,0
594,0.03618488005183919,0
595,0.08105658104360888,0
596,-0.04901912841263932,0
597,-0.130546644998801,0
598,0.009334033947176742,0
599,0.0022167646983846656,0
600,0.22929985592642566,0
601,3.5692715495924854,0
602,6.774954718644947,0
603,-0.4891001514460394,0
604,-1.7512389124851901,0
605,1.514823674148064,0
606,-0.7431938090107484,0
607,0.11221132145636413,0
608,-0.04898804544935145,0
609,-0.13431672560268687,0
610,-0.05545020441298462,0
611,-0.06558595716491017,0
612,0.05228638384187261,0
613,-0.023060558869107975,0
614,-0.026463912040725172,0
615,-0.06453696514752379,0
616,-0.008274521821261191,0
617,-0.07389407611220175,0
618,-0.11831514044381974,0
619,-0.13352143327581717,0
620,0.10528168706587855,0
621,3.514609145793451,0
622,6.83164499354503,0
623,-0.5048386988802794,0
624,-1.9427941755282054,0
625,1.4949446631467802,0
626,-0.804763037433997,0
627,0.15493950895128125,0
628,0.05534659231038182,0
629,-0.03871799610240653,0
630,-0.04118285096806167,0
631,0.03886769562564432,0
632,0.09079785924684644,0
633,0.04769199928124937,0
634,-0.07339682768324979,0
635,-0.02655889844123414,0
636,-0.02130389096756581,0
637,0.07351561962703679,0
638,0.026958482018682034,0
639,-0.0028411822977395113,0
640,0.2749446817528855,0
641,3.5743064854415167,0
642,6.766083845126899,0
643,-0.4891816789731487,0
644,-1.8442498284521036,0
645,1.4983741800539072,0
646,-0.8531071028878531,0
647,0.13887156014357574,0
648,0.027654900518743298,0
649,-0.039980970206874744,0
650,-0.10668784124969624,0
651,-0.0028305156442995074,0
652,-0.03342795999212012,0
653,0.05276040847180417,0
654,0.003971459953892458,0
655,-0.04518053517102308,0
656,0.07006636959790502,0
657,0.022736338315614404,0
658,0.1489575486392803,0
659,0.052509577788288644,0
660,0.24347777584640984,0
661,3.608096444816585,0
662,6.911405637354239,0
663,-0.3333113565419256,0
664,-1.8245307931055266,0
665,1.627141244719464,0
666,-0.6650686801750232,0
667,0.19773603455506783,0
668,0.043141529034820686,0
669,-0.06335397184949587,0
670,0.04031077605499551,0
671,-0.007470668980795332,0
672,-0.0019382646938632866,0
673,0.06943702103118403,0
674,0.00335085871908715,0
675,-0.08826259652723338,0
676,-0.08619249136481114,0
677,0.05126115604989274,0
678,-0.08136019459838373,0
679,0.03834376060710428,0
680,0.32931984143784687,0
681,3.613567849253234,0
682,6.791262840408487,0
683,-0.4769189493149171,0
684,-1.795176934798857,0
685,1.5189972758356607,0
686,-0.6983217824867224,0
687,0.14829241447477962,0
688,-0.04448758738974895,0
689,0.01942013184325444,0
690,0.12823194995444664,0
691,0.019760260436707075,0
692,-0.04787922601859306,0
693,0.04400210091748265,0
694,0.03525166473336984,0
695,-0.032420882645368555,0
696,0.04593266855232208,0
697,0.020447113979609393,0
698,0.019848428438843657,0
699,-0.040030674563636744,0
700,0.3431902582841509,0
701,3.6127260445563847,0
702,6.80146747308914,0
703,-0.44887401408235844,0
704,-1.9093409438281932,0
705,1.5974395272466202,0
706,-0.7993205223145821,0
707,0.2585183968283384,0
708,0.1015850507978695,0
709,-0.05526588944140337,0
710,0.09613153351498456,0
711,0.05521925632738501,0
712,0.02979258322184939,0
713,0.03958197012247949,0
714,0.03821083780539165,0
715,0.09144010542002458,0
716,-0.00011600936402141743,0
717,0.06363595993189167,0
718,0.0626970773557335,0
719,-0.017170517584757912,0
720,0.3594976161478812,0
721,3.6908287281036896,0
722,6.760137918680303,0
723,-0.44668231374875295,0
724,-1.9021855979582696,0
725,1.514126063700254,0
726,-0.8260870762243007,0
727,0.03515586552639818,0
728,-0.03483333799999736,0
729,-0.02284679554267225,0
730,-0.0683790728031767,0
731,-0.08745574052816862,0
732,-0.04071543054884334,0
733,-0.03039856996247444,0
734,0.011164396091354369,0
735,0.027871829203095833,0
736,0.043303102057170716,0
737,-0.12351547076984333,0
738,0.026974971651863373,0
739,-0.018000257396842204,0
740,0.3136340506423486,0
741,3.640331350085104,0
742,6.936104578892831,0
743,-0.4706161823994244,0
744,-1.7726068191179574,0
745,1.6296267136991998,0
746,-0.6715397873621275,0
747,0.1554075649710072,0
748,0.09836338393799064,0
749,0.15755424013395075,0
750,0.07155414811913427,0
751,0.04335093091823873,0
752,0.07783326309353726,0
753,0.11000069250401012,0
754,0.0483461793078872,0
755,0.03620091980259922,0
756,0.05875885768896333,0
757,0.044418220613627324,0
758,0.08890867242782412,0
759,0.0034323810508670657,0
760,0.2592398297679959,0
761,3.649798943522989,0
762,6.8885175362563835,0
763,-0.43997720602994284,0
764,-1.803625037313972,0
765,1.4444109902554678,0
766,-0.7649168639593711,0
767,0.1687183142081295,0
768,0.013227497192390705,0
769,-0.004987704422572022,0
770,0.005988359592361478,0
771,0.01915800839284332,0
772,-0.0970484215253925,0
773,-0.004810243472444764,0
774,0.012708407596510447,0
775,0.031624843175921194,0
776,-0.043145381415447985,0
777,-0.054999989173950097,0
778,-0.09884033038507062,0
779,-0.030845083811775906,0
780,0.3435228203701485,0
781,3.6355403931699852,0
782,6.784405341923829,0
783,-0.5540333870330507,0
784,-1.8797228802648902,0
785,1.520410705919259,0
786,-0.7209157638049873,0
787,0.18943974090383836,0
788,0.018990875135557063,0
789,-0.05244805704685643,0
790,0.02160185007931606,0
791,-0.015073360955226569,0
792,0.07224815435799586,0
793,0.05190849256829128,0
794,-0.07244397366827665,0
795,-0.017903531396655382,0
796,0.045066548792368384,0
797,-0.02551173771292767,0
798,-0.00810175995992452,0
799,-0.08774140719320281,0
800,0.20991925585642224,0
801,3.646816161640874,0
802,6.789656147278816,0
803,-0.4329667675303791,0
804,-1.9086809299220595,0
805,1.4809005175589458,0
806,-0.6274238943345267,0
807,0.22424773789536034,0
808,-0.017887339276597164,0
809,-0.07107306557752376,0
810,-0.0016008950983379248,0
811,-0.07228220722992236,0
812,0.06273164803017232,0
813,-0.024983784614402964,0
814,-0.0657197802763836,0
815,-0.04215471492238863,0
816,-0.03909874055998101,0
817,0.017137205452066748,0
818,-0.04170014702051211,0
819,0.04857623741166839,0
820,0.3483603894139655,0
821,3.7030309080671664,0
822,6.747633303172148,0
823,-0.43027886332186704,0
824,-1.7989970776792574,0
825,1.5145365173164311,0
826,-0.6914942006944995,0
827,0.1447840681714517,0
828,-0.02219557154478782,0
829,-0.08017716939398094,0
830,0.030870904362111474,0
831,0.04782493579534237,0
832,-0.08083884408894706,0
833,0.11504084590131451,0
834,-0.04355792725307828,0
835,-0.0225260316296263,0
836,0.022539456656069427,0
837,-0.013265088416852656,0
838,-0.028191368425820276,0
839,0.02470594372393199,0
840,0.27891253825073,0
841,3.673789920470276,0
842,6.911091896568486,0
843,-0.4928971042050093,0
844,-1.770722449230432,0
845,1.4409340005214175,0
846,-0.731899583163951,0
847,0.20745233047205258,0
848,-0.03897141885533423,0
849,-0.040418088007985874,0
850,-0.04991959217253124,0
851,0.019752571293259878,0
852,0.0457258376881627,0
853,-0.03096957167458396,0
854,0.03335928712888298,0
855,-0.08067178578360716,0
856,-0.04097850875851016,0
857,0.04795409705003174,0
858,-0.014312268678948484,0
859,-0.0188975771475494,0
860,0.3332308141595268,0
861,3.6789521509184473,0
862,6.804548822182235,0
863,-0.4696002545087509,0
864,-1.8549287957249458,0
865,1.4466864068189442,0
866,-0.7635485017466644,0
867,0.1647640122984656,0
868,0.021549224476840656,0
869,-0.13028891450981062,0
870,0.13253123620760998,0
871,-0.03470795535503499,0
872,-0.07668674260046182,0
873,-0.03331049353955138,0
874,-0.006790850887027074,0
875,0.00853013411120291,0
876,-0.03056499733705812,0
877,0.062498000190222114,0
878,0.015816959420509147,0
879,0.005501802473544543,0
880,0.29339080529805667,0
881,3.6500065508374466,0
882,6.85949080188762,0
883,-0.3980236599112891,0
884,-1.8302751286427865,0
885,1.462691571906167,0
886,-0.7469983212791889,0
887,0.0691186323448228,0
888,-0.09304274050796617,0
889,-0.13776593853314123,0
890,0.02689781279640839,0
891,-0.06425145133192084,0
892,-0.023017722735493483,0
893,-0.036138758022889225,0
894,2.881441489058483e-05,0
895,-0.027590418255995446,0
896,0.034201707912259946,0
897,-0.001284463379670025,0
898,0.04435654130429606,0
899,0.05338175104925845,0
900,0.23772749732252632,0
901,3.6056589929038116,0
902,6.834744245119776,0
903,-0.502545192561232,0
904,-1.9077828354068478,0
905,1.5241905831957465,0
906,-0.6828907123481416,0
907,0.19572835607273134,0
908,0.07323211641448985,0
909,-0.020569677813699526,0
910,-0.009125371512793155,0
911,-0.02793593001889601,0
912,0.032020137253500905,0
913,-0.060225596758525415,0
914,-0.014678979680731652,0
915,-0.0028175051497082034,0
916,0.017572429229682617,0
917,-0.014969157833284707,0
918,-0.09312964464214266,0
919,-0.11770221639763541,0
920,0.20261738492940112,0
921,3.6213894707071734,0
922,6.847520088204035,0
923,-0.4353824525063661,0
924,-1.7387449625923845,0
925,1.532885865642381,0
926,-0.7665082027779475,0
927,0.23188973601286872,0
928,0.13846070994470258,0
929,0.0346918542595925,0
930,0.017337857284534477,0
931,-0.032563661750468625,0
932,0.048204365005215064,0
933,-0.0017589403337579176,0
934,0.0335057692688679,0
935,-0.015442544923002387,0
936,-0.11283248530413587,0
937,0.04906995115561734,0
938,0.04723840934001306,0
939,0.023317158840795812,0
940,0.37353580936118724,0
941,3.6371822161721035,0
942,6.850475612601416,0
943,-0.5365286771037725,0
944,-1.7531782084116305,0
945,1.531528016193957,0
946,-0.7690938745757837,0
947,0.27893932461728754,0
948,0.06566061860000191,0
949,-0.057944722096487336,0
950,0.017423956459292914,0
951,0.04763234380314573,0
952,0.0019519702867288949,0
953,-0.034930378800796066,0
954,0.12250093940195204,0
955,-0.057464330313084025,0
956,0.030903069971367204,0
957,0.08906195702499539,0
958,-0.009693307536502705,0
959,0.0057237812677376244,0
960,0.24366456974954276,0
961,3.650379290879807,0
962,6.8538322414974235,0
963,-0.5587588472991427,0
964,-1.8499198372941692,0
965,1.4955259217297991,0
966,-0.7199080076613392,0
967,0.13696571291083454,0
968,0.017661753697186467,0
969,-0.07261217027029429,0
970,0.03292470491094908,0
971,-0.08101365872493413,0
972,-0.005443193339538136,0
973,-0.048382053855423005,0
974,-0.017122901393182583,0
975,-0.06540997654347375,0
976,-0.0321553899027759,0
977,0.015655961419591972,0
978,-0.038368476379657686,0
979,0.05555890574817898,0
980,0.26464598517946897,0
981,3.669461999288586,0
982,6.773747377222208,0
983,-0.6249602700354744,0
984,-1.9103788289036134,0
985,1.4993284666368654,0
986,-0.7494173502517937,0
987,0.061283888182132276,0
988,-0.02673737775488428,0
989,-0.11102724306670395,0
990,-0.01312086864179403,0
991,-0.1588397796466182,0
992,-0.022417961831032385,0
993,-0.05955457844344077,0
994,-0.09505732731801733,0
995,-0.022396512054828857,0
996,-0.08756485519625107,0
997,-0.11757384409584601,0
998,-0.07678826738974044,0
999,-0.08301057760613623,0
1000,0.20434920346210333,0
1001,3.683196762999898,0
1002,6.763666333206385,0
1003,-0.5949546221325868,0
1004,-1.8230176030786087,0
1005,1.526631728394889,0
1006,-0.6725986448894701,0
1007,0.11489207798209984,0
1008,0.011748370214041678,0
1009,-0.03352639736449154,0
1010,-0.007874895280364523,0
1011,-0.0022416619605993594,0
1012,0.01232866147755405,0
1013,0.05273009738923775,0
1014,0.04474919478359823,0
1015,-0.0132234293151603,0
1016,-0.006767553388250633,0
1017,0.011354451750207727,0
1018,0.008678848890700828,0
1019,-0.05902474261373733,0
1020,0.2415434083694098,0
1021,3.6145573169582526,0
1022,6.739553826576136,0
1023,-0.5534314019117401,0
1024,-1.8724714746707598,0
1025,1.5122997554632929,0
1026,-0.8030279466467345,0
1027,0.1314993908132781,0
1028,-0.07819256277996167,0
1029,-0.06655098036168185,0
1030,-0.06368431072088497,0
1031,-0.07783895132626928,0
1032,0.05124740209285254,0
1033,-0.06754590374648489,0
1034,-0.02771284072808215,0
1035,-0.05939671054080238,0
1036,-0.13580356584943626,0
1037,-0.008131319782646047,0
1038,-0.0023127243623337207,0
1039,-0.005807629606582723,0
1040,0.27257725790684467,0
1041,3.6327518563516703,0
1042,6.721564788201323,0
1043,-0.6546645933912928,0
1044,-1.878167851169147,0
1045,1.5108435271292662,0
1046,-0.8213032048598419,0
1047,0.07329312883524292,0
1048,0.032130799969172036,0
1049,-0.09654998094070663,0
1050,0.10467105156109717,0
1051,0.0435226661373304,0
1052,-0.008674990712095636,0
1053,-0.07845558491809095,0
1054,-0.06751991057110632,0
1055,0.07342925836692406,0
1056,0.04563493112672748,0
1057,-0.03819763866704488,0
1058,-0.0032624018017979664,0
1059,-0.009726155719356791,0
1060,0.37705385330367563,0
1061,3.719250529083151,0
1062,6.766103402463071,0
1063,-0.5197373091232443,0
1064,-1.7461242037082954,0
1065,1.554800850565938,0
1066,-0.732805170028533,0
1067,0.08651378152080758,0
1068,-0.02618488931430786,0
1069,-0.04624570664197337,0
1070,-0.026753222824078896,0
1071,-0.053855638088037006,0
1072,-0.12282773112984052,0
1073,-0.01925698455945849,0
1074,-0.11085953272409897,0
1075,-0.017114171227554716,0
1076,-0.03095745171408175,0
1077,-0.09622273160600872,0
1078,-0.045293786684148324,0
1079,-0.04519450016657642,0
1080,0.2830236030347627,0
1081,3.6697103790776735,0
1082,6.843487770908348,0
1083,-0.5344618673961602,0
1084,-1.8188072580636196,0
1085,1.5283901167176623,0
1086,-0.6948251958535806,0
1087,0.19632585112639112,0
1088,0.03446627780436183,0
1089,-0.02177510058155155,0
1090,0.014714309023012535,0
1091,0.00378352528522468,0
1092,-0.07248570547647774,0
1093,-0.034101756023596684,0
1094,-0.018616092966401585,0
1095,-0.060322878086641066,0
1096,-0.04863331527305072,0
1097,0.019994833544388285,0
1098,0.02439568507164076,0
1099,0.06597052039787668,0
1100,0.32810697435403186,0
1101,3.7240996717062167,0
1102,6.81682295132329,0
1103,-0.583561106231916,0
1104,-1.8087227195375246,0
1105,1.4999908556927541,0
1106,-0.7941576369780466,0
1107,0.10095465152064576,0
1108,-0.04662981513369172,0
1109,-0.13690227673392538,0
1110,-0.04630664711489384,0
1111,0.04644494583003797,0
1112,-0.04048057694034919,0
1113,-0.04694451409134777,0
1114,-0.02142891470793972,0
1115,0.024235436865049004,0
1116,0.00516790854051531,0
1117,-0.03472400285842926,0
1118,0.039833104676599486,0
1119,-0.007293259283028507,0
1120,0.30358839219818196,0
1121,3.6695876153361935,0
1122,6.709941037356475,0
1123,-0.5066251039124915,0
1124,-1.745744211898927,0
1125,1.5473384698710901,0
1126,-0.7679533519275102,0
1127,0.2276827303226738,0
1128,0.04798106751231897,0
1129,0.004898216654666946,0
1130,-0.011235406318100789,0
1131,-0.03321551569250003,0
1132,0.07070697456839704,0
1133,0.04090738581079702,0
1134,0.05492110392349395,0
1135,0.057478372647837415,0
1136,0.003483335200397256,0
1137,0.035848904237806,0
1138,0.026400231009814625,0
1139,0.044275959229835,0
1140,0.32586696799588494,0
1141,3.6988695652645087,0
1142,6.773135034972102,0
1143,-0.6458955779012466,0
1144,-1.741740522996373,0
1145,1.4157502594592364,0
1146,-0.8104196971782651,0
1147,0.1861210804651121,0
1148,0.0035105528641886305,0
1149,-0.1196791872395684,0
1150,0.2059968231774904,0
1151,-0.07443532757771996,0
1152,0.07393988756158228,0
1153,0.01790387318000588,0
1154,-0.05308172091894491,0
1155,-0.01784784603570537,0
1156,-0.0960233679478729,0
1157,-0.030529837580072057,0
1158,-0.044095176639807665,0
1159,-0.016097730818524048,0
1160,0.25558200327245206,0
1161,3.7328433658238067,0
1162,6.7949927054906345,0
1163,-0.6131779014947005,0
1164,-1.7880412874255072,0
1165,1.4524240646517088,0
1166,-0.8121188241170197,0
1167,0.11069922895994838,0
1168,-0.04169946732098453,0
1169,-0.06751934359488253,0
1170,0.07347232839900995,0
1171,0.026782980876495333,0
1172,0.025230372733403852,0
1173,-0.00663268761419738,0
1174,-0.11323269074404745,0
1175,-0.007806882085134477,0
1176,-0.06677691508352894,0
1177,0.050399932937008035,0
1178,0.007454298260222813,0
1179,0.014814782036782336,0
1180,0.2789124879208135,0
1181,3.706127433067012,0
1182,6.868314006223181,0
1183,-0.5399601828713468,0
1184,-1.7869526712578585,0
1185,1.5829205371821655,0
1186,-0.7751402237961186,0
1187,0.11755161764651112,0
1188,-0.07819327582673627,0
1189,-0.048502778108779815,0
1190,-0.08774549035718915,0
1191,-0.010367323914510049,0
1192,-0.15630037263086505,0
1193,0.06505925695618825,0
1194,-0.04036212077794461,0
1195,-0.08291648675315402,0
1196,-0.08434657637636239,0
1197,-0.04160736310237684,0
1198,0.03174614695107928,0
1199,-0.02300827316004475,0
1200,0.2968181594686697,0
1201,3.6407435822597902,0
1202,6.774507344162116,0
1203,-0.6748313275911175,0
1204,-1.7517744999153848,0
1205,1.5480805932338373,0
1206,-0.7365434040933527,0
1207,0.115615059203521,0
1208,0.03025571361982082,0
1209,-0.01667273136109414,0
1210,0.0505027329135103,0
1211,0.08684700715563287,0
1212,0.04791874602222555,0
1213,0.0025512957033794184,0
1214,0.012986486674931966,0
1215,-0.05585009540925923,0
1216,0.008008679056960384,0
1217,-0.054371151990276645,0
1218,0.07043857030544988,0
1219,-0.07841299971338647,0
1220,0.1988258684449719,0
1221,3.6827865701365496,0
1222,6.836899351077636,0
1223,-0.6240750533726551,0
1224,-1.8282316515085666,0
1225,1.495265937309554,0
1226,-0.6025591426163883,0
1227,0.12791424284877084,0
1228,0.04079905715421639,0
1229,-0.045612798714105174,0
1230,0.08748080445092304,0
1231,0.035967710932704684,0
1232,0.09848961707989204,0
1233,0.018745628634081676,0
1234,0.055226121386426685,0
1235,0.06540580588086911,0
1236,3.3525045646451423e-05,0
1237,0.03031793068708745,0
1238,0.02629981630912225,0
1239,0.12454636541016492,0
1240,0.4032316935195055,0
1241,3.7057756649422924,0
1242,6.822232894843834,0
1243,-0.5498801473615575,0
1244,-1.7549685659545713,0
1245,1.5596083004694767,0
1246,-0.7805394030174446,0
1247,0.25707869828333707,0
1248,0.053301329120545256,0
1249,0.038759213848384974,0
1250,0.05851731186423639,0
1251,-0.08339394554682607,0
1252,-0.01830295220465618,0
1253,-0.009050290627135374,0
1254,0.10662965287447043,0
1255,0.06300766820669429,0
1256,0.0051873751086662905,0
1257,0.09061038525365364,0
1258,0.054043854658769805,0
1259,0.048411471859599826,0
1260,0.28981855032927073,0
1261,3.744476300062677,0
1262,6.818670060111656,0
1263,-0.6036279793540332,0
1264,-1.7019372674429303,0
1265,1.606508379992443,0
1266,-0.7656223241053144,0
1267,0.2746994088231381,0
1268,0.060665455121307124,0
1269,-0.04351131033221939,0
1270,0.10569031373432562,0
1271,0.0645008282690247,0
1272,0.00743430672742729,0
1273,-0.022375851637870304,0
1274,-0.022292409774995327,0
1275,-0.009000193244490803,0
1276,0.04523846050097319,0
1277,-0.027403930905823198,0
1278,0.035586403037902406,0
1279,0.039676722655875116,0
1280,0.34472490949277756,0
1281,3.842894393707993,0
1282,6.773208156022418,0
1283,-0.48344030612435573,0
1284,-1.5746269959448287,0
1285,1.5648476141942305,0
1286,-0.7497737327026989,0
1287,0.27736408701917603,0
1288,-0.01188292561090161,0
1289,0.014824689973314605,0
1290,0.14962761338339056,0
1291,0.019516863158420633,0
1292,0.03821951824831392,0
1293,0.026371671944408,0
1294,0.03483034814304657,0
1295,0.10852274853944999,0
1296,-0.004941869972868891,0
1297,0.062179864492100015,0
1298,0.050523688040708815,0
1299,-0.006636000127026122,0
1300,0.38796170098534044,0
1301,3.6852649560558275,0
1302,6.845894638955029,0
1303,-0.5308878400845715,0
1304,-1.7584891647574121,0
1305,1.5586802253492449,0
1306,-0.6948286809557731,0
1307,0.2385656131497252,0
1308,0.0015099220802729102,0
1309,0.11153266117541107,0
1310,0.10877862564659718,0
1311,-0.0021896602238681145,0
1312,0.09128286254200162,0
1313,-0.026347149960900526,0
1314,0.06678452792747827,0
1315,0.002025286254674432,0
1316,0.01945532936375995,0
1317,0.09311574758501893,0
1318,-0.04469994731858433,0
1319,0.05358439004434432,0
1320,0.3406505828388096,0
1321,3.706593923977091,0
1322,6.836336498916382,0
1323,-0.6351733872863271,0
1324,-1.7116363948597488,0
1325,1.539347801495134,0
1326,-0.6466540447648389,0
1327,0.23897459726130937,0
1328,0.06285329639161481,0
1329,-0.12893444576794713,0
1330,0.0971813226464524,0
1331,-0.07467281328150457,0
1332,0.024098813837233373,0
1333,-0.007898192008535324,0
1334,0.08498686941648734,0
1335,-0.009266444007691249,0
1336,0.06765001844464222,0
1337,0.048519411066094253,0
1338,-0.11304149775614299,0
1339,-0.05552914389853391,0
1340,0.328525476515803,0
1341,3.7514401004560898,0
1342,6.828661556034866,0
1343,-0.6590035578094204,0
1344,-1.7176887447940707,0
1345,1.4962573441100433,0
1346,-0.751561433335847,0
1347,0.12385978014849525,0
1348,0.026314415225235213,0
1349,0.0032757877737480123,0
1350,0.04160904206180108,0
1351,-0.01950830019295228,0
1352,-0.0026765852344087194,0
1353,0.01345274455417861,0
1354,-0.0373677810309192,0
1355,-0.06645246094756084,0
1356,0.014753926743262136,0
1357,-0.05110830383039174,0
1358,-0.01162254165572394,0
1359,-0.06584686896233527,0
1360,0.3196974879710085,0
1361,3.7391750678537345,0
1362,6.7359811172022885,0
1363,-0.6979854185957198,0
1364,-1.7873631728261559,0
1365,1.45294412320329,0
1366,-0.7267718124984315,0
1367,0.18760077672715353,0
1368,0.06163759986614394,0
1369,-0.044835751790886474,0
1370,-0.06309668770647642,0
1371,-0.08902239905944936,0
1372,0.022060064053540426,0
1373,-0.028420234045323657,0
1374,0.007329209779677064,0
1375,-0.06536833894192831,0
1376,-0.023674396681204468,0
1377,0.03358375395707176,0
1378,0.013732953101712008,0
1379,-0.04064090001410149,0
1380,0.2239801401663758,0
1381,3.7023891096609223,0
1382,6.75467639088418,0
1383,-0.6716702874799542,0
1384,-1.7959870250386698,0
1385,1.4439775209820571,0
1386,-0.799909857948445,0
1387,0.1569211336614704,0
1388,-0.0049698777010474034,0
1389,-0.06999118939270095,0
1390,-0.01312877490938674,0
1391,0.017154799638165623,0
1392,-0.043405159726013415,0
1393,-0.0003650145468457808,0
1394,-0.12802273402480877,0
1395,-0.019897032020890038,0
1396,-0.00947499652132082,0
1397,-0.02912648091445375,0
1398,0.047053291692798815,0
1399,0.10354797658266537,0
1400,0.36330297507134024,0
1401,3.77745095205847,0
1402,6.808309320018327,0
1403,-0.5739028198576701,0
1404,-1.762409239189083,0
1405,1.5128991498704465,0
1406,-0.7336551566095493,0
1407,0.16268822545310874,0
1408,0.03292770189027204,0
1409,-0.004165798402946341,0
1410,0.03525246541555527,0
1411,-0.12844702640386263,0
1412,-0.1279610183633257,0
1413,-0.09381392149988502,0
1414,0.03981972611446436,0
1415,-0.13351921238425007,0
1416,-0.09259970589117772,0
1417,-8.23726284664636e-05,0
1418,-0.052944170254766526,0
1419,-0.050507956307955695,0
1420,0.2840871453443625,0
1421,3.6986727349809767,0
1422,6.745283789569303,0
1423,-0.6370973383033314,0
1424,-1.6962838493121337,0
1425,1.4488185519617258,0
1426,-0.8231022025534738,0
1427,0.1914676772843864,0
1428,-0.017055151723603616,0
1429,-0.061503340250024276,0
1430,-0.03243729291021827,0
1431,-0.05479045066526104,0
1432,-0.020232978317183355,0
1433,-0.06940499858574568,0
1434,-0.043240300480727994,0
1435,-0.06248973812075799,0
1436,-0.10866097274603752,0
1437,0.012863454470158915,0
1438,0.03752572065392361,0
1439,-0.042741877315762664,0
1440,0.3130686357754822,0
1441,3.80705236079998,0
1442,6.783708070439976,0
1443,-0.6841766000713552,0
1444,-1.7604146473610678,0
1445,1.482871654097826,0
1446,-0.7768959089760779,0
1447,0.17581002215694713,0
1448,-0.04377621543950857,0
1449,-0.0830333181621883,0
1450,0.018284214709950092,0
1451,-0.034740119798967635,0
1452,-0.1033871854383489,0
1453,-0.04003188673416976,0
1454,-0.06775956114532228,0
1455,-0.03448519761926247,0
1456,-0.09950188415026526,0
1457,0.01833340021446571,0
1458,-0.08252871405839249,0
1459,0.023231487885823847,0
1460,0.28629762541151876,0
1461,3.757988930959398,0
1462,6.706205289074063,0
1463,-0.725393962729136,0
1464,-1.691731161153724,0
1465,1.4441140687706038,0
1466,-0.7729335036393757,0
1467,0.15860441456733196,0
1468,-0.013629975726001605,0
1469,-0.08857302641409961,0
1470,-0.03207975880164435,0
1471,-0.017594928450613726,0
1472,0.020069990104715017,0
1473,-0.05007416694624778,0
1474,0.04690379745832314,0
1475,0.019887963315366856,0
1476,-0.008416889549925883,0
1477,0.020051026756550478,0
1478,0.01640265183867568,0
1479,-0.018304508267120503,0
1480,0.31369936226772854,0
1481,3.715175374430129,0
1482,6.753625007761515,0
1483,-0.7645449020788551,0
1484,-1.7685622799672853,0
1485,1.47432915046404,0
1486,-0.7915914668958967,0
1487,0.07356768283199257,0
1488,-0.07282688269214194,0
1489,-0.05208638880372357,0
1490,0.06703165939716586,0
1491,0.05651822880550848,0
1492,-0.07811346185088755,0
1493,0.04138394673166055,0
1494,-0.06841226892156058,0
1495,-0.0907788038062256,0
1496,-0.04691107874199306,0
1497,-0.010231749096023111,0
1498,-0.13175568878210214,0
1499,-0.02945145500355422,0
1500,0.33310099844039276,0
1501,3.7382456281712892,0
1502,6.748186202906141,0
1503,-0.7974379416627982,0
1504,-1.8093613981895762,0
1505,1.4300817903173757,0
1506,-0.7246991091843094,0
1507,0.08447427437635574,0
1508,-0.07657850566508852,0
1509,-0.09194823079002812,0
1510,0.02262079827303096,0
1511,-0.07195986896225746,0
1512,0.03053887957619303,0
1513,-0.051405968289793866,0
1514,-0.11124872317235723,0
1515,0.0006854301585147993,0
1516,-0.12745596233132456,0
1517,-0.07845436879393095,0
1518,0.02915350528809063,0
1519,-0.04392096403126172,0
1520,0.186094012033846,0
1521,3.809863071444593,0
1522,6.810312224931093,0
1523,-0.6879509264256093,0
1524,-1.7209636955292142,0
1525,1.5133479187060188,0
1526,-0.775942625392467,0
1527,0.20770493383740657,0
1528,0.03148243935585889,0
1529,0.013489046987498664,0
1530,0.09410312443890963,0
1531,0.001204656253190304,0
1532,-0.007468286728106533,0
1533,0.0148672704876955,0
1534,0.03255743785503923,0
1535,0.09521327440557434,0
1536,0.04001880188767312,0
1537,0.026632369266837656,0
1538,0.08932069311191693,0
1539,0.014682954760220149,0
1540,0.19120880918839628,0
1541,3.731619260531059,0
1542,6.828009802758273,0
1543,-0.7621593874700571,0
1544,-1.6818194464224843,0
1545,1.4428558240440557,0
1546,-0.7988616941599097,0
1547,0.17952514376572717,0
1548,0.009859198097241449,0
1549,-0.11457832256937502,0
1550,0.05313554215403783,0
1551,0.007918692071622524,0
1552,-0.015155231277830689,0
1553,-0.034995293529566776,0
1554,0.10535933118681026,0
1555,0.08351187857179962,0
1556,0.09760950264237496,0
1557,0.07313136723473063,0
1558,0.09194092489716876,0
1559,0.13658742067375856,0
1560,0.5106437982542115,0
1561,3.9479888113669275,0
1562,6.907063313790235,0
1563,-0.5510458600871408,0
1564,-1.6810671094446261,0
1565,1.6410788159459169,0
1566,-0.7255430551211054,0
1567,0.2045135831342328,0
1568,0.051836189871852734,0
1569,0.01631505612129106,0
1570,0.005243239481529022,0
1571,-0.018874716755685576,0
1572,-0.04728331873447344,0
1573,0.009835308670381234,0
1574,0.019866355326927522,0
1575,0.03034331199424955,0
1576,0.05401938530919377,0
1577,-0.0632100303853337,0
1578,0.04324666389273252,0
1579,0.10457491933359915,0
1580,0.3665896864518007,0
1581,3.711360296160552,0
1582,6.729809467102725,0
1583,-0.6958511848842054,0
1584,-1.7104212203806357,0
1585,1.4659684621456026,0
1586,-0.6422825551294572,0
1587,0.1662885178874871,0
1588,-0.002489634430501049,0
1589,-0.08034456636778392,0
1590,0.032529904300568735,0
1591,0.08243428349917631,0
1592,0.0856800830196482,0
1593,0.0072320605376586106,0
1594,0.031571624314417845,0
1595,0.005205223232906786,0
1596,0.11487431813269308,0
1597,0.04257798530739612,0
1598,0.019107661909044116,0
1599,0.07067347175043827,0
1600,0.35945623009534255,0
1601,3.8815389552476787,0
1602,6.809036063413657,0
1603,-0.6102616602372206,0
1604,-1.6866430398984609,0
1605,1.5655772284808473,0
1606,-0.7417821838951859,0
1607,0.14642976522544937,0
1608,0.08398919480714054,0
1609,0.024686510021664457,0
1610,0.04679294804214012,0
1611,0.0566408362843771,0
1612,0.042808739902019895,0
1613,0.04497568290750578,0
1614,0.05133820736706374,0
1615,-0.012505022326956688,0
1616,0.04175124299456634,0
1617,-0.08648939262234773,0
1618,-0.03548264097243249,0
1619,0.05566450257322668,0
1620,0.4061860023369402,0
1621,3.7921413790249607,0
1622,6.671090497712976,0
1623,-0.6985884106868326,0
1624,-1.7330915264855546,0
1625,1.5988287573147875,0
1626,-0.6966275772977352,0
1627,0.14447626442673484,0
1628,0.04471344090287166,0
1629,-0.08549987892209904,0
1630,-0.0007403053607658028,0
1631,0.05751310353189072,0
1632,-0.04677681691215965,0
1633,0.012317477309886284,0
1634,0.035916615262073535,0
1635,0.011854786404092169,0
1636,0.035355668638334864,0
1637,0.07251585374828623,0
1638,0.14939628538095948,0
1639,0.02692092296381622,0
1640,0.29247213654970516,0
1641,3.8150325323326597,0
1642,6.72103910460275,0
1643,-0.5996265386702132,0
1644,-1.6321336211965851,0
1645,1.508238035105389,0
1646,-0.7191592332207402,0
1647,0.17943310810996307,0
1648,0.08565835216732431,0
1649,-0.0007188024420298443,0
1650,-0.02766014611169791,0
1651,-0.031975502404772746,0
1652,0.01529058609472281,0
1653,0.005906202631446263,0
1654,-0.007711792846210085,0
1655,0.04629760189757172,0
1656,0.00815254204846486,0
1657,-0.0862380391763275,0
1658,-0.08693999527872931,0
1659,-0.02363966966134261,0
1660,0.31519863644258916,0
1661,3.871135986753189,0
1662,6.807393208678071,0
1663,-0.6574390581750278,0
1664,-1.7588094152553058,0
1665,1.5082865536136454,0
1666,-0.7196340390251663,0
1667,0.21919353515525722,0
1668,-0.027013387804242978,0
1669,0.0014320526603639645,0
1670,0.213758234470967,0
1671,0.05610782189623751,0
1672,0.1024709545630147,0
1673,0.06828316213254822,0
1674,0.02644836060645902,0
1675,-0.022378302152863114,0
1676,-0.03246625556982101,0
1677,0.005212999157961036,0
1678,0.02278158361998152,0
1679,0.031630269673589714,0
1680,0.37209464746826904,0
1681,3.8209682970239918,0
1682,6.79533148253043,0
1683,-0.7679903052703562,0
1684,-1.712036793750302,0
1685,1.532292590275525,0
1686,-0.72324225040641,0
1687,0.17741291345502475,0
1688,-0.04546438326409664,0
1689,-0.11843315704258478,0
1690,-0.014451512818017006,0
1691,-0.025598903078270886,0
1692,-0.07455747147140654,0
1693,-0.0719863284683319,0
1694,-0.03566102901144065,0
1695,0.07621609142288707,0
1696,0.019060995179201214,0
1697,-0.0533184323697535,0
1698,0.07124745880611141,0
1699,0.0332264596251693,0
1700,0.23525055665141392,0
1701,3.8272722376189945,0
1702,6.762198249577453,0
1703,-0.7455181244896437,0
1704,-1.7104247254716738,0
1705,1.5000180082776338,0
1706,-0.7704318802522059,0
1707,0.11760179301875115,0
1708,-0.006091159494754668,0
1709,0.019792406162499304,0
1710,0.10627250896199508,0
1711,0.03985145388485557,0
1712,0.1490672102296391,0
1713,0.007127672064035371,0
1714,0.012438509792453409,0
1715,0.044806196030033815,0
1716,0.13838666611838513,0
1717,0.008449662162890666,0
1718,0.06967340151978903,0
1719,0.09073425431641559,0
1720,0.3759811237940916,0
1721,3.821756216988753,0
1722,6.747846350195118,0
1723,-0.8763498874851954,0
1724,-1.7167343448285741,0
1725,1.4637585223657341,0
1726,-0.8267047010089469,0
1727,0.16501905628224084,0
1728,0.0035108724520034884,0
1729,-0.07132440730233314,0
1730,0.019893842435731585,0
1731,-0.09415850485939133,0
1732,-0.12351267183346093,0
1733,-0.08396181818356302,0
1734,-0.08466417688360048,0
1735,-0.05830071446837423,0
1736,-0.05914990004088037,0
1737,-0.002426485848112156,0
1738,0.011374684480105271,0
1739,0.01989189424642162,0
1740,0.3236735242962859,0
1741,3.8585042518217922,0
1742,6.675676781370202,0
1743,-0.7467865759590147,0
1744,-1.6684403695230487,0
1745,1.3727766906787597,0
1746,-0.7685295750101901,0
1747,0.1254154789676857,0
1748,-0.07382961526798557,0
1749,-0.07144430293656484,0
1750,-0.02343937066948739,0
1751,-0.0017093764881570411,0
1752,0.03933203171984561,0
1753,-0.05102014533082452,0
1754,-0.003823651059567012,0
1755,-0.02146964478991156,0
1756,-0.044454746473592655,0
1757,0.05515770022439863,0
1758,-0.09969886469333908,0
1759,0.0265200025837694,0
1760,0.2884709117741797,0
1761,3.7579228205964506,0
1762,6.816081645979065,0
1763,-0.776247582107806,0
1764,-1.691868684158176,0
1765,1.3249477839484824,0
1766,-0.7443248963929928,0
1767,0.08816890571145405,0
1768,-0.009987510943987084,0
1769,0.009730616759411538,0
1770,0.09223098231712318,0
1771,-0.049432144378092305,0
1772,-0.01798459692853446,0
1773,0.05979037358352009,0
1774,0.06871753505162968,0
1775,-0.05850035893434126,0
1776,-0.02762566206896539,0
1777,-0.019499987862067504,0
1778,0.03128546261905743,0
1779,-0.005029124283775893,0
1780,0.20640401935539282,0
1781,3.866663074508431,0
1782,6.750499880982529,0
1783,-0.6725802775906146,0
1784,-1.6857477889264898,0
1785,1.4626290817341459,0
1786,-0.7991586787527669,0
1787,0.12067796746401692,0
1788,-0.0015949760370988705,0
1789,-0.090140916816326,0
1790,-0.020619030438736828,0
1791,-0.09741620060698908,0
1792,-0.018662591701342657,0
1793,-0.01902473723872139,0
1794,0.006329138962854433,0
1795,-0.08551838711928902,0
1796,-0.07578487009162638,0
1797,0.07345185724998324,0
1798,-0.1010522326502884,0
1799,0.04522742046638637,0
1800,0.39067236644843945,0
1801,3.81534783248402,0
1802,6.797495805635495,0
1803,-0.7481778487227462,0
1804,-1.673261179922681,0
1805,1.484190241922714,0
1806,-0.711737248386874,0
1807,0.1734780523130729,0
1808,-0.04201873158346721,0
1809,-0.031537293293872615,0
1810,0.11598728311501685,0
1811,0.021193347240644846,0
1812,0.018531164671104224,0
1813,0.008463401079234552,0
1814,-0.04940607377742527,0
1815,-0.038878991388503356,0
1816,0.11493221453032482,0
1817,0.012632784699783685,0
1818,-0.01820783063949439,0
1819,-0.010159222123831203,0
1820,0.39797682269865386,0
1821,3.851444326077099,0
1822,6.7083947628658445,0
1823,-0.6494292038844686,0
1824,-1.6099632718669803,0
1825,1.4508388376625154,0
1826,-0.783496193007665,0
1827,0.14384160698420545,0
1828,0.04733738113294457,0
1829,-0.013352695890169429,0
1830,-0.02156262771315659,0
1831,-0.035715993494810847,0
1832,0.12998753739615063,0
1833,-0.013151608476369862,0
1834,-0.012421472014002071,0
1835,-0.01571981405560254,0
1836,-0.026581075903922828,0
1837,-0.07683985657541084,0
1838,-0.033051682943051004,0
1839,-0.05301866248505048,0
1840,0.4035119068856151,0
1841,3.846430814214879,0
1842,6.72408831888982,0
1843,-0.7548539590191847,0
1844,-1.6375519874713937,0
1845,1.500708676191147,0
1846,-0.7573010088712725,0
1847,0.08885425547874118,0
1848,-0.03502100034665934,0
1849,-0.027026325977232306,0
1850,0.043933677343024814,0
1851,-0.03823984600689983,0
1852,-0.02334130055701982,0
1853,-0.024632099483081364,0
1854,-0.02176197441218628,0
1855,-0.039101847491324684,0
1856,-0.06911844938835829,0
1857,-0.1594070704057933,0
1858,0.01902134410866677,0
1859,0.007044142557302551,0
1860,0.30616295313503317,0
1861,3.843512216116762,0
1862,6.677980134927823,0
1863,-0.6990954888342605,0
1864,-1.6948169778276554,0
1865,1.5303547540379212,0
1866,-0.7351408876395668,0
1867,0.23555509844526668,0
1868,0.015023209871463092,0
1869,-0.05539391138457214,0
1870,0.08586256031523065,0
1871,-0.01849338145836655,0
1872,-0.14944613366690288,0
1873,-0.02903536953557397,0
1874,-0.059802195990270215,0
1875,-0.008163475609561542,0
1876,-0.009149518224926928,0
1877,-0.07225893928450741,0
1878,-0.007217898280596937,0
1879,-0.037409280229491124,0
1880,0.3191018947993505,0
1881,3.822695805457572,0
1882,6.646586449941943,0
1883,-0.8737371478838566,0
1884,-1.6729162852525774,0
1885,1.454003945803649,0
1886,-0.8269797683719422,0
1887,0.2146658973576847,0
1888,-0.002506737589494993,0
1889,-0.032346688799632956,0
1890,0.07940053353368931,0
1891,-0.07475003995249235,0
1892,-0.07694767950562782,0
1893,-0.04057701948936655,0
1894,-0.068239445763463,0
1895,-0.024171540079589743,0
1896,-0.023400486218768366,0
1897,-0.03432332269997215,0
1898,-0.025950981593586962,0
1899,-0.03467243577914788,0
1900,0.3027613896692376,0
1901,3.8026165311507043,0
1902,6.699513036105483,0
1903,-0.7267072878337574,0
1904,-1.6153773458891914,0
1905,1.4989476494242697,0
1906,-0.8169337158059748,0
1907,0.19694252836855553,0
1908,-0.09501454038782772,0
1909,-0.048221048990551074,0
1910,-0.0490794187573729,0
1911,-0.025089809919148255,0
1912,-0.02311434407411712,0
1913,-0.05145913918547916,0
1914,0.0026420421404784802,0
1915,0.005363889098257364,0
1916,-0.05576305979826279,0
1917,-0.08275898705289371,0
1918,-0.014567962301367136,0
1919,0.05334769646024025,0
1920,0.21967571537348235,0
1921,3.7597177707751364,0
1922,6.695082129460286,0
1923,-0.8561742631049336,0
1924,-1.7160459776407446,0
1925,1.4114231877992958,0
1926,-0.7832262749124541,0
1927,0.1471090765955204,0
1928,0.030703976346055976,0
1929,-0.10054267757359955,0
1930,-0.01809981267442599,0
1931,-0.12349410730782569,0
1932,-0.033039457945290326,0
1933,-0.11617697164012687,0
1934,-0.06459496229855408,0
1935,-0.061436711395766855,0
1936,-0.12175300349383235,0
1937,-0.08439678775384099,0
1938,-0.012190301520641916,0
1939,0.008929257277337475,0
1940,0.2834034364045109,0
1941,3.777935416529007,0
1942,6.6871785366624215,0
1943,-0.8343033762567971,0
1944,-1.6758074967577303,0
1945,1.4626387783710546,0
1946,-0.8117894155467653,0
1947,0.10474981954742296,0
1948,-0.05275471159892101,0
1949,-0.15300631379175045,0
1950,0.0068209326949530205,0
1951,-0.04756314811489805,0
1952,0.013555981372832225,0
1953,0.008322417163970638,0
1954,0.007937560332158028,0
1955,-0.06822424587346528,0
1956,0.07667295536811713,0
1957,0.022782669302508347,0
1958,-0.03623398727848442,0
1959,0.05529138378178043,0
1960,0.327935212129035,0
1961,3.915761785851439,0
1962,6.654979126427313,0
1963,-0.7366918550768832,0
1964,-1.5648846813050983,0
1965,1.4772094265717326,0
1966,-0.7665174303233498,0
1967,0.23829937260070325,0
1968,0.009047532576613882,0
1969,-0.017638788247278662,0
1970,0.0541190705765356,0
1971,-0.06030612924449922,0
1972,0.019643265957505703,0
1973,-0.07632133625039692,0
1974,0.050634079716441856,0
1975,0.03751938102505391,0
1976,-0.0457549616679463,0
1977,-0.007560009478485764,0
1978,0.03657834186683302,0
1979,0.008075896969319065,0
1980,0.33213235281028025,0
1981,3.913101964477203,0
1982,6.790657543251366,0
1983,-0.7124390761795965,0
1984,-1.5779088155197094,0
1985,1.4938003495999916,0
1986,-0.6827576841497762,0
1987,0.1446971602704993,0
1988,-0.03110341735685462,0
1989,-0.04892829281983354,0
1990,-0.023304574057022895,0
1991,-0.0624986271835596,0
1992,-0.030383608343417065,0
1993,-0.004293965884836904,0
1994,-0.04891869819789856,0
1995,0.022900135373339882,0
1996,-0.0556248024629778,0
1997,-0.013376260189425579,0
1998,-0.03932341465349708,0
1999,-0.013509507161870535,0
2000,0.3831572270426504,0
2001,3.8289267162619383,0
2002,6.74630060523764,0
2003,-0.8198745456525743,0
2004,-1.578681303503531,0
2005,1.4540084848470198,0
2006,-0.7578141053209025,0
2007,0.2166351343856966,0
2008,-0.02278399229167141,0
2009,0.03820098308915857,0
2010,0.048011806990164635,0
2011,-0.05481814682435311,0
2012,-0.024719220877355723,0
2013,-0.045545814817550406,0
2014,-0.05025445255128316,0
2015,-0.0720859902528231,0
2016,-0.040732173560355626,0
2017,0.026815058296102087,0
2018,-0.012583325897794873,0
2019,-0.008854399433762811,0
2020,0.4382951259954581,0
2021,3.870857943815342,0
2022,6.719079727552939,0
2023,-0.868723900640356,0
2024,-1.6604953647284089,0
2025,1.4488748371533804,0
2026,-0.7484750427146254,0
2027,0.15054532102515056,0
2028,-0.05073190162798428,0
2029,-0.07718702453346864,0
2030,0.0038606561299630564,0
2031,0.05892250752200975,0
2032,0.10417848887354235,0
2033,0.050497695118525934,0
2034,0.05547233541197539,0
2035,0.05792608776627402,0
2036,-0.01164315056042833,0
2037,0.04987197756027064,0
2038,0.052391531998939,0
2039,0.032677219545549654,0
2040,0.4197128175651753,0
2041,3.813013819881046,0
2042,6.695741166234355,0
2043,-0.8164894155378654,0
2044,-1.5627424522654834,0
2045,1.496180509785416,0
2046,-0.742687876568429,0
2047,0.26426571477375566,0
2048,-0.005449266304622814,0
2049,0.029854838476720165,0
2050,0.005055515435640562,0
2051,-0.057008058401216914,0
2052,-0.04214443175222672,0
2053,0.0733096215629239,0
2054,-0.049369860878811136,0
2055,-0.09740230867219483,0
2056,0.04241493748958488,0
2057,-0.06677694739787987,0
2058,-0.07875777063596745,0
2059,-0.06457828605529896,0
2060,0.28505181447937566,0
2061,3.6882406341829057,0
2062,6.615120579738648,0
2063,-0.9452467190103986,0
2064,-1.6188910036098474,0
2065,1.4310018288143318,0
2066,-0.899672291979815,0
2067,0.13297192353038015,0
2068,-0.05465935110939975,0
2069,-0.07717862220723923,0
2070,-0.07066695776120782,0
2071,-0.01351673656019399,0
2072,-0.005458120343436516,0
2073,-0.03916139461952836,0
2074,-0.015123800021162188,0
2075,-0.02366060546510108,0
2076,0.0002843051365532031,0
2077,-0.020059237369551494,0
2078,-0.0517582947841107,0
2079,0.007580236506021652,0
2080,0.37643560673152915,0
2081,3.894916196118892,0
2082,6.668723081513534,0
2083,-0.779965140163234,0
2084,-1.684663060584079,0
2085,1.553950698825357,0
2086,-0.8091454039577074,0
2087,0.19529782416709937,0
2088,-0.027653750251678922,0
2089,-0.0850174667680598,0
2090,-0.04550124073257527,0
2091,-0.08235796558046557,0
2092,0.0672504178554613,0
2093,-0.07792344151238108,0
2094,-0.00914866207410386,0
2095,-0.1199347410104189,0
2096,0.05740566192250333,0
2097,-0.023702695949480823,0
2098,-0.050105769986067236,0
2099,0.01787825871953818,0
2100,0.38272893104021677,0
2101,3.7584179449973725,0
2102,6.703254188916836,0
2103,-0.7527497533299755,0
2104,-1.759679370590154,0
2105,1.40298775721062,0
2106,-0.89718534648709,0
2107,0.08421947338872177,0
2108,-0.045245931307754395,0
2109,-0.13280506772174128,0
2110,0.02664089878590964,0
2111,0.02037053927661539,0
2112,-0.06179628928154922,0
2113,-0.06398152296597749,0
2114,-0.007150660604244889,0
2115,-0.011744160994475507,0
2116,0.017402099816440683,0
2117,0.027895658840294445,0
2118,-0.00012229387071262515,0
2119,0.019240696595651526,0
2120,0.28439561018829906,0
2121,3.879008933810887,0
2122,6.7386378794772,0
2123,-0.8439016657368266,0
2124,-1.570419886674469,0
2125,1.4481911137998205,0
2126,-0.8023701173713688,0
2127,0.2743145912877723,0
2128,-0.0951712882269597,0
2129,-0.06144397754584778,0
2130,-0.09364430274268148,0
2131,-0.028737504541723687,0
2132,-0.006749070718919441,0
2133,-0.00261696246647556,0
2134,-0.035096375420610476,0
2135,-0.05346999018273155,0
2136,-0.13025425208608735,0
2137,0.06337306105420958,0
2138,-0.044938233971898195,0
2139,-0.06648452463759096,0
2140,0.31046422951996244,0
2141,3.7540144438455814,0
2142,6.642215503850638,0
2143,-0.9375882681789547,0
2144,-1.7193056044518975,0
2145,1.3570937368296498,0
2146,-0.8632768209446524,0
2147,0.12833456706723392,0
2148,-0.16083578731203596,0
2149,-0.020458443223863657,0
2150,-0.02566703253316778,0
2151,0.01381779966199776,0
2152,-0.060527168280966576,0
2153,-0.05184476739148859,0
2154,-0.061002173285079855,0
2155,-0.059594926390294053,0
2156,-0.03587494816121769,0
2157,-0.012959795775089673,0
2158,0.011181515763560038,0
2159,-0.0858580044350344,0
2160,0.2889367796909606,0
2161,3.833354061079892,0
2162,6.572985517792131,0
2163,-0.7994595448589081,0
2164,-1.619320351527111,0
2165,1.4604855458823156,0
2166,-0.7768594537734431,0
2167,0.06570998734069951,0
2168,-0.005313058099766031,0
2169,-0.07278788114919722,0
2170,-0.09843180388156693,0
2171,-0.059933086672382466,0
2172,-0.1362039231762009,0
2173,-0.10290791522397505,0
2174,-0.02668261092451598,0
2175,-0.019296832890955573,0
2176,-0.1090378535759913,0
2177,-0.09371496167451525,0
2178,-0.09838752151948119,0
2179,-0.07134944295727547,0
2180,0.27749342758423007,0
2181,3.854209911619259,0
2182,6.615167549681633,0
2183,-0.9099445713885791,0
2184,-1.6977151699574586,0
2185,1.3955336440923733,0
2186,-0.8617391857878027,0
2187,0.15319742318206464,0
2188,-0.08526949860108404,0
2189,-0.0639046139263687,0
2190,0.06267620877396905,0
2191,-0.12168083706290164,0
2192,-0.15856239690285098,0
2193,-0.06560283564595058,0
2194,-0.11119485071185407,0
2195,-0.039314580920571454,0
2196,-0.043583433684485105,0
2197,-0.11506994450480659,0
2198,-0.09134565945328631,0
2199,-0.06839196063859362,0
2200,0.22311109474257582,0
2201,3.7339192648938697,0
2202,6.623536500161019,0
2203,-0.9849121862168673,0
2204,-1.749216265347404,0
2205,1.3640158047606985,0
2206,-0.834408587365225,0
2207,0.1174576164838971,0
2208,-0.11204160400345503,0
2209,-0.10151255975588805,0
2210,-0.04111660370289866,0
2211,-0.06904843419869361,0
2212,-0.08349550617275303,0
2213,0.05322718853284354,0
2214,-0.04698607823428976,0
2215,-0.07417212679814655,0
2216,-0.09936957628269888,0
2217,-0.11476169450921661,0
2218,-0.12396836681925394,0
2219,-0.03415042889814155,0
2220,0.3435993744843996,0
2221,3.829733976111072,0
2222,6.635047488009252,0
2223,-0.8205468006199125,0
2224,-1.6538835931434264,0
2225,1.452806993659767,0
2226,-0.8408131979647019,0
2227,0.15692466350593173,0
2228,-0.17663730543283906,0
2229,-0.07039857859479051,0
2230,-0.017109272544311535,0
2231,-0.12563504196934494,0
2232,0.03278952242890308,0
2233,-0.027496767565198407,0
2234,-0.10111276276063591,0
2235,-0.1110195615976178,0
2236,-0.03694569682516022,0
2237,-0.12520492357957375,0
2238,-0.05391849333785865,0
2239,-0.05826092575320758,0
2240,0.181807374543627,0
2241,3.812952105905899,0
2242,6.6329113788438825,0
2243,-0.9371706006545647,0
2244,-1.682332499720887,0
2245,1.381011964943077,0
2246,-0.778801218769093,0
2247,0.13594440580542377,0
2248,-0.13114915268655108,0
2249,-0.11353136809306996,0
2250,-0.049733838035705295,0
2251,-0.22465344614288016,0
2252,-0.08905180395595072,0
2253,-0.11605664408466564,0
2254,-0.06599841875697746,0
2255,-0.0871895699856685,0
2256,-0.16473753590475176,0
2257,-0.0453839088894295,0
2258,-0.1652692339526051,0
2259,-0.05378689640444052,0
2260,0.2768130046695171,0
2261,3.6322185814725856,0
2262,6.429004837840112,0
2263,-0.9742329893203927,0
2264,-1.74584618366208,0
2265,1.4458532923894962,0
2266,-0.923540360625011,0
2267,0.10148069172682685,0
2268,-0.10986358740489545,0
2269,-0.09134662139835761,0
2270,-0.019017937490677567,0
2271,-0.06918994254624669,0
2272,-0.14697979317278098,0
2273,-0.12953395011796,0
2274,-0.11397746429804889,0
2275,-0.12950389231594056,0
2276,-0.08221504925069996,0
2277,-0.09486813476771827,0
2278,0.011895882334916008,0
2279,-0.04060712250588304,0
2280,0.2319189038028507,0
2281,3.7431879930764964,0
2282,6.493237430432504,0
2283,-0.9531997560134213,0
2284,-1.6940752330353896,0
2285,1.3313287532303402,0
2286,-0.8877973977830663,0
2287,0.12447898448239603,0
2288,-0.03418816957906411,0
2289,-0.1083423621921175,0
2290,0.06920587139717227,0
2291,-0.024081838542678452,0
2292,-0.11051844863385277,0
2293,-0.08940490373565738,0
2294,-0.16547549518891375,0
2295,-0.16306210950903868,0
2296,-0.13197236421074499,0
2297,-0.14142695640526065,0
2298,-0.08196491904640703,0
2299,-0.11012073212113221,0
2300,0.21136505906906172,0
2301,3.78816607985335,0
2302,6.576216261709879,0
2303,-0.9975703184170674,0
2304,-1.6066692689154007,0
2305,1.428961080203131,0
2306,-0.7820650233217454,0
2307,0.1050836251260149,0
2308,-0.033138614182553094,0
2309,-0.058048598787584456,0
2310,-0.03287672293094329,0
2311,-0.005194637257473881,0
2312,0.01917348926180072,0
2313,0.06800780524316062,0
2314,0.06272319412565874,0
2315,-0.002362771924039529,0
2316,0.035564943937197044,0
2317,-0.03640066489465277,0
2318,-0.02339082277059807,0
2319,0.07202401833413996,0
2320,0.28388770259802254,0
2321,3.8956766394544697,0
2322,6.596720349425881,0
2323,-0.9670257531180643,0
2324,-1.6713557104700074,0
2325,1.4010839287307517,0
2326,-0.8294178367165714,0
2327,0.15574652536875522,0
2328,-0.09507025038126077,0
2329,-0.0736301640896892,0
2330,-0.051961906335296675,0
2331,-0.019331430935067354,0
2332,-0.03000845076453088,0
2333,-0.035051055407756215,0
2334,-0.057777013363488616,0
2335,-0.09299807201680102,0
2336,-0.0262508154241774,0
2337,0.04107251219616799,0
2338,0.0063200733838751424,0
2339,0.055642637475708676,0
2340,0.3313821170993433,0
2341,3.8674242252799984,0
2342,6.780520957974318,0
2343,-0.9101202503266441,0
2344,-1.570340853270826,0
2345,1.437084156252059,0
2346,-0.6876113252694449,0
2347,0.22229157980362838,0
2348,0.001357035758188442,0
2349,-0.06537303194258687,0
2350,0.03509194709354812,0
2351,0.029972314550538753,0
2352,-0.028304780179033803,0
2353,-0.04440511526150723,0
2354,-0.027403675521858274,0
2355,-0.01540568836631053,0
2356,-0.06480689844186198,0
2357,-0.022294929861394565,0
2358,0.06750777065827769,0
2359,-0.12772345222148448,0
2360,0.41094236459646905,0
2361,3.875585066755047,0
2362,6.601141346992076,0
2363,-0.9071279066017934,0
2364,-1.5962498601319144,0
2365,1.5111122964456734,0
2366,-0.8306337816122538,0
2367,0.27256374730739014,0
2368,0.009833629970308712,0
2369,-0.11326160120555398,0
2370,0.12955543083672272,0
2371,0.07701477472966524,0
2372,0.014220543757389327,0
2373,0.12540938105101793,0
2374,0.10340503712107403,0
2375,0.04976461253091298,0
2376,0.06591782067341256,0
2377,0.004446642641551667,0
2378,-0.007306713943757089,0
2379,-0.07636055044088158,0
2380,0.4088296313874416,0
2381,3.9950081942251825,0
2382,6.714668315664624,0
2383,-0.9824122644809258,0
2384,-1.6387174034137748,0
2385,1.5342286228074904,0
2386,-0.743941953556074,0
2387,0.2149094881231042,0
2388,-0.05828792247950949,0
2389,-0.03507567321952282,0
2390,0.07940636692984841,0
2391,0.05835915109551113,0
2392,0.036115741402705015,0
2393,0.022377224550201687,0
2394,0.0030986249943986723,0
2395,0.01845705011600374,0
2396,-0.002779241938411326,0
2397,0.05866283881571683,0
2398,0.051813578289199164,0
2399,-0.05262851455558362,0
2400,0.3379653003492801,0
2401,3.916439878424815,0
2402,6.716175402748586,0
2403,-0.8543989929708251,0
2404,-1.6280050274807198,0
2405,1.5086476731339225,0
2406,-0.7225655829451106,0
2407,0.21483040949786786,0
2408,0.008813229401342198,0
2409,-0.07235933266426152,0
2410,0.03134627751738546,0
2411,0.1246388907164555,0
2412,0.10633139453166253,0
2413,-0.10986704638615746,0
2414,0.008254169705528669,0
2415,0.054055636909802314,0
2416,0.07670996225146365,0
2417,0.1227416153574646,0
2418,0.06256594460741167,0
2419,-0.021631502849031835,0
2420,0.45348419376160576,0
2421,3.8546656593778295,0
2422,6.708779728844191,0
2423,-0.8355125129930114,0
2424,-1.486326486475863,0
2425,1.5104096466126533,0
2426,-0.7072833869429127,0
2427,0.21148214506085894,0
2428,0.002385284669273298,0
2429,0.004503452440921206,0
2430,0.1438890437400826,0
2431,0.0810919082071804,0
2432,0.007032798001532448,0
2433,0.10217909439526626,0
2434,0.07246103256006337,0
2435,0.07224491874699523,0
2436,0.024751912455364403,0
2437,0.00029882737099978796,0
2438,0.049579191271999244,0
2439,0.04777631110669731,0
2440,0.4217514508291869,0
2441,3.9919738995788827,0
2442,6.743355606452387,0
2443,-0.9311579049154353,0
2444,-1.5831077722131535,0
2445,1.4609190802258063,0
2446,-0.7481905325096982,0
2447,0.17852275872851628,0
2448,0.011533800447704936,0
2449,0.007571286588320937,0
2450,-0.055746320729034134,0
2451,0.017018113482633955,0
2452,-0.03781939899569932,0
2453,-0.004607822932253581,0
2454,-0.07625879225858749,0
2455,-0.012711524523486478,0
2456,0.021860885973339895,0
2457,0.029260063274973637,0
2458,0.006485743962872367,0
2459,0.01865288471080636,0
2460,0.44514423060163577,0
2461,3.9953014382998737,0
2462,6.661691359803545,0
2463,-0.9202957237466572,0
2464,-1.5429074677336578,0
2465,1.4560432822839902,0
2466,-0.8279691306241133,0
2467,0.23367563052811993,0
2468,0.005406336781893564,0
2469,-0.07070679449467895,0
2470,0.06516259372873595,0
2471,0.059945571076532096,0
2472,0.038575802549608205,0
2473,-0.01938406461835941,0
2474,0.06643096310216536,0
2475,0.04038991735331194,0
2476,-0.04529112377094657,0
2477,0.08219106753694037,0
2478,-0.0073475061249427005,0
2479,0.06505956527990299,0
2480,0.37183979134880785,0
2481,3.9712393400648733,0
2482,6.607608110597259,0
2483,-1.0342518285547513,0
2484,-1.5097025731765275,0
2485,1.4838750600651078,0
2486,-0.8071106240101236,0
2487,0.2391831682997991,0
2488,-0.14965709667340737,0
2489,-0.061967615297018566,0
2490,-0.09169714536834805,0
2491,-0.22945713113468436,0
2492,-0.11046836036562231,0
2493,-0.02172723331965158,0
2494,-0.08827676351969387,0
2495,-0.12306126850117287,0
2496,0.0264480272676393,0
2497,-0.010429098542066167,0
2498,0.07864579700779398,0
2499,-0.0712006776840978,0
2500,0.28489387473853717,0
2501,3.9871009078054604,0
2502,6.635057093690206,0
2503,-0.9260174705784141,0
2504,-1.5868613073061033,0
2505,1.5038491848480586,0
2506,-0.7325097159852091,0
2507,0.14339906036207,0
2508,-0.044873805211349004,0
2509,-0.07006118512077161,0
2510,-0.024392849641902345,0
2511,0.040645611205838456,0
2512,-0.04657682824710882,0
2513,0.06804972832252461,0
2514,0.011015308825072349,0
2515,-0.05936292371607617,0
2516,-0.04772723569044206,0
2517,-0.01765133647811281,0
2518,0.09751762421155015,0
2519,0.0827141137271852,0
2520,0.453476304743025,0
2521,3.910286845152002,0
2522,6.648734738851982,0
2523,-0.8842889331237885,0
2524,-1.6601840397579601,0
2525,1.5291584640344662,0
2526,-0.6742354830184918,0
2527,0.09201315896155715,0
2528,0.040361882973198024,0
2529,-0.09212112935792756,0
2530,0.021255886223214823,0
2531,0.05941363135219718,0
2532,-0.015426117265840516,0
2533,-0.10475830647194329,0
2534,-0.13022000754357926,0
2535,-0.07378314392666607,0
2536,-0.049550090546785525,0
2537,0.017821311398050023,0
2538,-0.12501449914757473,0
2539,-0.07458262673907058,0
2540,0.33925493861996897,0
2541,3.92143804016041,0
2542,6.627090907229888,0
2543,-0.9111750265751384,0
2544,-1.6741454225042565,0
2545,1.5167529613850177,0
2546,-0.8120801936527736,0
2547,0.10304118003136482,0
2548,0.0031741621390914965,0
2549,-0.08914969501032484,0
2550,-0.07555989577323219,0
2551,-0.006743040330237336,0
2552,0.07351481924001763,0
2553,-0.03738972770930284,0
2554,-0.010894744359343109,0
2555,0.05780219514397075,0
2556,0.028172006285758333,0
2557,-0.011415136983824327,0
2558,0.10513144585325584,0
2559,0.06747421264533536,0
2560,0.4545637756908876,0
2561,4.047400683025199,0
2562,6.7506848279713,0
2563,-0.820326158117083,0
2564,-1.5236705312929053,0
2565,1.453543531982009,0
2566,-0.751702766374589,0
2567,0.17404337626805924,0
2568,-0.030713829174521055,0
2569,-0.07232527407847708,0
2570,0.05972405744557327,0
2571,-0.04594027180200347,0
2572,-0.14275958707836575,0
2573,-0.11927630120843433,0
2574,-0.0047009597693129165,0
2575,-0.0505205085460348,0
2576,-0.03679965758821484,0
2577,0.019836935548915392,0
2578,0.03182493633554824,0
2579,0.06502761521196733,0
2580,0.3360294437336883,0
2581,3.974078119399896,0
2582,6.721059459784366,0
2583,-0.9660823703761557,0
2584,-1.5530643554592065,0
2585,1.528311259197631,0
2586,-0.7645071899725441,0
2587,0.14019551968782135,0
2588,-0.06899953747296635,0
2589,-0.004596225124473476,0
2590,0.004711682577865002,0
2591,-0.058290058577950096,0
2592,0.020578834953660856,0
2593,-0.11148827884057243,0
2594,0.07266233203390172,0
2595,-0.03790476495300919,0
2596,-0.03338098256515432,0
2597,-0.09937399057129605,0
2598,-0.01812599552978742,0
2599,0.021902551867873175,0
2600,0.42755623361041445,0
2601,4.014266843842872,0
2602,6.700577271313525,0
2603,-0.9489315671504558,0
2604,-1.477816344381991,0
2605,1.4361572005519738,0
2606,-0.846552706490637,0
2607,0.2577802128379488,0
2608,-0.09421863112233068,0
2609,-0.12403899882229666,0
2610,0.019638216908196476,0
2611,-0.028592881986295948,0
2612,-0.04282552929451653,0
2613,-0.11002009348226136,0
2614,-0.09956044706047487,0
2615,-0.010606118849049995,0
2616,-0.0767818670330798,0
2617,-0.09316784748250305,0
2618,-0.08042264430602566,0
2619,-0.050540723757431454,0
2620,0.29004087511865034,0
2621,3.977173462371138,0
2622,6.685563861030524,0
2623,-1.038899157053479,0
2624,-1.4781723085346006,0
2625,1.4499978023588451,0
2626,-0.762680073445878,0
2627,0.09812766944117289,0
2628,-0.031896185421203864,0
2629,-0.010188426771707657,0
2630,0.07173407237568921,0
2631,-0.0026945526103857084,0
2632,0.023033323080677414,0
2633,0.022677405997234158,0
2634,-0.051484917212281524,0
2635,-0.122199129706978,0
2636,-0.004008039055166818,0
2637,-0.023950522765441587,0
2638,0.06353242939174975,0
2639,0.004115871836921529,0
2640,0.3857891793249278,0
2641,3.953295729713551,0
2642,6.681383780598654,0
2643,-0.9786047027105322,0
2644,-1.4905354830355575,0
2645,1.481620765759552,0
2646,-0.7407209897060744,0
2647,0.22535746800732404,0
2648,0.009996294492554392,0
2649,-0.00400680967250878,0
2650,-0.007401799030486159,0
2651,-0.0009319636925043443,0
2652,-0.06999955602700858,0
2653,0.011904727561099462,0
2654,-0.025358768591109686,0
2655,-0.04043483188164638,0
2656,-0.07843941402152545,0
2657,-0.01861260064298137,0
2658,-0.04174185916408024,0
2659,-0.021709955118163062,0
2660,0.3660867677739609,0
2661,4.003367404029779,0
2662,6.740721325356126,0
2663,-0.9813727229616074,0
2664,-1.5425248151632867,0
2665,1.4607941086596266,0
2666,-0.7920696749366588,0
2667,0.18439912857419657,0
2668,-0.05596694186036061,0
2669,-0.010006174077438802,0
2670,-5.7795859758277834e-06,0
2671,0.017124009661699646,0
2672,-0.014937655352756285,0
2673,0.021946074471806416,0
2674,0.007083895254110781,0
2675,0.028285033435822414,0
2676,-0.02891490361387973,0
2677,0.07222499172663151,0
2678,-0.023357934177374803,0
2679,0.049519048621550835,0
2680,0.38840810694816535,0
2681,3.9054679560429295,0
2682,6.655819268416228,0
2683,-1.0999523278540497,0
2684,-1.5817700199877887,0
2685,1.409986547957084,0
2686,-0.7657735863971962,0
2687,0.24781209408651894,0
2688,-0.01546877784921913,0
2689,-0.028352509231161213,0
2690,0.023067347057836123,0
2691,-0.014190925872553946,0
2692,-0.07169463419646059,0
2693,-0.013859491035325334,0
2694,-0.05366255384862726,0
2695,-0.03642047511922242,0
2696,-0.0037052409572261723,0
2697,0.06315054231240438,0
2698,0.05708641561855597,0
2699,-0.03329177559271737,0
2700,0.37017815077114213,0
2701,3.942521333190248,0
2702,6.632200158720922,0
2703,-1.0138193343842543,0
2704,-1.4296523334877898,0
2705,1.472950495899671,0
2706,-0.8114611381795885,0
2707,0.23569031571259172,0
2708,-0.057450235932523915,0
2709,-0.023448289051239874,0
2710,0.10152846007430735,0
2711,-0.04266239952169443,0
2712,0.020742957482961715,0
2713,0.034306643915313004,0
2714,0.05697005012098114,0
2715,0.02405067977987842,0
2716,-0.027715856563956455,0
2717,-0.033072731924275525,0
2718,0.05378085225913365,0
2719,-0.011632660214069133,0
2720,0.33484868498686354,0
2721,4.05241096654844,0
2722,6.652442728506243,0
2723,-1.0734455923258233,0
2724,-1.5539022392833899,0
2725,1.4990467487291423,0
2726,-0.834601037636023,0
2727,0.17282382355552872,0
2728,0.05336499732689416,0
2729,-0.011539774843068095,0
2730,0.025223876015469545,0
2731,0.05196997124110052,0
2732,0.10684312013113614,0
2733,-0.0009986328617264768,0
2734,-0.07651428695897505,0
2735,-0.09531576344575377,0
2736,0.0022644686076036206,0
2737,0.022014911918736543,0
2738,0.06333879727612829,0
2739,0.004869412107461661,0
2740,0.34212509275580283,0
2741,4.07443759569447,0
2742,6.610132460309257,0
2743,-0.9912680926519745,0
2744,-1.5441204040361838,0
2745,1.4196862692930894,0
2746,-0.8029720741937452,0
2747,0.3042779312052955,0
2748,-0.05197094468513775,0
2749,0.05486082276875953,0
2750,0.08022329002274474,0
2751,-0.1030739736148,0
2752,-0.038521457304735045,0
2753,0.08518505747512656,0
2754,0.04840345519169592,0
2755,0.023935254900128895,0
2756,0.0025386441904618855,0
2757,0.027854827093242086,0
2758,0.07985115849952361,0
2759,-0.011620175797041637,0
2760,0.3816636506419707,0
2761,4.01462046440473,0
2762,6.602457938237006,0
2763,-1.0420620281848387,0
2764,-1.400552177096139,0
2765,1.5170109733477832,0
2766,-0.7434275276930363,0
2767,0.31862092836365524,0
2768,0.10608637781946448,0
2769,-0.014173491292629719,0
2770,0.025990856241365348,0
2771,0.048111290923884276,0
2772,0.04760655035692786,0
2773,0.03304928136209723,0
2774,0.02195962491083487,0
2775,0.058736525018051725,0
2776,0.1170578984925352,0
2777,0.10808024261185478,0
2778,0.06877152544434165,0
2779,0.009598137645493235,0
2780,0.3612565490360889,0
2781,4.1149705558626035,0
2782,6.744314673291162,0
2783,-0.9336829910445651,0
2784,-1.5012245356426226,0
2785,1.488091152697017,0
2786,-0.7653778567801486,0
2787,0.25041812765200294,0
2788,0.04302396487102734,0
2789,-0.0052469856942805575,0
2790,0.024092249578316457,0
2791,-0.05088419936880131,0
2792,-0.02186706687356065,0
2793,0.013422754915012694,0
2794,0.028285418719483677,0
2795,-0.0030016352101340654,0
2796,0.0803963819217439,0
2797,0.10386837656821701,0
2798,0.04390543371854311,0
2799,-0.02037468181273202,0
2800,0.396450095028902,0
2801,4.077737495789274,0
2802,6.673342794729546,0
2803,-0.8661052559342172,0
2804,-1.3747269033633556,0
2805,1.5210729458874213,0
2806,-0.757434864645583,0
2807,0.24580023612821164,0
2808,0.028919639710196576,0
2809,-0.010805866719817512,0
2810,0.0973913160226717,0
2811,0.03184806418940615,0
2812,0.14760279851959768,0
2813,-0.07932747235985696,0
2814,0.07840638526116885,0
2815,0.10969074437973042,0
2816,0.07268695746690909,0
2817,0.05244682850852325,0
2818,0.06218626568358261,0
2819,-0.07052322769804888,0
2820,0.4112040232519757,0
2821,4.077571293610373,0
2822,6.696587463802321,0
2823,-0.9440224536677253,0
2824,-1.5393034242465713,0
2825,1.5412764296904675,0
2826,-0.7935492419829004,0
2827,0.24114476968439252,0
2828,0.02967556268628586,0
2829,0.025074644607137528,0
2830,0.08198504521955151,0
2831,0.07523418976650273,0
2832,0.01011286344787335,0
2833,0.07423968158712124,0
2834,-0.017977150034223705,0
2835,0.023490363785908838,0
2836,0.05086500720284039,0
2837,0.007554863420275573,0
2838,0.032638409866012075,0
2839,0.0045933160246914365,0
2840,0.39337124740663876,0
2841,4.082882970701298,0
2842,6.602537500305158,0
2843,-0.9534000199334898,0
2844,-1.5161635431473526,0
2845,1.4471824179715496,0
2846,-0.7075409853531219,0
2847,0.2246098367919495,0
2848,-0.04093144424645429,0
2849,-0.05340197141222735,0
2850,-0.012710458964551828,0
2851,0.04313477950569334,0
2852,0.0709438599288875,0
2853,0.10585365404003072,0
2854,0.050958809234187274,0
2855,0.10662860725957324,0
2856,0.11061474365571454,0
2857,0.15399027503335638,0
2858,0.08304361015314743,0
2859,0.11902910277932444,0
2860,0.3673797999021506,0
2861,4.113171218199256,0
2862,6.706165844582695,0
2863,-1.0122308870300625,0
2864,-1.324595131680452,0
2865,1.4821320146907102,0
2866,-0.6486699488752493,0
2867,0.12391167526212873,0
2868,-0.025447577208672828,0
2869,-0.07543468950365359,0
2870,-0.06133198312738636,0
2871,0.051222402479082496,0
2872,-0.05971063860017968,0
2873,-0.01445859852563007,0
2874,0.0038259560896976366,0
2875,0.06262736617279306,0
2876,-0.08368750801357278,0
2877,0.045960069339202075,0
2878,-0.1322027063070929,0
2879,-0.027563725936496503,0
2880,0.3301503408200367,0
2881,3.9165520296507506,0
2882,6.6188115110278,0
2883,-1.117518901959397,0
2884,-1.473385000284142,0
2885,1.448046165572652,0
2886,-0.770161407054603,0
2887,0.2877172948421709,0
2888,-0.004826900915705147,0
2889,-0.02157426391319909,0
2890,0.03785743554775729,0
2891,-0.01252259869553668,0
2892,0.07603530108623091,0
2893,0.0070253694916951395,0
2894,-0.02611398273603254,0
2895,0.037159262783458935,0
2896,0.06040951388075705,0
2897,-0.02634382630613767,0
2898,-0.08023777843491442,0
2899,0.010374221256708699,0
2900,0.3439874780077653,0
2901,4.075936406493319,0
2902,6.686694405678118,0
2903,-1.1096020582983266,0
2904,-1.5813286384484089,0
2905,1.4789968159758138,0
2906,-0.8514797609681343,0
2907,0.15079222961274394,0
2908,-0.07144426556215655,0
2909,0.00395421694992297,0
2910,0.01789252018325632,0
2911,-0.0011489315265655912,0
2912,0.04070943222709271,0
2913,0.09697035014703784,0
2914,0.027840567878370873,0
2915,-0.04800267040516697,0
2916,0.00930039156690671,0
2917,0.033016297321131795,0
2918,-0.05439809771275221,0
2919,-0.007970327456984085,0
2920,0.2671634260581038,0
2921,3.937603889107445,0
2922,6.70488073175146,0
2923,-1.0864302326895647,0
2924,-1.4417101059413657,0
2925,1.4367932528384677,0
2926,-0.8425166514391302,0
2927,0.1927900994609112,0
2928,-0.03731806013664416,0
2929,0.03153320349075846,0
2930,0.050647794170363,0
2931,-0.0686377142271189,0
2932,-0.040025082566657,0
2933,0.06381890360418103,0
2934,0.013265487819976954,0
2935,0.1131270048966919,0
2936,-0.03207134116284863,0
2937,-0.01618928323819289,0
2938,-0.10385091327000981,0
2939,-0.1123125214867487,0
2940,0.42411799089896607,0
2941,4.023452072682857,0
2942,6.54294334103445,0
2943,-1.013644268269101,0
2944,-1.4882554347208805,0
2945,1.4550466181701796,0
2946,-0.8400265146825021,0
2947,0.19585337397636016,0
2948,0.025559412461505095,0
2949,-0.08216787273380949,0
2950,0.02859212374057782,0
2951,-0.06880182248204936,0
2952,-0.08952743122781438,0
2953,-0.037792464618306494,0
2954,0.02141750631143944,0
2955,-0.09991330185722999,0
2956,-0.08869800742130682,0
2957,-0.006936031999425378,0
2958,0.00141839363179087,0
2959,-0.08038216437552842,0
2960,0.36825491212161887,0
2961,4.036603813962657,0
2962,6.565939008807351,0
2963,-1.178560728300666,0
2964,-1.4379669424947468,0
2965,1.4213689209066347,0
2966,-0.805749943309395,0
2967,0.22832659843605635,0
2968,0.03163790637155369,0
2969,-0.054050045185155875,0
2970,0.10777781921131732,0
2971,-0.006354707883261257,0
2972,-0.06988075107396852,0
2973,-0.03870092892937491,0
2974,-0.04200972957587585,0
2975,-0.08264428204168703,0
2976,-0.10685485568500581,0
2977,0.06161319456006488,0
2978,-0.012953082268108092,0
2979,-0.06537391119191921,0
2980,0.36896523138224974,0
2981,4.013312646470182,0
2982,6.584973511637102,0
2983,-1.0793843934713405,0
2984,-1.59327199146824,0
2985,1.4400527155400722,0
2986,-0.8185222942697402,0
2987,0.16513751126319676,0
2988,-0.030527796287638652,0
2989,-0.05769517604007822,0
2990,0.016357786404993357,0
2991,0.01847809563670405,0
2992,-0.06678314930234724,0
2993,0.016076503358027516,0
2994,-0.026542015006279073,0
2995,-0.08731054273693951,0
2996,0.028241010145182308,0
2997,0.006580317844839763,0
2998,-0.010910915167862828,0
2999,-0.006806058309095905,0
3000,0.3889634351195835,0
3001,3.9046102168335537,0
3002,6.645822378160622,0
3003,-1.168093394066123,0
3004,-1.5222507921542519,0
3005,1.4322830556144552,0
3006,-0.8191217811644423,0
3007,0.1743434841680063,0
3008,-0.04809430658492114,0
3009,0.07392015119889762,0
3010,0.0071622175831844714,0
3011,-0.06041309801344924,0
3012,-0.009945030092272787,0
3013,-0.0431979134173401,0
3014,-0.04489346831013257,0
3015,-0.07574141659501818,0
3016,-0.14361981444578498,0
3017,0.00932776678349654,0
3018,0.06263374970322144,0
3019,-0.014255237677617303,0
3020,0.36780171185581806,0
3021,4.005008292861443,0
3022,6.614341732556065,0
3023,-1.1402040116361971,0
3024,-1.4499276830238685,0
3025,1.3484118838945842,0
3026,-0.7399080792110625,0
3027,0.16354390228427682,0
3028,-0.08029381178288345,0
3029,-0.061458473696152476,0
3030,-0.08895275758432487,0
3031,-0.07806276611587817,0
3032,0.006519601841264398,0
3033,0.04182464275663892,0
3034,-0.04775409856307182,0
3035,-0.06176491000874969,0
3036,-0.07105445582156877,0
3037,0.027932810554770607,0
3038,0.07110458620456006,0
3039,-0.06941452569056053,0
3040,0.35342933548880834,0
3041,4.021361548125305,0
3042,6.576787140466252,0
3043,-1.0887513264720825,0
3044,-1.5038939550866786,0
3045,1.3613478846391667,0
3046,-0.7409418256406606,0
3047,0.21610622968072993,0
3048,0.013740127133065865,0
3049,0.008127682784843687,0
3050,0.046809441112163994,0
3051,0.04128078948841378,0
3052,0.004674998414965778,0
3053,-0.07051632213768018,0
3054,-0.1306773549413086,0
3055,0.01762892028792549,0
3056,-0.07373694336598059,0
3057,0.004448371339588447,0
3058,-0.10578310179739275,0
3059,-0.03090597111535949,0
3060,0.38383521446163427,0
3061,3.963708449010041,0
3062,6.649558977544158,0
3063,-1.0917829590776769,0
3064,-1.5294685895543245,0
3065,1.4612932392061422,0
3066,-0.7609430928428261,0
3067,0.20500172487083843,0
3068,-0.05592306976865555,0
3069,-0.09598234336739683,0
3070,0.021107003617558653,0
3071,-0.087607214705436,0
3072,0.0004099856309961801,0
3073,0.11273699688826037,0
3074,0.06019259952101449,0
3075,-0.010541021471597904,0
3076,0.019291501393540834,0
3077,0.015947312338959095,0
3078,-0.03172530981737906,0
3079,-0.07406793780560149,0
3080,0.372320672538789,0
3081,4.059144129693026,0
3082,6.510210994505553,0
3083,-1.0918671947267569,0
3084,-1.4555188669178587,0
3085,1.4167239537135015,0
3086,-0.7946643506670911,0
3087,0.1548213706705566,0
3088,-0.11967594348779945,0
3089,-0.049476131171018664,0
3090,0.07143162247760979,0
3091,-0.028637728049410283,0
3092,-0.04423043805209838,0
3093,0.07226150462338232,0
3094,-0.06333349967172133,0
3095,-0.07763982541977685,0
3096,0.0326723391369022,0
3097,-0.010314222756298097,0
3098,0.0521281778183239,0
3099,-0.03552186335915414,0
3100,0.3834579647604091,0
3101,4.019800518643496,0
3102,6.632692256081523,0
3103,-1.109087831735271,0
3104,-1.456879514884079,0
3105,1.4897499059730503,0
3106,-0.716030759875842,0
3107,0.21512612689969582,0
3108,0.11542045401540363,0
3109,0.03012774115701971,0
3110,0.06668393380196343,0
3111,0.08679144926897149,0
3112,0.03983388099672552,0
3113,0.0011514645534621143,0
3114,0.05649139523020237,0
3115,0.010733377405127038,0
3116,-0.0054587728998851184,0
3117,0.027919588465836767,0
3118,-0.06241681629494233,0
3119,0.018555226472858188,0
3120,0.35754350184025696,0
3121,4.064173962667313,0
3122,6.582041949698205,0
3123,-1.089209130276357,0
3124,-1.3755498685554206,0
3125,1.4022931748140757,0
3126,-0.7997269501346694,0
3127,0.16964244968784375,0
3128,-0.03433634188983295,0
3129,-0.0022394843437321225,0
3130,0.007740418233649737,0
3131,-0.00941298406376687,0
3132,0.014941590393616346,0
3133,0.0353016865861974,0
3134,0.07570800920831594,0
3135,0.07081587030550233,0
3136,-0.02495107875276674,0
3137,0.09275651203272067,0
3138,-0.008865099589773204,0
3139,0.0659361559025346,0
3140,0.4240293895468493,0
3141,4.098266741530182,0
3142,6.678592807724901,0
3143,-1.1042966558303935,0
3144,-1.3863942679264858,0
3145,1.5837534917470961,0
3146,-0.7198066513034391,0
3147,0.243660348555424,0
3148,0.02317716039325882,0
3149,-0.050219380891007775,0
3150,0.1164164310461264,0
3151,-0.004805164079386422,0
3152,0.023985097601923775,0
3153,0.1077979508206536,0
3154,0.07115844084717479,0
3155,0.049776807530852944,0
3156,0.07520739796269577,0
3157,-0.0825545312751931,0
3158,0.010832015117129522,0
3159,0.06781226607896176,0
3160,0.3625761505689823,0
3161,4.156853861710595,0
3162,6.6680788976955,0
3163,-1.1003300896660586,0
3164,-1.356636477404786,0
3165,1.5096447101930834,0
3166,-0.638185824039904,0
3167,0.20075213522331603,0
3168,0.06652044092148532,0
3169,0.11588619879246902,0
3170,0.0019270204095920562,0
3171,0.06473395855822779,0
3172,0.05801150021250491,0
3173,0.05165347104143935,0
3174,0.035615905815177894,0
3175,0.1340815750790949,0
3176,0.014940139213063086,0
3177,0.08904156177278746,0
3178,0.05777016592342089,0
3179,0.08505769427989293,0
3180,0.36335171413637324,0
3181,4.110934902090749,0
3182,6.753399964813342,0
3183,-0.9763003896740478,0
3184,-1.4220974001531779,0
3185,1.495335529504382,0
3186,-0.7110926468799373,0
3187,0.3217988691871459,0
3188,0.017529318302987727,0
3189,0.13387800984874246,0
3190,0.06681410679515629,0
3191,0.07666219230771894,0
3192,0.03822933587756022,0
3193,0.21565275181009175,0
3194,0.18116358007202304,0
3195,0.07846180986818924,0
3196,0.14781431975714143,0
3197,0.1180970599387719,0
3198,0.08691519910890311,0
3199,0.12258850366737208,0
3200,0.457866047161148,0
3201,4.124847564520502,0
3202,6.7223272229868245,0
3203,-1.01906888274433,0
3204,-1.3633312179968702,0
3205,1.4972941488439824,0
3206,-0.6507031966632179,0
3207,0.25983056491311946,0
3208,0.13897432190924455,0
3209,0.05178339301162334,0
3210,0.08672662579155152,0
3211,-0.01173091458803472,0
3212,0.08347712633480586,0
3213,0.059496840319858954,0
3214,0.04450657227752246,0
3215,0.10893576790643796,0
3216,0.009611535850775788,0
3217,0.12585661209340754,0
3218,0.14778894166637518,0
3219,0.11837257484330263,0
3220,0.5600836058190451,0
3221,4.2584137056461975,0
3222,6.730631808477339,0
3223,-0.9631569457560389,0
3224,-1.2881638082183522,0
3225,1.473477166527727,0
3226,-0.7699912051021107,0
3227,0.34657163800176694,0
3228,0.02565266689146143,0
3229,-0.04456427293168479,0
3230,0.008454833506241322,0
3231,-0.006836461650123846,0
3232,0.07076303461368873,0
3233,0.10464893485493262,0
3234,0.13922556491552124,0
3235,-0.019249493243686716,0
3236,-0.03801149219979006,0
3237,0.039509297848481305,0
3238,0.11484641144652419,0
3239,0.054974050220591306,0
3240,0.4647214344798183,0
3241,4.114221014122525,0
3242,6.691309700006558,0
3243,-1.0282649503812125,0
3244,-1.39172666349746,0
3245,1.5859412354473679,0
3246,-0.5884681215392261,0
3247,0.37102291084334843,0
3248,0.05807738313186146,0
3249,0.07608059486975072,0
3250,0.10569480078871346,0
3251,0.08871358865876944,0
3252,0.1152330400645325,0
3253,0.12410992192543988,0
3254,0.17384733640079666,0
3255,0.14071826171373897,0
3256,0.06360301158344928,0
3257,-0.012379511093218942,0
3258,0.04727589562364919,0
3259,0.053844888963313554,0
3260,0.47358963544647126,0
3261,4.186824767440008,0
3262,6.674140055413506,0
3263,-1.1278562762399902,0
3264,-1.2835983579339398,0
3265,1.422597499129389,0
3266,-0.653616110512706,0
3267,0.4624837499449232,0
3268,0.10105823087780592,0
3269,0.0618766524578885,0
3270,0.15721663200393166,0
3271,0.12330814180613346,0
3272,0.09135524177838204,0
3273,0.027412139698097415,0
3274,0.16608039980673575,0
3275,0.19545689965908408,0
3276,0.16610720872980772,0
3277,0.1837824628474101,0
3278,0.08832243061312393,0
3279,0.11346637749203095,0
3280,0.5013604703086407,0
3281,4.308233335634778,0
3282,6.675418367905406,0
3283,-1.0260148860900475,0
3284,-1.3511960250576078,0
3285,1.3865844514219907,0
3286,-0.5500225904273552,0
3287,0.2530526763777823,0
3288,0.052702503561778205,0
3289,0.032034711404165604,0
3290,0.02150304480478238,0
3291,0.049987567662805724,0
3292,0.033710815502532104,0
3293,0.06494502664375403,0
3294,0.04175247029924464,0
3295,0.08935389441828154,0
3296,-0.011953848389490006,0
3297,0.02251231704575169,0
3298,0.20290648486139168,0
3299,0.11169315980369278,0
3300,0.5169211876117739,0
3301,4.118757222848808,0
3302,6.653611926705633,0
3303,-1.0326555282260108,0
3304,-1.3626199853661756,0
3305,1.44479909172094,0
3306,-0.6377571677216374,0
3307,0.3274634313847148,0
3308,0.09046991134605317,0
3309,0.09471094644366226,0
3310,0.014316676991023174,0
3311,0.03250098008289029,0
3312,0.14563008088223495,0
3313,0.024718248522205798,0
3314,0.062231228370223886,0
3315,0.09901635018177002,0
3316,0.16569487814250286,0
3317,0.05005097049877251,0
3318,0.030988296194912075,0
3319,0.003633020535750549,0
3320,0.41290019792547694,0
3321,4.174431623718898,0
3322,6.635965741763374,0
3323,-1.144491217612871,0
3324,-1.3299842352611677,0
3325,1.481748180777193,0
3326,-0.8462495926551077,0
3327,0.2280297357403752,0
3328,0.009633330322400917,0
3329,-0.03844803055877368,0
3330,0.08107254527187222,0
3331,0.05736569563639039,0
3332,0.016745410635086447,0
3333,0.06103046039718502,0
3334,0.03074637602994814,0
3335,0.017980175892583473,0
3336,-0.01856725326563658,0
3337,-0.011128490442267621,0
3338,0.0084332198542725,0
3339,-0.00011263615184073025,0
3340,0.4357601907094591,0
3341,4.134660179870618,0
3342,6.58465065755057,0
3343,-1.1632249277967206,0
3344,-1.3655112017954647,0
3345,1.3433402255228521,0
3346,-0.7109036774369757,0
3347,0.22333071732785334,0
3348,-0.06703691780929613,0
3349,-0.00918085021869982,0
3350,0.08967010002203323,0
3351,0.11457980106861992,0
3352,0.07660573722010308,0
3353,-0.002968485322544949,0
3354,0.027196060076790138,0
3355,0.09945503381227039,0
3356,-0.017155179105773646,0
3357,0.08836643187577639,0
3358,-0.05666729638490414,0
3359,0.1102265931702052,0
3360,0.4579806862135139,0
3361,4.1101031867848965,0
3362,6.60511218861365,0
3363,-1.107710112189297,0
3364,-1.4584501564854646,0
3365,1.490765595854985,0
3366,-0.7323639979061299,0
3367,0.266837019406974,0
3368,-0.015961616399653402,0
3369,0.01084078615926288,0
3370,0.08785144746580315,0
3371,0.044040176221950104,0
3372,-0.037904876053304754,0
3373,-0.041736281774097286,0
3374,0.01732922017051346,0
3375,0.0702386309503807,0
3376,0.04382617964977,0
3377,-0.0369717124353137,0
3378,0.021274062891763132,0
3379,0.058018793835028545,0
3380,0.5568327796420784,0
3381,4.134531333923377,0
3382,6.699850549571833,0
3383,-1.1248770813038842,0
3384,-1.3297729953648285,0
3385,1.462356623870123,0
3386,-0.7390457060675613,0
3387,0.28015214366782837,0
3388,-0.07382640505084456,0
3389,0.08389140917794984,0
3390,0.048494598965323286,0
3391,0.02728704762438734,0
3392,-0.025240986777427178,0
3393,0.03866525537571244,0
3394,0.034217294416033314,0
3395,0.057088451011646925,0
3396,-0.001999538660676037,0
3397,0.11453978396896725,0
3398,0.0323117334666252,0
3399,0.05091164979320918,0
3400,0.373298218746214,0
3401,4.1364214600872184,0
3402,6.640425360957337,0
3403,-1.0867141351307286,0
3404,-1.4004320783323263,0
3405,1.443940776625108,0
3406,-0.7622809512759996,0
3407,0.2246651579020147,0
3408,0.05887868481056652,0
3409,0.07068557041499124,0
3410,0.028188982772074857,0
3411,0.02480753811913157,0
3412,0.003894774632103779,0
3413,-0.016269725194565633,0
3414,0.09686838873315151,0
3415,0.008193360465061082,0
3416,-0.07054491387119631,0
3417,-0.04088967396242299,0
3418,0.049312498271762144,0
3419,0.0660601421263146,0
3420,0.40872666372676697,0
3421,4.11751686639101,0
3422,6.638780742447408,0
3423,-1.1158567463328926,0
3424,-1.4037495667051425,0
3425,1.5213785142930716,0
3426,-0.741794213388944,0
3427,0.36345017921565137,0
3428,0.07095058701542303,0
3429,-0.06094478166641387,0
3430,0.09266821586492488,0
3431,0.02257128235720638,0
3432,0.03391129588205519,0
3433,0.011332755350031268,0
3434,0.027630237198781337,0
3435,0.07921125695448546,0
3436,0.048563590876425484,0
3437,0.03662812041360116,0
3438,0.05300749168112318,0
3439,0.09305532349125116,0
3440,0.3977556300747216,0
3441,4.129427155122151,0
3442,6.56599660067175,0
3443,-1.1361685432944735,0
3444,-1.3416161460642555,0
3445,1.4440687771949616,0
3446,-0.7583444159854021,0
3447,0.16710861108459432,0
3448,-0.01219848328561255,0
3449,-0.030616187718958472,0
3450,0.04625189384027214,0
3451,0.01730403520385875,0
3452,0.06408853579213733,0
3453,0.06763520715731786,0
3454,-0.008941806972990851,0
3455,0.018381130772203363,0
3456,0.016118717744910405,0
3457,0.01547650214329162,0
3458,0.052280645343783565,0
3459,0.02099185262952546,0
3460,0.4009467938808912,0
3461,4.065570021618171,0
3462,6.572999257754581,0
3463,-1.3856173395647648,0
3464,-1.4148602957062364,0
3465,1.3785017553193462,0
3466,-0.8881386819038284,0
3467,0.24792332499169284,0
3468,-0.13697581683906976,0
3469,-0.06855450969920725,0
3470,-0.002943264396585956,0
3471,-0.038875588724082775,0
3472,0.01679871644748647,0
3473,-0.08016489002701113,0
3474,-0.06217938160895058,0
3475,0.11573870837263597,0
3476,-0.04586621565879134,0
3477,-0.0015489688694532572,0
3478,0.02770041581345914,0
3479,-0.00983893584745097,0
3480,0.43229698866559574,0
3481,4.105364388119239,0
3482,6.463268721090456,0
3483,-1.204624676264991,0
3484,-1.3643798128517783,0
3485,1.328707924369111,0
3486,-0.7211178244338177,0
3487,0.29560069843951686,0
3488,-0.06777569391083627,0
3489,-0.019352140831229585,0
3490,0.08528228467125225,0
3491,0.02603035425827077,0
3492,0.02799170554835857,0
3493,-0.07841524776718495,0
3494,-0.12417846442610438,0
3495,-0.047462123532657954,0
3496,-0.0716814095390172,0
3497,-0.0053932881993009885,0
3498,-0.10024185597782896,0
3499,-0.05500365109500176,0
3500,0.3655291168228809,0
3501,4.109764510320696,0
3502,6.442466281653795,0
3503,-1.1909448616381026,0
3504,-1.3402591229402185,0
3505,1.393050862182837,0
3506,-0.8493108041361562,0
3507,0.1544110819494353,0
3508,-0.20261432848717442,0
3509,-0.11828016303739791,0
3510,0.02722961148966122,0
3511,0.05456028143486999,0
3512,-0.05764972679317894,0
3513,-0.0720154459872927,0
3514,0.05562571934589012,0
3515,1.2655713066453953e-05,0
3516,0.09086516706455411,0
3517,-0.03216351960032733,0
3518,-0.008240472544116964,0
3519,-0.013681917049239671,0
3520,0.4575138535767296,0
3521,4.14125489858192,0
3522,6.598349214202407,0
3523,-1.1169009569351196,0
3524,-1.250360212981603,0
3525,1.4310560115533941,0
3526,-0.6955641191438987,0
3527,0.2489420114904094,0
3528,-0.046913193567341166,0
3529,-0.15497527066134262,0
3530,0.027777094588522913,0
3531,-0.01902814781013871,0
3532,-0.08116319812013104,0
3533,-0.012135352082682245,0
3534,-0.11164990473774436,0
3535,-0.1007948457726449,0
3536,-0.10979245807040436,0
3537,-0.021350932823602314,0
3538,-0.06667611085666336,0
3539,-0.16494946104748046,0
3540,0.3913112661033606,0
3541,4.083474180671784,0
3542,6.558132501428051,0
3543,-1.2642246390221168,0
3544,-1.534514237792782,0
3545,1.3448758134289773,0
3546,-0.814822144361522,0
3547,0.12584796534439313,0
3548,-0.09717774980990414,0
3549,-0.07755947250646056,0
3550,-0.020604676088413258,0
3551,-0.025748840912408942,0
3552,-0.027456193442524528,0
3553,-0.17318756706533867,0
3554,-0.011469673225657818,0
3555,-0.15226068224254813,0
3556,-0.06493717692836574,0
3557,-0.0012836759486766283,0
3558,-0.0025890747265995134,0
3559,-0.04414672237181591,0
3560,0.3270994339513412,0
3561,4.124512084898789,0
3562,6.491122878664934,0
3563,-1.2340962619539804,0
3564,-1.346580160214215,0
3565,1.3569662450273412,0
3566,-0.8328512232646351,0
3567,0.1085000768031248,0
3568,-0.03802548087727398,0
3569,0.03210851639004843,0
3570,-0.034616450156159204,0
3571,-0.10577028473096049,0
3572,0.0374705002672952,0
3573,-0.009206664287004541,0
3574,0.0011872992640515126,0
3575,0.09193370991645915,0
3576,-0.07086014885853614,0
3577,-0.06398192624113269,0
3578,-0.010935939497102675,0
3579,0.038453861802257586,0
3580,0.39473098866090756,0
3581,4.099222442559688,0
3582,6.541162537718618,0
3583,-1.2756037342398883,0
3584,-1.3757376655060105,0
3585,1.4411836943977665,0
3586,-0.8754620955620693,0
3587,0.2889747391638008,0
3588,0.0040899000959779,0
3589,-0.05454810579184193,0
3590,-0.022411397314162904,0
3591,-0.0018620200769931192,0
3592,-0.003915744724560737,0
3593,-0.0855625669550454,0
3594,0.01813657687044118,0
3595,0.013525295148074195,0
3596,0.07836232668872994,0
3597,0.057833561575265535,0
3598,0.03985918367950246,0
3599,0.1467087106312597,0
3600,0.41820543533826343,0
3601,4.1667266359815835,0
3602,6.493597676707437,0
3603,-1.1674907307789255,0
3604,-1.3482248731660869,0
3605,1.521278380026005,0
3606,-0.7376763184353804,0
3607,0.2676830266451638,0
3608,0.012533328925457802,0
3609,0.031441322714561154,0
3610,0.04579627704773328,0
3611,0.04331564601568709,0
3612,0.027537817714537335,0
3613,0.08800275661580242,0
3614,0.07732938776073178,0
3615,0.058499481673813705,0
3616,0.025279631617864336,0
3617,-0.023304102318283705,0
3618,0.023471843115656765,0
3619,-0.013321102085696411,0
3620,0.4220618077218212,0
3621,4.189787930752221,0
3622,6.609785372882812,0
3623,-1.2183284709786593,0
3624,-1.3636385436252385,0
3625,1.4296037003326565,0
3626,-0.7711082824152541,0
3627,0.18133337181833584,0
3628,0.04637884732340952,0
3629,-0.07441639427540842,0
3630,-0.01859954761861741,0
3631,-0.1263214040244822,0
3632,0.06369550526118405,0
3633,-0.053423247694229625,0
3634,0.0056637976186510106,0
3635,-0.06713354960520691,0
3636,0.05171030212644711,0
3637,0.0012641903814777488,0
3638,0.00912417872770074,0
3639,-0.05701646287708524,0
3640,0.5067999615590308,0
3641,4.224983489326354,0
3642,6.628997094686682,0
3643,-1.2711105924554513,0
3644,-1.3210476305210106,0
3645,1.4846275231697696,0
3646,-0.8742294626129845,0
3647,0.23573986160196686,0
3648,-0.13688611065209344,0
3649,0.046253046553689975,0
3650,0.07252623099243824,0
3651,0.033685107522429626,0
3652,0.02035315919822557,0
3653,-0.024164645333319815,0
3654,0.012733618397087386,0
3655,0.023787915292930995,0
3656,-0.03309905667839576,0
3657,0.06254837182665278,0
3658,0.11611882842904098,0
3659,-0.06284310975559367,0
3660,0.5327386763719805,0
3661,4.168407631828161,0
3662,6.70682978143841,0
3663,-1.1306916295961846,0
3664,-1.2865363947217443,0
3665,1.4227210606734513,0
3666,-0.7224002734396833,0
3667,0.2647129158030971,0
3668,0.032268684849544454,0
3669,-0.06809178757172706,0
3670,0.031075691377352062,0
3671,0.01256226297698283,0
3672,0.0014248716034856125,0
3673,-0.004598675256934916,0
3674,-0.05597878385414113,0
3675,0.009720423433539014,0
3676,-0.031434029336053555,0
3677,-0.030313842303427624,0
3678,-0.0044305700908372405,0
3679,0.06504497864293174,0
3680,0.4166732822523574,0
3681,4.228408000563576,0
3682,6.615516782622607,0
3683,-1.1963999112653243,0
3684,-1.3653081899899904,0
3685,1.4335737068345935,0
3686,-0.8666568778509436,0
3687,0.1485427651051503,0
3688,-0.047561986034329796,0
3689,-0.036284010032697954,0
3690,-0.0016195145725219889,0
3691,-0.05638137975378657,0
3692,0.004032798890085319,0
3693,0.16541916018395034,0
3694,-0.005300183823406182,0
3695,-0.025866881566563735,0
3696,-0.0070301144228824206,0
3697,0.014829902106887257,0
3698,-0.034101698645183594,0
3699,0.06005236561483314,0
3700,0.4552051641685225,0
3701,4.1028751344468715,0
3702,6.527159173893953,0
3703,-1.2824427888133516,0
3704,-1.3542821821553273,0
3705,1.5249084978315814,0
3706,-0.801780139824696,0
3707,0.21056892878931927,0
3708,-0.016389863573367004,0
3709,-0.04582773152840472,0
3710,-0.016193812562487028,0
3711,0.032365376168907764,0
3712,0.053029564184931766,0
3713,-0.05407746359112084,0
3714,-0.032103856604350584,0
3715,-0.09852802633795055,0
3716,-0.09059460343014675,0
3717,-0.067748782560395,0
3718,0.03902012666753379,0
3719,0.035123923320885556,0
3720,0.40629830519976606,0
3721,4.088532901845469,0
3722,6.4809016977121505,0
3723,-1.1825804449786605,0
3724,-1.3205763746474466,0
3725,1.4870894025710653,0
3726,-0.7710413363884515,0
3727,0.1690920052143181,0
3728,-0.0693451191922255,0
3729,-0.024600278565434962,0
3730,-0.017362105818058707,0
3731,0.03510987387701341,0
3732,-0.034690669120141675,0
3733,-0.0084488145471521,0
3734,0.027312981114870176,0
3735,0.00044799052761537944,0
3736,0.041121419843121135,0
3737,-0.04049506490404416,0
3738,-0.055702627841595506,0
3739,-0.02143441554987946,0
3740,0.48010368930847735,0
3741,4.194929492293299,0
3742,6.495712574966816,0
3743,-1.143716714977638,0
3744,-1.1901727799997326,0
3745,1.3612970358566918,0
3746,-0.7896539746245027,0
3747,0.27053920356728034,0
3748,0.07514903201158474,0
3749,0.008697276052691091,0
3750,0.054791969878147856,0
3751,-0.025336026007593652,0
3752,-0.025685041606386398,0
3753,-0.034685703563622355,0
3754,0.07912402120816611,0
3755,-0.11680514094825699,0
3756,0.08621944712502264,0
3757,-0.10584348673214573,0
3758,-0.03707323744079079,0
3759,-0.0732767892996139,0
3760,0.33616329911104437,0
3761,4.141724780338549,0
3762,6.466275665392264,0
3763,-1.378714754231387,0
3764,-1.452829254009981,0
3765,1.351790937160648,0
3766,-0.825952435097324,0
3767,0.29983197584767235,0
3768,0.020613321828497885,0
3769,-0.09061645111724648,0
3770,-0.06070253323782954,0
3771,-0.0357159277883829,0
3772,-0.09387167515877011,0
3773,-0.04441435610970933,0
3774,-0.03933674497775438,0
3775,-0.028693884208094607,0
3776,0.01365488862397099,0
3777,-0.023767888054763618,0
3778,-0.09517680472487722,0
3779,-0.01749091407754111,0
3780,0.4587893292470411,0
3781,4.149412577844265,0
3782,6.4813920812767245,0
3783,-1.372644888552094,0
3784,-1.3467913499645796,0
3785,1.3950456901955308,0
3786,-0.8459734049536279,0
3787,0.1517156246702987,0
3788,-0.010254124172484336,0
3789,-0.16830881393253325,0
3790,0.01908180420716811,0
3791,-0.03955926174453551,0
3792,-0.11512744158500249,0
3793,-0.05303211614524521,0
3794,0.003556216854303955,0
3795,-0.013211930800980085,0
3796,-0.040583398469540156,0
3797,-0.01893398136812744,0
3798,-0.034848982573405185,0
3799,-0.04595359519674085,0
3800,0.39788297271019557,0
3801,4.06798350963194,0
3802,6.474981347555461,0
3803,-1.3492228663528625,0
3804,-1.4107728499502068,0
3805,1.3882050201360645,0
3806,-0.8162391535276665,0
3807,0.07696169312226375,0
3808,-0.104928539903346,0
3809,-0.17585880789835825,0
3810,-0.03851104130922793,0
3811,-0.17436371688452187,0
3812,-0.13938007680989745,0
3813,0.03544240864722928,0
3814,-0.009850515834757753,0
3815,-0.1376680893868657,0
3816,-0.12810432041277078,0
3817,-0.10542578113758404,0
3818,-0.07308940486637282,0
3819,-0.11205240715900891,0
3820,0.3132620420898774,0
3821,4.15831810555781,0
3822,6.478480004759217,0
3823,-1.3592994523946567,0
3824,-1.3854533273785745,0
3825,1.2897158657806518,0
3826,-0.8835826049957892,0
3827,0.21511061567290435,0
3828,-0.07045119537044248,0
3829,-0.03502200185831383,0
3830,-0.07269174878266149,0
3831,0.015159692478497994,0
3832,-0.1048817591170744,0
3833,-0.01845505035782096,0
3834,-0.05333095365059153,0
3835,-0.1539822873986907,0
3836,-0.003188083919072715,0
3837,-0.05797101334704461,0
3838,-0.045964763470924375,0
3839,-0.020022906851359684,0
3840,0.29149540877182545,0
3841,4.104307373586796,0
3842,6.342088649937512,0
3843,-1.3708639243172611,0
3844,-1.3885984839011163,0
3845,1.309973491252058,0
3846,-0.8720063117924324,0
3847,0.10966627114862314,0
3848,-0.14465772627194118,0
3849,-0.08598834060924274,0
3850,-0.14816478122349425,0
3851,-0.07001924441778713,0
3852,-0.1636827397108902,0
3853,-0.0543027193861519,0
3854,-0.008596617491260637,0
3855,-0.1365750711488974,0
3856,-0.029577456082249518,0
3857,-0.05203256301074958,0
3858,-0.10154612756202774,0
3859,0.02416962231508564,0
3860,0.41538742558460695,0
3861,4.031308933516245,0
3862,6.434788751518825,0
3863,-1.3899299291743612,0
3864,-1.3834332001586518,0
3865,1.2744257549100644,0
3866,-0.8175580592969424,0
3867,0.2313783532929914,0
3868,-0.07007689327380984,0
3869,-0.1779781823965339,0
3870,-0.07313061020761939,0
3871,0.019825413589418757,0
3872,-0.020264836894121604,0
3873,0.05306851592721655,0
3874,-0.0837407828350236,0
3875,-0.14656942332372677,0
3876,0.01474950433464782,0
3877,0.03055893246685218,0
3878,-0.020268810242565074,0
3879,-0.06531129888417365,0
3880,0.38661873465445923,0
3881,4.103366783348172,0
3882,6.486837296889877,0
3883,-1.415806339327872,0
3884,-1.3474331829295323,0
3885,1.3641137998944246,0
3886,-0.9656262094463957,0
3887,0.2325825252898747,0
3888,-0.11736586707362648,0
3889,-0.05441826313474414,0
3890,-0.014440420895425871,0
3891,0.006601365489526487,0
3892,-0.018210892068518954,0
3893,-0.0501854399210558,0
3894,0.003208724152190409,0
3895,-0.018800916099448062,0
3896,-0.0030665086981458214,0
3897,-0.03313133185066859,0
3898,-0.016969796494515764,0
3899,-0.1751272987243122,0
3900,0.4089899732740048,0
3901,4.091039106018224,0
3902,6.41545973576167,0
3903,-1.2930158697273328,0
3904,-1.3393030722859678,0
3905,1.3096499130659267,0
3906,-0.8166911496081485,0
3907,0.28995087358895755,0
3908,-0.02090373519072667,0
3909,-0.011151085421289314,0
3910,0.04678845406468653,0
3911,-0.004703636893510051,0
3912,0.0012504678440122992,0
3913,-0.05223817355440684,0
3914,-0.012952433138362177,0
3915,0.015748648480181114,0
3916,-0.1203381896158236,0
3917,-0.04410929071308723,0
3918,-0.03753410611595589,0
3919,-0.0906163240664297,0
3920,0.4297231965511469,0
3921,4.187832868501435,0
3922,6.497396484990673,0
3923,-1.3836783634518663,0
3924,-1.2640908030883096,0
3925,1.419921295328217,0
3926,-0.8589684267222175,0
3927,0.2261684801589018,0
3928,-0.0729636121442532,0
3929,0.0008287953323567049,0
3930,0.1134488510568871,0
3931,0.015690430371506563,0
3932,-0.04600030203128666,0
3933,-0.0896360228904089,0
3934,0.05224616421454229,0
3935,-0.02431794426902701,0
3936,0.002246096838422651,0
3937,-0.003478674764522536,0
3938,0.06246745785308071,0
3939,-0.044803094397638785,0
3940,0.4619931624641493,0
3941,4.211960166261478,0
3942,6.521510332686656,0
3943,-1.2701146520651416,0
3944,-1.3624004794284028,0
3945,1.3583747845499954,0
3946,-0.8578018635268538,0
3947,0.295130013659233,0
3948,-0.13908747041318065,0
3949,-0.04372397008730577,0
3950,-0.02071492539655639,0
3951,-0.062220809139249364,0
3952,-0.0641297114038537,0
3953,-0.05367824573112513,0
3954,-0.058146802442224116,0
3955,-0.038447271147010166,0
3956,-0.0503381367316303,0
3957,-0.14782257607152088,0
3958,-0.0569539169028761,0
3959,-0.05902879772992368,0
3960,0.37468229748595294,0
3961,4.149704503186149,0
3962,6.49747235581237,0
3963,-1.2848010028661405,0
3964,-1.316215718826717,0
3965,1.3742828368607964,0
3966,-0.7863389809061171,0
3967,0.2838577068001309,0
3968,0.00291743486881791,0
3969,0.052198996972465925,0
3970,0.024740692553651397,0
3971,0.01296738961510141,0
3972,-0.05552282853113211,0
3973,-0.059287988465411987,0
3974,-0.0001560569263499359,0
3975,0.11350855767757603,0
3976,0.11068314105225514,0
3977,-0.09532316467800456,0
3978,-0.11766170823366094,0
3979,-0.008899474216217718,0
3980,0.32065571825839856,0
3981,4.198697599921359,0
3982,6.511434527732219,0
3983,-1.4179828971567996,0
3984,-1.253406490691821,0
3985,1.3748106196460248,0
3986,-0.8993428179866448,0
3987,0.2485877299273991,0
3988,-0.1440421706637027,0
3989,-0.12397711996541022,0
3990,-0.07295645895312525,0
3991,-0.015001732205415421,0
3992,0.022220372105153326,0
3993,-0.04656983621885036,0
3994,-0.004653376610449192,0
3995,-0.06000630595572773,0
3996,0.051704151692281125,0
3997,-0.06249654758721889,0
3998,-0.03852474215965953,0
3999,-0.07321323001766955,0
4000,0.3857563774893272,0
4001,4.257021252265687,0
4002,6.4805745145152756,0
4003,-1.2705661184040948,0
4004,-1.3262124301501215,0
4005,1.3103227365790042,0
4006,-0.7990132095839848,0
4007,0.2393413719984928,0
4008,-0.03951705588582069,0
4009,0.03238709920571624,0
4010,0.022433556576661233,0
4011,-0.0055119727987370595,0
4012,-0.07507449269711645,0
4013,-0.032866488640761166,0
4014,0.008486142731846995,0
4015,-0.03647265315119772,0
4016,-0.019080662476372086,0
4017,-0.08100727610907249,0
4018,0.1513421518550248,0
4019,-0.025151655649681397,0
4020,0.4563109475919639,0
4021,4.2205902169749345,0
4022,6.451113218841847,0
4023,-1.3782118746944185,0
4024,-1.3625084825404785,0
4025,1.2575792377553536,0
4026,-0.8458822131922051,0
4027,0.18898998264550312,0
4028,-0.06496613592719502,0
4029,-0.03267876849078493,0
4030,-0.061688799567405736,0
4031,-0.0264732861298798,0
4032,-0.09220365714115294,0
4033,-0.07220165076409837,0
4034,-0.048762868616184174,0
4035,-0.0642120952487697,0
4036,-8.407612102148687e-06,0
4037,-0.188238377621663,0
4038,0.0020397641865763927,0
4039,-0.04359285177700172,0
4040,0.5183010847667807,0
4041,4.115903338852709,0
4042,6.474749403622613,0
4043,-1.4397874728854767,0
4044,-1.3191695099796366,0
4045,1.3659491799663512,0
4046,-0.8330863395133086,0
4047,0.2412334010929883,0
4048,-0.117353021737125,0
4049,0.01531399833772025,0
4050,0.06636595451309316,0
4051,-0.034527734042461164,0
4052,-0.022316597570754947,0
4053,0.006426491189103722,0
4054,-0.004508482882723784,0
4055,-0.03393090371293632,0
4056,0.0038745486919622343,0
4057,-0.09786162669548386,0
4058,0.00907260739211886,0
4059,-0.011004556533823467,0
4060,0.43802082489806304,0
4061,4.192804836214261,0
4062,6.513421267315538,0
4063,-1.313155083796382,0
4064,-1.3789894388312425,0
4065,1.389808770747245,0
4066,-0.8409615126039396,0
4067,0.25097882513176584,0
4068,-0.0453737777572693,0
4069,-0.04506504923803471,0
4070,0.06324369192650393,0
4071,-0.0696606193041027,0
4072,0.049054649135966494,0
4073,0.033234490417982945,0
4074,0.0031831874522366913,0
4075,-0.0404410523771509,0
4076,0.01928478465114909,0
4077,-0.032024326826276275,0
4078,-0.07016782261040373,0
4079,-0.14536515656744287,0
4080,0.45355375965857514,0
4081,4.244237075122003,0
4082,6.53959953531839,0
4083,-1.3173428145950248,0
4084,-1.3139565667885442,0
4085,1.316508601276515,0
4086,-0.789738850846222,0
4087,0.3068991835290106,0
4088,0.04712947265451453,0
4089,-0.02464895989334895,0
4090,-0.03394293224676597,0
4091,-0.030105597475429156,0
4092,-0.052195986740331234,0
4093,-0.07864274139022256,0
4094,-0.02082619511962401,0
4095,-0.015300258106121942,0
4096,0.06864213235036219,0
4097,0.037477481942654586,0
4098,0.036971811972469945,0
4099,-0.016307786306792717,0
4100,0.4845863103158289,0
4101,4.324662264602399,0
4102,6.477560458671417,0
4103,-1.2477576116182092,0
4104,-1.330347074400442,0
4105,1.306913493107693,0
4106,-0.8151996815500251,0
4107,0.22239139457347168,0
4108,0.01891317110370083,0
4109,-0.0034621751193078063,0
4110,-0.0342861155478716,0
4111,0.014517120565340257,0
4112,0.10793783192272803,0
4113,0.026210471504532568,0
4114,0.05225385207796974,0
4115,0.04157940535238278,0
4116,-0.12251350587549593,0
4117,-0.02251556786648914,0
4118,-0.020021931188126486,0
4119,0.029483740133018337,0
4120,0.3865958406817528,0
4121,4.249802201486882,0
4122,6.561977330429373,0
4123,-1.4167802638081959,0
4124,-1.1536499112156355,0
4125,1.3956441963745387,0
4126,-0.7899948984202889,0
4127,0.2939279345778827,0
4128,-0.022817806194020768,0
4129,0.10918082887878387,0
4130,-0.00048489709732771336,0
4131,0.046633734507761516,0
4132,0.04156748421947397,0
4133,0.07397858965918959,0
4134,0.06917786003231559,0
4135,0.03129707268315127,0
4136,-0.0063040515549974,0
4137,0.0921403982379769,0
4138,0.03561208026700386,0
4139,0.1354677280932588,0
4140,0.4717658492254512,0
4141,4.2411406959820495,0
4142,6.499738291565557,0
4143,-1.33670318120583,0
4144,-1.1750180861722683,0
4145,1.3952811379311065,0
4146,-0.7954975203934469,0
4147,0.27146085278346715,0
4148,0.0047128407330433945,0
4149,-0.014677663127619978,0
4150,0.01192641882816732,0
4151,0.08095456837849117,0
4152,0.0786197249562893,0
4153,-0.07972171543119339,0
4154,0.025001963737927027,0
4155,0.03247335409126002,0
4156,0.04695015999665012,0
4157,0.039552213901731435,0
4158,-0.009719535365389963,0
4159,0.02033767661923364,0
4160,0.4628601696149671,0
4161,4.2323365185964095,0
4162,6.443859172162058,0
4163,-1.3955565672427988,0
4164,-1.231049957275791,0
4165,1.379672942342982,0
4166,-0.8482775103479779,0
4167,0.24314755680810468,0
4168,0.0029782404409246215,0
4169,0.04619181860809153,0
4170,0.06320383672634909,0
4171,0.11821529303184947,0
4172,0.14469545979557707,0
4173,0.09913138539030629,0
4174,0.13006866717159235,0
4175,0.10991117755690774,0
4176,0.09293253565714063,0
4177,0.07755942535552608,0
4178,-0.018037421879901976,0
4179,0.09704153339871967,0
4180,0.5286009090353406,0
4181,4.31042346271077,0
4182,6.565829393477779,0
4183,-1.2698710421820225,0
4184,-1.2616425397505604,0
4185,1.4131739932491758,0
4186,-0.7484720241033098,0
4187,0.2055451029752839,0
4188,0.07887934234415249,0
4189,0.1113298056745256,0
4190,0.044315572765649576,0
4191,0.0013262718711660824,0
4192,0.04351790506696658,0
4193,0.05995189121025188,0
4194,0.027889737913279544,0
4195,0.07034715886895349,0
4196,-0.049422536189231925,0
4197,0.04657386425510748,0
4198,0.016346611339563093,0
4199,0.12597268484816715,0
4200,0.5317713734821634,0
4201,4.335765241802305,0
4202,6.558514392427126,0
4203,-1.3980055012053425,0
4204,-1.1680534348372447,0
4205,1.4029307862855736,0
4206,-0.7241768471760908,0
4207,0.3539780854989373,0
4208,0.04624323151254816,0
4209,0.015326382679341851,0
4210,0.008896166763986309,0
4211,0.03506455225501275,0
4212,-0.058340589561044744,0
4213,0.05053819371734947,0
4214,0.08640967962038937,0
4215,0.042068620625307696,0
4216,0.04932916258774091,0
4217,0.08559645849855248,0
4218,0.037084162315368346,0
4219,0.08368446775699125,0
4220,0.5606715144763759,0
4221,4.310520533072133,0
4222,6.5285605913101445,0
4223,-1.2315497433157547,0
4224,-1.135847978253531,0
4225,1.5303089371246035,0
4226,-0.7390544268516849,0
4227,0.34690078558224896,0
4228,0.16213928782315887,0
4229,0.0661681145882552,0
4230,0.12633960134190417,0
4231,0.0319346269933163,0
4232,0.03091792071840242,0
4233,0.09448887458811904,0
4234,0.11313396355080618,0
4235,0.09444287189288146,0
4236,-0.018985448310901168,0
4237,0.010484592500273095,0
4238,0.12209291937860244,0
4239,0.052180665097839384,0
4240,0.5111094044997844,0
4241,4.311059413337159,0
4242,6.512618164598248,0
4243,-1.2858527694827635,0
4244,-1.2299626602635587,0
4245,1.3795607043741542,0
4246,-0.699402230974051,0
4247,0.28350100289452973,0
4248,-0.05226379490530875,0
4249,0.07492787807502108,0
4250,0.10732416280893423,0
4251,-0.09715534716045818,0
4252,0.03862150280355037,0
4253,-0.018582585205423073,0
4254,-0.0141636755880057,0
4255,0.0686185475806705,0
4256,-0.07817499782859116,0
4257,0.0029007881926868574,0
4258,0.033048845109234476,0
4259,-0.06399703655258401,0
4260,0.4470831644341102,0
4261,4.207360240000186,0
4262,6.386320134504854,0
4263,-1.4425183283011733,0
4264,-1.1268164671399108,0
4265,1.337865125957081,0
4266,-0.852117846071942,0
4267,0.20790533547687337,0
4268,-0.001568878308196811,0
4269,0.068956051656333,0
4270,0.03611427079520607,0
4271,0.05048294796573495,0
4272,-0.012381327389541676,0
4273,-0.05014617613686822,0
4274,0.04942036365512532,0
4275,0.04586761242060594,0
4276,-0.017876312892782038,0
4277,-0.03263620260199538,0
4278,0.015839088916563524,0
4279,0.007132226003623791,0
4280,0.4230785196601744,0
4281,4.2352286833117905,0
4282,6.399744474027204,0
4283,-1.382644854320928,0
4284,-1.2787301077907578,0
4285,1.283781088136084,0
4286,-0.8383981155445892,0
4287,0.1806774250957023,0
4288,-0.14877418649942226,0
4289,-0.005222075533268526,0
4290,-0.062113481409661046,0
4291,-0.04561600172326347,0
4292,-0.03111030627712017,0
4293,0.024815138343811258,0
4294,0.02525947556242786,0
4295,-0.07233041006734986,0
4296,0.043289295394651206,0
4297,-0.01776815351639203,0
4298,-0.03789341590711508,0
4299,-0.0803818342334284,0
4300,0.42682771842849543,0
4301,4.374376579885567,0
4302,6.407866824387855,0
4303,-1.4514957183783967,0
4304,-1.2196611184330368,0
4305,1.2417674529732798,0
4306,-0.8729612269243675,0
4307,0.18374147967967974,0
4308,-0.16112219611637396,0
4309,-0.04949885750296938,0
4310,0.012207001108484584,0
4311,-0.10548366533871428,0
4312,-0.11543921137468069,0
4313,-0.05917008979149269,0
4314,-0.1064699559655949,0
4315,-0.09404284696961,0
4316,-0.08781438876865019,0
4317,-0.02501335922960978,0
4318,-0.031458745363276544,0
4319,0.015404313974327594,0
4320,0.4441367930190539,0
4321,4.31230511268376,0
4322,6.500590144252258,0
4323,-1.4864609911142377,0
4324,-1.2814598270907234,0
4325,1.344677739913982,0
4326,-0.8457246799560704,0
4327,0.27862782758651394,0
4328,-0.09837147759563247,0
4329,-0.11960083017286019,0
4330,-0.07539682634145728,0
4331,-0.1239307645763781,0
4332,-0.10259535344692897,0
4333,-0.027514474652969932,0
4334,-0.06584646252519188,0
4335,-0.10981897083775426,0
4336,-0.13031923405053325,0
4337,-0.058912400763076744,0
4338,-0.11371872720506404,0
4339,-0.12286155069425092,0
4340,0.368484196530716,0
4341,4.310304506772959,0
4342,6.452858130445741,0
4343,-1.3993343376643694,0
4344,-1.25485432518184,0
4345,1.3012708525579115,0
4346,-0.8163079084382563,0
4347,0.20416157245000674,0
4348,-0.04505096837318453,0
4349,-0.07762324419216238,0
4350,0.057435473719683834,0
4351,-0.0347995063184737,0
4352,-0.030890918297810148,0
4353,-0.10445292466610527,0
4354,-0.12518674365053076,0
4355,-0.09325303632729486,0
4356,-0.08225523973705078,0
4357,-0.07049125161142553,0
4358,0.025554792862083772,0
4359,-0.04363665217032116,0
4360,0.38236502908803066,0
4361,4.252580721641815,0
4362,6.3639379778005205,0
4363,-1.5079290761072692,0
4364,-1.3144788736131854,0
4365,1.2292760195726706,0
4366,-0.9026763454235592,0
4367,0.17668466562524024,0
4368,-0.05674164623066618,0
4369,-0.13774994484643632,0
4370,-0.16815853118934804,0
4371,-0.09241968737867262,0
4372,-0.08273032025630925,0
4373,-0.039506480127912,0
4374,-0.11752790419725904,0
4375,-0.14379467898711806,0
4376,-0.10023405342539288,0
4377,-0.06160814588214042,0
4378,-0.08011602954351352,0
4379,-0.04053792395388823,0
4380,4.340097476111501,1
4381,0.5113057402659023,1
4382,0.09003890605081802,1
4383,0.051452569673823764,1
4384,0.03341317701964046,1
4385,0.06548521964678869,1
4386,0.009477130025876159,1
4387,-0.01050797506860996,1
4388,0.15096449389955363,1
4389,0.0058437584155513755,1
4390,0.05243134947204203,1
4391,0.032789181040762394,1
4392,-0.061952587301601414,1
4393,0.04350204818488021,1
4394,0.2693603091609882,1
4395,-0.7363998375099505,1
4396,1.3576674026128652,1
4397,-1.163374161833069,1
4398,-1.3428311514626763,1
4399,6.508523823827693,1
4400,4.260883980432367,1
4401,0.4638749619547247,1
4402,0.0560536111036523,1
4403,0.029063207078939873,1
4404,-0.0702220820494931,1
4405,0.030151958102896646,1
4406,0.014241988289330727,1
4407,-0.05395414984801997,1
4408,-0.004624403277497566,1
4409,0.018796582606131172,1
4410,0.025203800337831154,1
4411,0.05459829890784641,1
4412,0.049960926705694325,1
4413,-0.10130010954253504,1
4414,0.2160920727246219,1
4415,-0.8591260531635807,1
4416,1.215170073104637,1
4417,-1.2265686095990596,1
4418,-1.3861605898220466,1
4419,6.3569933363088955,1
4420,4.338174790855712,1
4421,0.3829389419691555,1
4422,-0.04327118682172844,1
4423,0.009150843307444822,1
4424,-0.06960422960510355,1
4425,0.04670589831988595,1
4426,-0.021513225379250794,1
4427,0.007904490875093546,1
4428,-0.09243213375797255,1
4429,0.03463369886466689,1
4430,0.013971755087190217,1
4431,-0.05811135206066595,1
4432,-0.0007508377443833474,1
4433,-0.13773651903893086,1
4434,0.2656327447007226,1
4435,-0.7584538671174441,1
4436,1.2698263317937604,1
4437,-1.2031386839326672,1
4438,-1.4351523142363054,1
4439,6.441357704211429,1
4440,4.24156866013242,1
4441,0.33697541686493154,1
4442,-0.010740137801901702,1
4443,-0.0745978749085322,1
4444,-0.051855809122549196,1
4445,-0.028469290711944446,1
4446,-0.03571436010348321,1
4447,-0.062434171954403546,1
4448,-0.04363435156952718,1
4449,-0.11945188578653089,1
4450,-0.02859868232585048,1
4451,-0.039743169306383,1
4452,0.011638025318068054,1
4453,-0.08778147982114246,1
4454,0.2795069438106022,1
4455,-0.8512466117796885,1
4456,1.3052476435088287,1
4457,-1.3484906636207774,1
