timestamp,value-0,is_anomaly
0,0.29137840947661514,0.0
1,3.5723443082144333,0.0
2,6.959744555195556,0.0
3,-0.16100519150635012,0.0
4,-1.9947500246785077,0.0
5,1.5787429052514914,0.0
6,-0.737317646066487,0.0
7,0.20405043522003805,0.0
8,0.1205215404710391,0.0
9,0.01346731442081929,0.0
10,0.08059006137764088,0.0
11,-0.0409182978796108,0.0
12,-0.10764743937022574,0.0
13,-0.0549064712932919,0.0
14,-0.02454863460206005,0.0
15,-0.018312816771038406,0.0
16,-0.04688041907823265,0.0
17,-0.019787650291567965,0.0
18,0.04653072102567539,0.0
19,0.01405944335317023,0.0
20,0.25192810500317686,0.0
21,3.4419847358320093,0.0
22,6.8935539250325535,0.0
23,-0.22489555057310306,0.0
24,-1.9388414788064607,0.0
25,1.5856967972177054,0.0
26,-0.6614096547822109,0.0
27,0.07157144280228321,0.0
28,0.13542831734185898,0.0
29,-0.017454189461447132,0.0
30,0.03559408113629314,0.0
31,-0.10024255880689682,0.0
32,0.05366949460317899,0.0
33,-0.007367586540135265,0.0
34,0.048033129841478964,0.0
35,0.05410078750670651,0.0
36,0.0700105855279686,0.0
37,-0.03910975394643918,0.0
38,0.06025346732792697,0.0
39,-0.0412296832515542,0.0
40,0.29989641041531795,0.0
41,3.472808375014075,0.0
42,6.880278575347607,0.0
43,-0.24165236501014326,0.0
44,-1.9696005580089335,0.0
45,1.6348759382454623,0.0
46,-0.6796118447649124,0.0
47,0.1285404792542404,0.0
48,0.028883759841372758,0.0
49,-0.004840698693336521,0.0
50,0.11024522990417392,0.0
51,-0.0017687188076373622,0.0
52,0.03582776107746012,0.0
53,0.10772231222849088,0.0
54,0.08547740208058134,0.0
55,0.05411777430267293,0.0
56,0.07145277116509646,0.0
57,0.014842523413876471,0.0
58,0.05888676870837764,0.0
59,-0.002007032668572835,0.0
60,0.22865755462017961,0.0
61,3.573704505500126,0.0
62,6.884294879250541,0.0
63,-0.24374073886573402,0.0
64,-2.034747399261124,0.0
65,1.6312932947949088,0.0
66,-0.7378384285494002,0.0
67,0.19049861739029658,0.0
68,0.009777357584743171,0.0
69,-0.038219720876487964,0.0
70,0.06394762146086001,0.0
71,-0.016586379558288365,0.0
72,0.009238318416001437,0.0
73,0.10382247337110818,0.0
74,0.040036215773604306,0.0
75,0.09732921363657923,0.0
76,0.09368727427724041,0.0
77,-0.04434690936150688,0.0
78,0.04747778357306505,0.0
79,0.04413179609853322,0.0
80,0.3011816676974096,0.0
81,3.556485779696309,0.0
82,6.998216274390285,0.0
83,-0.295148085689656,0.0
84,-1.8697566298638282,0.0
85,1.6079024285628776,0.0
86,-0.6649395504452988,0.0
87,0.13025223013835327,0.0
88,0.06873665054506127,0.0
89,0.001792429450192215,0.0
90,0.1291916316794262,0.0
91,0.05231734388278676,0.0
92,0.014981643971610413,0.0
93,0.044206693053418,0.0
94,0.04603086053481599,0.0
95,0.11644517949154144,0.0
96,0.050792993843955636,0.0
97,-0.05000115760587767,0.0
98,0.0669272582192701,0.0
99,0.004104719903860233,0.0
100,0.32531059069787377,0.0
101,3.4942736352700217,0.0
102,6.871888023784461,0.0
103,-0.2731655340158087,0.0
104,-1.8963649985018043,0.0
105,1.566292682094202,0.0
106,-0.7246372482218408,0.0
107,0.09901803949903654,0.0
108,0.13414060066576788,0.0
109,-0.06504743492889366,0.0
110,0.05414537386842889,0.0
111,0.07007942878519893,0.0
112,0.010220454682232268,0.0
113,0.06031979297782224,0.0
114,0.010964773416411874,0.0
115,0.04729852007879066,0.0
116,0.07394059044063668,0.0
117,-0.07308254574917589,0.0
118,0.03844446399437955,0.0
119,0.09919491800931134,0.0
120,0.3165510818224616,0.0
121,3.5718755957478425,0.0
122,6.84303658665991,0.0
123,-0.2457727922542475,0.0
124,-1.899363936237971,0.0
125,1.5879166559765456,0.0
126,-0.6250508894241846,0.0
127,0.17522652732682378,0.0
128,0.03068420222392412,0.0
129,0.02938716957600508,0.0
130,-0.01583290648369841,0.0
131,-0.0017253660177262526,0.0
132,0.01975544562947122,0.0
133,-0.053399859398089104,0.0
134,0.05166466034597628,0.0
135,0.01522593824616032,0.0
136,0.01814254644526539,0.0
137,0.12134215175837251,0.0
138,0.08411074065780509,0.0
139,0.015839797091514923,0.0
140,0.2543969060078621,0.0
141,3.5538859942655843,0.0
142,6.918475304081242,0.0
143,-0.2808626670232132,0.0
144,-1.8326224437636096,0.0
145,1.5280090611926465,0.0
146,-0.717662006175049,0.0
147,0.11910381407845497,0.0
148,-0.0018730619732664697,0.0
149,0.07609490491585635,0.0
150,0.0007707871134950625,0.0
151,0.009352718554476202,0.0
152,0.0072886803550178125,0.0
153,0.05437387313700162,0.0
154,-0.0030970704976765635,0.0
155,0.014041147650037958,0.0
156,0.01440610910553547,0.0
157,0.020026620067479396,0.0
158,0.039993709907338644,0.0
159,0.0062559313832301205,0.0
160,0.35789031299704355,0.0
161,3.5195063394425814,0.0
162,6.941954171650304,0.0
163,-0.272177598647914,0.0
164,-1.9141183770498629,0.0
165,1.5915870433492858,0.0
166,-0.8249449862346548,0.0
167,0.14765618001917932,0.0
168,0.0060275348567151305,0.0
169,-0.08406094071586945,0.0
170,0.08004423358061578,0.0
171,-0.017071134298332836,0.0
172,-0.07943211015272147,0.0
173,-0.02815531576350085,0.0
174,-0.031044480893721138,0.0
175,-0.03896554409916453,0.0
176,-0.03287225087808482,0.0
177,-0.011588423045635345,0.0
178,-0.08905792156610867,0.0
179,-0.056647515708497645,0.0
180,0.3877285594203467,0.0
181,3.5840692817221456,0.0
182,6.917921097057855,0.0
183,-0.2100779373333829,0.0
184,-1.9291239044936432,0.0
185,1.6304298177127685,0.0
186,-0.7069006098485241,0.0
187,0.11623126378974467,0.0
188,0.09990774269507705,0.0
189,-0.05745596444437862,0.0
190,0.01980541482387855,0.0
191,-0.011690283033760407,0.0
192,0.005240358588344433,0.0
193,0.09425205931314694,0.0
194,0.0673885522484872,0.0
195,0.0302812258785094,0.0
196,-0.0029618177154908856,0.0
197,-0.007680284352667072,0.0
198,-0.011314693224509873,0.0
199,-0.002324785663332024,0.0
200,0.21430414030918707,0.0
201,3.47575505420481,0.0
202,6.94593767799935,0.0
203,-0.24448131417982097,0.0
204,-1.9338493578344629,0.0
205,1.4845205633671483,0.0
206,-0.6226496335551437,0.0
207,0.1780956416573731,0.0
208,0.07283353186242668,0.0
209,-0.007845978420900158,0.0
210,0.07052235643673564,0.0
211,0.07050569097506013,0.0
212,0.030069829513368077,0.0
213,0.1341462126720419,0.0
214,0.025624767300120706,0.0
215,0.10696800572044532,0.0
216,0.04364455324011463,0.0
217,0.06791859583593149,0.0
218,0.08922823423466089,0.0
219,-0.01781873050311203,0.0
220,0.2963204496006441,0.0
221,3.61246151049412,0.0
222,6.859115721083201,0.0
223,-0.271326513356803,0.0
224,-1.91363862789734,0.0
225,1.406195854668428,0.0
226,-0.6505800551369697,0.0
227,0.09429841284953736,0.0
228,0.11881045449857205,0.0
229,0.03101877708688263,0.0
230,0.08860960533800191,0.0
231,-0.02146305537820263,0.0
232,0.05409235692735249,0.0
233,0.04303527253908354,0.0
234,0.05898887734898171,0.0
235,-0.038513604609376105,0.0
236,0.010790468330884522,0.0
237,-0.0008312092190897718,0.0
238,-0.0007047271730559503,0.0
239,-0.04353285615585298,0.0
240,0.19913543527828664,0.0
241,3.564317828126179,0.0
242,6.8448520518701645,0.0
243,-0.3100734492240138,0.0
244,-1.9009967683004036,0.0
245,1.536470472074412,0.0
246,-0.7524875756114155,0.0
247,0.036320134834393863,0.0
248,0.06514657279121261,0.0
249,0.014585566116087995,0.0
250,0.08539533327178521,0.0
251,-0.002723916070620041,0.0
252,0.0652373561717326,0.0
253,-0.07495302747942859,0.0
254,0.04169347328401561,0.0
255,-0.005067701145813279,0.0
256,-0.01811627265527064,0.0
257,-0.041739925338515664,0.0
258,-0.00475147963112886,0.0
259,0.022175261303458857,0.0
260,0.2887843786170708,0.0
261,3.593892903780917,0.0
262,6.886376477736337,0.0
263,-0.338856458775023,0.0
264,-1.9125774622312826,0.0
265,1.4582051295554497,0.0
266,-0.6810407420643587,0.0
267,0.24461453609200262,0.0
268,0.004392833324405383,0.0
269,-0.034581960347773076,0.0
270,0.052685217391759194,0.0
271,-0.0660495187599472,0.0
272,0.09445790394688243,0.0
273,0.07315920347953736,0.0
274,-0.030154103359489436,0.0
275,-0.00473532298175533,0.0
276,0.07848251310458024,0.0
277,-0.07264876430037669,0.0
278,0.025299579687992454,0.0
279,-0.05683816841240478,0.0
280,0.34195561409249664,0.0
281,3.54818197815406,0.0
282,6.919657392128542,0.0
283,-0.30526300980804033,0.0
284,-1.8373889968952088,0.0
285,1.6089940806108698,0.0
286,-0.675592744894338,0.0
287,0.09411870147872528,0.0
288,0.10346619543109362,0.0
289,-0.0755978428990923,0.0
290,0.010715135054831557,0.0
291,0.029013256062375266,0.0
292,-0.012312919126336537,0.0
293,0.04966369039546992,0.0
294,0.028274378360905666,0.0
295,0.06710609649518424,0.0
296,-0.003289537596135147,0.0
297,0.05483893574545748,0.0
298,0.008391017079795567,0.0
299,-0.05143564923282469,0.0
300,0.26606155983709806,0.0
301,3.540079090187024,0.0
302,6.901658986748457,0.0
303,-0.3150277112580416,0.0
304,-1.9041227007446186,0.0
305,1.589078698408591,0.0
306,-0.67114401852235,0.0
307,0.18210292981597925,0.0
308,0.09377131159577648,0.0
309,-0.01209816335387179,0.0
310,0.06552116330621743,0.0
311,-0.004298787620931492,0.0
312,0.04900460539318031,0.0
313,0.02615871311540883,0.0
314,0.07369143852585255,0.0
315,0.0691493646449044,0.0
316,0.04821558379149879,0.0
317,0.028783315688602824,0.0
318,0.0544163021906138,0.0
319,-0.0853967345450094,0.0
320,0.2309666653955481,0.0
321,3.5523874377193785,0.0
322,6.886506078812954,0.0
323,-0.4240793830720666,0.0
324,-1.9665278820300747,0.0
325,1.5375996385071125,0.0
326,-0.7423596072206339,0.0
327,0.10461600415440787,0.0
328,0.02159947199272615,0.0
329,-0.041689994912721996,0.0
330,-0.005095331238165364,0.0
331,0.03945866998871707,0.0
332,0.02445443081651004,0.0
333,0.0009742969159811862,0.0
334,0.044927123522546075,0.0
335,0.07221188311652663,0.0
336,0.18580570652998996,0.0
337,-0.045367662711030654,0.0
338,0.015354539704876716,0.0
339,0.07648331678998199,0.0
340,0.3579854750373704,0.0
341,3.4933297844027753,0.0
342,6.873834956027482,0.0
343,-0.3387896530098023,0.0
344,-1.8509368608579058,0.0
345,1.5024492691382043,0.0
346,-0.6652153249326443,0.0
347,0.1421165382029744,0.0
348,-0.028741158742484986,0.0
349,-0.06082029411799965,0.0
350,-0.023724660809010666,0.0
351,-0.007216348817390866,0.0
352,-0.054168408593249916,0.0
353,0.010700722913238824,0.0
354,0.08747221146285947,0.0
355,-0.033239531414979866,0.0
356,-0.023285718338536546,0.0
357,-0.016559714175679842,0.0
358,0.04302794766766783,0.0
359,0.02038059615973745,0.0
360,0.2550102268126874,0.0
361,3.5982453497928595,0.0
362,6.821140793442357,0.0
363,-0.3471321559052284,0.0
364,-2.1068361979980046,0.0
365,1.483232356253067,0.0
366,-0.6467780707047613,0.0
367,0.07931503912341101,0.0
368,0.03650261386422426,0.0
369,0.012981583744914774,0.0
370,-0.05574007800309338,0.0
371,-0.01306318511396473,0.0
372,0.041905095837391465,0.0
373,0.0072967634476686916,0.0
374,-0.13042188128889418,0.0
375,-0.034719871357771354,0.0
376,-0.06582453077786646,0.0
377,0.0024148976338207798,0.0
378,0.03170388073287501,0.0
379,-0.09972215102102765,0.0
380,0.1908112347746599,0.0
381,3.5295997058236566,0.0
382,6.813503155953035,0.0
383,-0.35137996517594805,0.0
384,-2.0294220658876823,0.0
385,1.5278081672204091,0.0
386,-0.7611531254227559,0.0
387,0.0718799196815256,0.0
388,0.010517610494451657,0.0
389,-0.11536488450085183,0.0
390,0.05590172030372824,0.0
391,0.057446637649295265,0.0
392,-0.03505711938196173,0.0
393,-0.060634463517075965,0.0
394,-0.0016600558077589688,0.0
395,-0.011025380945265353,0.0
396,-0.009299178791682967,0.0
397,-0.03025498431357372,0.0
398,0.02324750740397112,0.0
399,-0.03557828907719675,0.0
400,0.21616836248789773,0.0
401,3.6959468809273726,0.0
402,6.859601945909411,0.0
403,-0.3114287256828671,0.0
404,-1.9143928123220568,0.0
405,1.5267296315542405,0.0
406,-0.7086226425140449,0.0
407,0.2488989085052854,0.0
408,0.04927256571633533,0.0
409,-0.10081618647224319,0.0
410,0.09697706929759806,0.0
411,0.0212334529886822,0.0
412,0.004336178216266057,0.0
413,0.028860135217782672,0.0
414,0.021217300319557396,0.0
415,0.09962017589504059,0.0
416,0.08642196371942337,0.0
417,-0.004029448307110613,0.0
418,0.0402203098123792,0.0
419,0.08944512848079783,0.0
420,0.2998332410318397,0.0
421,3.6988435134389333,0.0
422,6.917040129683378,0.0
423,-0.25461073456065225,0.0
424,-1.772652577611126,0.0
425,1.4987129934802639,0.0
426,-0.7000242237803713,0.0
427,0.1579729881828835,0.0
428,0.10801324286703777,0.0
429,-0.0503879980459038,0.0
430,0.05707264939638923,0.0
431,0.039595720983302954,0.0
432,-0.035311675574605975,0.0
433,0.005723757269285279,0.0
434,0.024316711957827898,0.0
435,0.03458462678338117,0.0
436,0.035560658209441126,0.0
437,0.18676629691238225,0.0
438,0.0015772825179484837,0.0
439,0.0068290939018310825,0.0
440,0.2356526494354954,0.0
441,3.5737306718857473,0.0
442,6.895393479050738,0.0
443,-0.372006083000593,0.0
444,-1.9114756010205987,0.0
445,1.5393907694965983,0.0
446,-0.7073054688786599,0.0
447,0.26102992970181094,0.0
448,0.19092442835173368,0.0
449,-0.03214198814490261,0.0
450,-0.06119748176045997,0.0
451,0.06919147037830756,0.0
452,0.01618275482911502,0.0
453,-0.03084414537172962,0.0
454,0.09713078051475182,0.0
455,0.02246146918160172,0.0
456,0.013800790732851561,0.0
457,0.03839145676962138,0.0
458,0.11654722600218162,0.0
459,0.02943892292418237,0.0
460,0.35869564817986227,0.0
461,3.622999032027179,0.0
462,6.897766417467101,0.0
463,-0.23553699371996206,0.0
464,-1.9063830391479553,0.0
465,1.4389431141790845,0.0
466,-0.7460643866885325,0.0
467,0.19504575001971447,0.0
468,0.07824087980075173,0.0
469,-0.03380729481836703,0.0
470,0.14077006350198434,0.0
471,0.06524817895194807,0.0
472,0.03114168756172018,0.0
473,0.041101496271941644,0.0
474,0.04975959583674263,0.0
475,-0.011540715506573561,0.0
476,0.01350577121654671,0.0
477,0.07186991827140708,0.0
478,0.03111489511806849,0.0
479,0.12971011228254542,0.0
480,0.3050931386364977,0.0
481,3.578824073988076,0.0
482,6.891766989075525,0.0
483,-0.3996938341092921,0.0
484,-1.7718903302998008,0.0
485,1.5594802110128614,0.0
486,-0.6297652760343833,0.0
487,0.1853595113371433,0.0
488,0.12780712778039138,0.0
489,-0.0429203946998136,0.0
490,0.10618760853009293,0.0
491,0.031126926813168733,0.0
492,0.026796106333138753,0.0
493,-0.023518119327008882,0.0
494,0.12029209999411072,0.0
495,0.004837548857585111,0.0
496,0.05938866769989661,0.0
497,-0.023314403738211704,0.0
498,0.019352388985330947,0.0
499,0.04827325805157584,0.0
500,0.3372421208940465,0.0
501,3.749686674682793,0.0
502,6.8532311374801305,0.0
503,-0.433404785997919,0.0
504,-1.8277973658895268,0.0
505,1.5665608106283395,0.0
506,-0.6257927057874182,0.0
507,0.28756794337529623,0.0
508,0.057317668510422526,0.0
509,0.030659373573916276,0.0
510,0.10545895655847125,0.0
511,0.026735222833403988,0.0
512,0.08284367399832177,0.0
513,0.01722493542633774,0.0
514,0.13156620165711175,0.0
515,0.09868868464211955,0.0
516,0.07887659545274864,0.0
517,0.056076339121876845,0.0
518,-0.00796845791515554,0.0
519,0.02016003405929795,0.0
520,0.41723845242021956,0.0
521,3.585513009960499,0.0
522,6.949436175991783,0.0
523,-0.29001673833841835,0.0
524,-1.7794460021922867,0.0
525,1.5180294207923384,0.0
526,-0.6604316986151633,0.0
527,0.15992903311830678,0.0
528,0.12913340867822423,0.0
529,0.003579660996488009,0.0
530,0.12669663239116383,0.0
531,0.02365409772106427,0.0
532,-0.003153636366446569,0.0
533,0.07274169912476952,0.0
534,0.042804776099541676,0.0
535,-0.0013618703289349741,0.0
536,-0.004878964329588849,0.0
537,0.03610146247103659,0.0
538,0.07056323289331876,0.0
539,-0.08272171120737805,0.0
540,0.31082368443064134,0.0
541,3.642930747097223,0.0
542,6.9075981573202165,0.0
543,-0.3786651140362689,0.0
544,-1.803777802087407,0.0
545,1.551910176524379,0.0
546,-0.7076437844557584,0.0
547,0.1223669829881534,0.0
548,0.10209010504859826,0.0
549,-0.007571635640040441,0.0
550,0.057240232481052186,0.0
551,0.06616588639687652,0.0
552,0.08819429112006637,0.0
553,0.06313546780851129,0.0
554,0.11749829092342359,0.0
555,0.03986011791185408,0.0
556,0.08861486550917805,0.0
557,0.05601709667763667,0.0
558,0.08433231770993194,0.0
559,0.050678394130056474,0.0
560,0.2975805207937242,0.0
561,3.673600619884159,0.0
562,6.93210586320051,0.0
563,-0.3504273731615521,0.0
564,-1.8733963243971383,0.0
565,1.5428135127190203,0.0
566,-0.666412593421318,0.0
567,0.20230699892207557,0.0
568,0.11010782613283747,0.0
569,-0.03795756688634075,0.0
570,0.1077227159193824,0.0
571,0.06022431154371074,0.0
572,-0.028874004925094496,0.0
573,0.09352893799118625,0.0
574,0.09617031773424004,0.0
575,0.03541668458067882,0.0
576,0.01114786597462111,0.0
577,0.11849616882649758,0.0
578,-0.08263144548314584,0.0
579,0.05885021937808603,0.0
580,0.2976345724389699,0.0
581,3.6813664451200205,0.0
582,6.827463600176766,0.0
583,-0.3548246524558195,0.0
584,-1.8219827508774005,0.0
585,1.5381237221178816,0.0
586,-0.7158600629007554,0.0
587,0.12418570825239791,0.0
588,0.06873084130829384,0.0
589,0.074638605036848,0.0
590,0.048354612904861406,0.0
591,-0.00896973598383402,0.0
592,-0.01875072874055742,0.0
593,0.056085200056650464,0.0
594,0.06029142701895606,0.0
595,0.04297861155087694,0.0
596,0.011078190839361407,0.0
597,-0.06099640026540886,0.0
598,-0.03526951929893493,0.0
599,0.06259279526006184,0.0
600,0.3269213891156717,0.0
601,3.596277423029757,0.0
602,6.796980510213101,0.0
603,-0.38999842852246686,0.0
604,-1.8794750256264132,0.0
605,1.6066403003993934,0.0
606,-0.6842379342840714,0.0
607,0.09050984576054782,0.0
608,0.04447518962074992,0.0
609,-0.0013097218073020792,0.0
610,0.14004867998381418,0.0
611,0.03276013152380451,0.0
612,0.005104712054480581,0.0
613,-0.03858971148140889,0.0
614,-0.025399828391111254,0.0
615,0.03775942476116838,0.0
616,0.1806151493208476,0.0
617,-0.030447637902675052,0.0
618,0.12228865771087855,0.0
619,0.07686609845079286,0.0
620,0.41640846070434134,0.0
621,3.608386629449447,0.0
622,6.909449913828379,0.0
623,-0.4255745736783196,0.0
624,-1.7667310827816656,0.0
625,1.6475011619073614,0.0
626,-0.694298863901665,0.0
627,0.20692881464608037,0.0
628,0.04660295634556974,0.0
629,0.019151401155772768,0.0
630,0.042640063256145576,0.0
631,0.028022722893117923,0.0
632,-0.016957603210486394,0.0
633,-0.04436673839885677,0.0
634,0.04441991702163294,0.0
635,0.028414039002558795,0.0
636,0.027714787793059338,0.0
637,-0.0594827641774221,0.0
638,0.01293382147957482,0.0
639,-0.032539236172655556,0.0
640,0.2528385079154319,0.0
641,3.5961747491622527,0.0
642,6.884252226494074,0.0
643,-0.4557365289024652,0.0
644,-1.7941045799458848,0.0
645,1.6250027408962207,0.0
646,-0.7578123958612435,0.0
647,0.11325477492017741,0.0
648,0.02435396926855543,0.0
649,-0.010445015485038964,0.0
650,0.02919758340765334,0.0
651,0.042259990209164704,0.0
652,0.015607003401497975,0.0
653,0.07570967681809504,0.0
654,0.0992466792196308,0.0
655,0.02575518969858214,0.0
656,-0.012384991006378354,0.0
657,-0.006556283222111121,0.0
658,-0.015551512838322554,0.0
659,-0.0008775334859849153,0.0
660,0.26777301486144395,0.0
661,3.6683348591027354,0.0
662,6.894292591836175,0.0
663,-0.46717471940490346,0.0
664,-1.7396190855005895,0.0
665,1.4423893259795755,0.0
666,-0.6316546116629311,0.0
667,0.16451869554895915,0.0
668,0.0048755142153913324,0.0
669,-0.08502652987490987,0.0
670,-0.06520026406780915,0.0
671,-0.008956057821895652,0.0
672,-0.022292164283764487,0.0
673,0.053801168610713185,0.0
674,0.09869864743246967,0.0
675,0.07863045393986515,0.0
676,-0.016774756056836985,0.0
677,0.006137704034481769,0.0
678,-0.05150058691973745,0.0
679,0.028132796060767566,0.0
680,0.32218651922001784,0.0
681,3.5843088845593947,0.0
682,6.8261288714868,0.0
683,-0.3415635404086288,0.0
684,-1.8038812784629417,0.0
685,1.5408220714563965,0.0
686,-0.7914944741236055,0.0
687,0.11913639618968448,0.0
688,0.11584314038501989,0.0
689,-0.003649444742139251,0.0
690,0.01297152193957556,0.0
691,0.028687154291847778,0.0
692,-0.019125715256646053,0.0
693,0.019369676953704736,0.0
694,0.0991259681405876,0.0
695,0.039117211828574944,0.0
696,0.14836981396008833,0.0
697,0.06957457132162419,0.0
698,0.00042013999423891335,0.0
699,-0.01608252334613497,0.0
700,0.34057617469408863,0.0
701,3.661596047815328,0.0
702,6.9107968156842725,0.0
703,-0.3903405384885987,0.0
704,-1.812058553648542,0.0
705,1.5694593254033142,0.0
706,-0.7069235214037498,0.0
707,0.16503860462931846,0.0
708,0.008579284174704056,0.0
709,-0.05860315968069919,0.0
710,-0.022407545520118193,0.0
711,0.009521393589878519,0.0
712,-0.011601745800185203,0.0
713,0.1121235942758212,0.0
714,-0.051010912358804145,0.0
715,0.061432030743525864,0.0
716,0.06230703121585487,0.0
717,-0.08961120067139565,0.0
718,0.021360196329362417,0.0
719,0.007130972809735388,0.0
720,0.2970939128389428,0.0
721,3.6415723195810914,0.0
722,6.895779618555852,0.0
723,-0.5139056528037883,0.0
724,-1.818474659906364,0.0
725,1.5632671550733879,0.0
726,-0.708927945039103,0.0
727,0.19213863155481475,0.0
728,0.01442434388759211,0.0
729,-0.19150530550634381,0.0
730,-0.06909732384134994,0.0
731,-0.1368685400209519,0.0
732,0.066210386419547,0.0
733,0.03753400283330863,0.0
734,-0.02994944885424311,0.0
735,-0.030465761858920987,0.0
736,0.057057461941220085,0.0
737,0.05394639654746412,0.0
738,-0.008816870735920988,0.0
739,0.03608246515329127,0.0
740,0.2967336081820472,0.0
741,3.590883924268421,0.0
742,6.825335044542239,0.0
743,-0.42705160749687165,0.0
744,-1.7657345757556018,0.0
745,1.5413607304322496,0.0
746,-0.8125405368369366,0.0
747,0.10183114806990946,0.0
748,-0.07596188819357405,0.0
749,-0.10084795098492787,0.0
750,-0.0013614333762670475,0.0
751,-0.13194521247565225,0.0
752,-0.006492163353682301,0.0
753,-0.08190359196123526,0.0
754,-0.09064557794076622,0.0
755,-0.03095385908128467,0.0
756,-0.10326099202557695,0.0
757,-0.07342397779046289,0.0
758,-0.14081163821984027,0.0
759,0.026824475328636126,0.0
760,0.28973212288231026,0.0
761,3.639563972186037,0.0
762,6.800911926747147,0.0
763,-0.45351465830393123,0.0
764,-1.8496510152749572,0.0
765,1.541644440869428,0.0
766,-0.7051619830907602,0.0
767,0.09145182048358248,0.0
768,0.02644573665905705,0.0
769,-0.10753419794308006,0.0
770,0.010351598206907989,0.0
771,0.023347707143423435,0.0
772,-0.02682784213265525,0.0
773,-0.008994301126147405,0.0
774,-0.003165500132190281,0.0
775,0.025269012179177874,0.0
776,0.04826169202339573,0.0
777,0.016367197078239547,0.0
778,-0.031746954965630986,0.0
779,-0.03143102444039424,0.0
780,0.3041199645189316,0.0
781,3.583843402333607,0.0
782,6.690471478676736,0.0
783,-0.5535842481093115,0.0
784,-1.8786881552373897,0.0
785,1.4519778393399354,0.0
786,-0.7971100359417737,0.0
787,0.16843177262376915,0.0
788,0.0207509353998067,0.0
789,-0.10289505275874619,0.0
790,-0.05869817633234776,0.0
791,-0.05082300311605584,0.0
792,-0.06119498189466832,0.0
793,-0.0710733547747186,0.0
794,-0.03523296533376081,0.0
795,-0.10325299788983199,0.0
796,0.008532108917931422,0.0
797,0.047484922008346954,0.0
798,-0.03473156864032506,0.0
799,-0.03821395818347961,0.0
800,0.3662230606363464,0.0
801,3.6475796868632124,0.0
802,6.710477451926799,0.0
803,-0.5221085626274123,0.0
804,-1.8900380248788533,0.0
805,1.5318564508602313,0.0
806,-0.7382022994084433,0.0
807,0.13431564247897668,0.0
808,-0.08575045345428743,0.0
809,-0.008247408369624634,0.0
810,0.012606976677910388,0.0
811,0.002816107663947777,0.0
812,-0.03757861738696874,0.0
813,-0.016939472142865685,0.0
814,0.019193521915103685,0.0
815,0.07563370160442418,0.0
816,-0.03504082631523818,0.0
817,0.10298235353669487,0.0
818,0.05275757604846695,0.0
819,-0.009198268107781111,0.0
820,0.22409177215681012,0.0
821,3.598285558879434,0.0
822,6.8344476799586635,0.0
823,-0.46392521830596944,0.0
824,-1.8707621455929644,0.0
825,1.4528314669351878,0.0
826,-0.7764786807916959,0.0
827,0.0750329303548235,0.0
828,-0.10391557684187595,0.0
829,-0.1741830133204338,0.0
830,-0.09876899343430301,0.0
831,-0.04451078398576285,0.0
832,-0.13652382810851016,0.0
833,0.0024543274985594082,0.0
834,-0.08853933376105377,0.0
835,-0.006426188875265831,0.0
836,-0.04598516883182156,0.0
837,-0.1007919489699254,0.0
838,-0.05810313384993667,0.0
839,-0.05565630567302406,0.0
840,0.35170342816763117,0.0
841,3.6745120025783087,0.0
842,6.874196445520506,0.0
843,-0.4496247754838624,0.0
844,-1.7774181539065634,0.0
845,1.4697792106035954,0.0
846,-0.7568221521551344,0.0
847,0.25168800255831325,0.0
848,0.1113484379066888,0.0
849,-0.00852736392366947,0.0
850,0.018578609247996695,0.0
851,-0.043242898301340066,0.0
852,-0.022675381506734305,0.0
853,0.032833597149308946,0.0
854,0.022300322335784935,0.0
855,-0.010590163085254841,0.0
856,-0.11664359701310999,0.0
857,0.06057398033409253,0.0
858,-0.017288440902201083,0.0
859,-0.05414298976825832,0.0
860,0.3715960968392377,0.0
861,3.651888440440813,0.0
862,6.8213477763066885,0.0
863,-0.45879524409575895,0.0
864,-1.9266301061238782,0.0
865,1.4473089599125206,0.0
866,-0.7508011796024212,0.0
867,0.16783223476864104,0.0
868,0.017853530959425153,0.0
869,-0.1342714731004423,0.0
870,0.04013790314396995,0.0
871,-0.07239484110906022,0.0
872,-0.013144621348840183,0.0
873,-0.06027819776758434,0.0
874,-0.016501833949709808,0.0
875,-0.13005745991950854,0.0
876,-0.036875154855260786,0.0
877,-0.033216370097431835,0.0
878,-0.07341358582117599,0.0
879,0.06352325692871277,0.0
880,0.29765520176642923,0.0
881,3.6750343074472074,0.0
882,6.841001033824991,0.0
883,-0.38335143843085534,0.0
884,-1.8299132168845693,0.0
885,1.497334803824554,0.0
886,-0.7201215737754365,0.0
887,0.20151462108121465,0.0
888,0.047828783047214114,0.0
889,-0.10101513665274019,0.0
890,-0.011523856676894364,0.0
891,0.06384161574386507,0.0
892,-0.043207733141162864,0.0
893,-0.047449131116551364,0.0
894,0.07004745636258104,0.0
895,0.01710383434893104,0.0
896,0.03163827072647197,0.0
897,0.0415072256595184,0.0
898,0.09033032630760085,0.0
899,-0.013492049671334971,0.0
900,0.35548132112216224,0.0
901,3.68564236907106,0.0
902,6.771186378132634,0.0
903,-0.41754769769856476,0.0
904,-1.8415169877882218,0.0
905,1.509603875279649,0.0
906,-0.83371572926499,0.0
907,0.19470949735215803,0.0
908,-0.06685214881710458,0.0
909,-0.1791485281335103,0.0
910,-0.07429838701986707,0.0
911,-0.04192070686228488,0.0
912,-0.03443559700451046,0.0
913,-0.12886696111488666,0.0
914,0.04873559568376788,0.0
915,-0.03958512746406041,0.0
916,0.009323676792211251,0.0
917,-0.028128597883667908,0.0
918,-0.03883812303183238,0.0
919,0.021802513849264123,0.0
920,0.23851692981168945,0.0
921,3.6082384238831113,0.0
922,6.7849800212308695,0.0
923,-0.4738789688756022,0.0
924,-1.7750649363307947,0.0
925,1.5026338309163574,0.0
926,-0.7267094682734233,0.0
927,0.12052742620837818,0.0
928,0.12528782261029858,0.0
929,-0.014160832558717619,0.0
930,-0.00371924373568977,0.0
931,0.06472594512757601,0.0
932,0.03787167711149006,0.0
933,0.0494543912677288,0.0
934,-0.023378968317968433,0.0
935,0.050029530210246,0.0
936,0.053481114968177874,0.0
937,0.06521017033294335,0.0
938,0.010496735986149634,0.0
939,0.015703836450055304,0.0
940,0.32347205965524733,0.0
941,3.8081794908549282,0.0
942,6.950870703678439,0.0
943,-0.4892063658760012,0.0
944,-1.8213286293279827,0.0
945,1.4960516904706607,0.0
946,-0.7367929591812287,0.0
947,0.1587615389951285,0.0
948,0.07738803164060795,0.0
949,-0.021513183924608666,0.0
950,-0.07329637449515918,0.0
951,0.018294108580239027,0.0
952,-0.029442696129298215,0.0
953,0.0831656949723453,0.0
954,0.027572112747987727,0.0
955,-0.07381104364784016,0.0
956,0.048962375613872455,0.0
957,0.03255212561839737,0.0
958,-0.04885891531545401,0.0
959,0.04495266704340316,0.0
960,0.25575910540372365,0.0
961,3.635416854059391,0.0
962,6.731956429882959,0.0
963,-0.588955016402316,0.0
964,-1.8197235247956167,0.0
965,1.4879747307820197,0.0
966,-0.8475552919966766,0.0
967,0.04540830953203198,0.0
968,0.03522333549404745,0.0
969,-0.0800474667592773,0.0
970,0.032081333578016985,0.0
971,-0.08047465633110733,0.0
972,0.05978434163104042,0.0
973,0.001432853075958222,0.0
974,-0.053088541030118834,0.0
975,-0.0471066841808247,0.0
976,0.045444694734052056,0.0
977,-0.03551493911030704,0.0
978,-0.07225403707551406,0.0
979,0.056179015452934244,0.0
980,0.3104082661262529,0.0
981,3.6446110316692035,0.0
982,6.8202770308064355,0.0
983,-0.6207910987842717,0.0
984,-1.9116395661235817,0.0
985,1.4674502554839344,0.0
986,-0.7824322882474031,0.0
987,0.06997192411796915,0.0
988,-0.015597133651704533,0.0
989,-0.08659944980824658,0.0
990,0.08726908563266066,0.0
991,-0.021135012840982115,0.0
992,0.04737964435404205,0.0
993,-0.04437118312094174,0.0
994,-0.010214016943967466,0.0
995,-0.04446500399066206,0.0
996,0.0255693000885736,0.0
997,-0.013189617945812521,0.0
998,-0.03576085004699171,0.0
999,0.020697529951234694,0.0
1000,0.3027426101563375,0.0
1001,3.69231248493678,0.0
1002,6.841128772108819,0.0
1003,-0.47415880155648354,0.0
1004,-1.8221642137889325,0.0
1005,1.4815517770367168,0.0
1006,-0.7772795068153237,0.0
1007,0.11686267420471465,0.0
1008,0.04283795174756934,0.0
1009,-0.04395942767320599,0.0
1010,-0.04995763511825561,0.0
1011,-0.1350462032648882,0.0
1012,-0.009128566602697681,0.0
1013,-0.0014407192559917174,0.0
1014,0.04152758489376368,0.0
1015,-0.09985289898746004,0.0
1016,0.037489216107506204,0.0
1017,0.10239310551971104,0.0
1018,0.0371565562752367,0.0
1019,-0.09477622578310359,0.0
1020,0.2794751050722499,0.0
1021,3.6781872204345,0.0
1022,6.821096687968501,0.0
1023,-0.517557635241449,0.0
1024,-1.804930380316234,0.0
1025,1.527427223345652,0.0
1026,-0.7014574592924929,0.0
1027,0.13797963091387616,0.0
1028,-0.02493215357732055,0.0
1029,-0.10313869438263504,0.0
1030,-0.11848950345510312,0.0
1031,-0.10142754367348912,0.0
1032,-0.045144156595863585,0.0
1033,-0.01139672797665471,0.0
1034,0.05686209276145499,0.0
1035,0.055814677767088594,0.0
1036,-0.021738298208221953,0.0
1037,0.01259465257877553,0.0
1038,-0.06308542738242125,0.0
1039,-0.014799107856626548,0.0
1040,0.35297595256239117,0.0
1041,3.6421304961112138,0.0
1042,6.833843954399411,0.0
1043,-0.5624567870024595,0.0
1044,-1.8579428336730377,0.0
1045,1.5747183780907827,0.0
1046,-0.7525962961113514,0.0
1047,0.15966479536593267,0.0
1048,0.04649534458761109,0.0
1049,-0.011196278954576734,0.0
1050,0.06637575701525521,0.0
1051,0.07338000340626119,0.0
1052,0.032548896136777486,0.0
1053,0.016460287039183903,0.0
1054,-0.05825242112083891,0.0
1055,-0.05081410042675139,0.0
1056,-0.020085408591053434,0.0
1057,-0.028514177911071102,0.0
1058,-0.06641605562690282,0.0
1059,0.06401455209581308,0.0
1060,0.28915242379262157,0.0
1061,3.7140047240734235,0.0
1062,6.820810221403779,0.0
1063,-0.5553540930899314,0.0
1064,-1.7781099889760497,0.0
1065,1.5149397973330403,0.0
1066,-0.7859129590155671,0.0
1067,0.08974347860676418,0.0
1068,-0.026254217714306874,0.0
1069,-0.1864874678835558,0.0
1070,-0.053095683441399213,0.0
1071,-0.027534470891984533,0.0
1072,-0.03207558788060251,0.0
1073,-0.10409985982331008,0.0
1074,-0.12405464824033433,0.0
1075,-0.018184436158361024,0.0
1076,-0.09904766926086006,0.0
1077,-0.045548283559416605,0.0
1078,-0.08149957003448291,0.0
1079,-0.0720952635010648,0.0
1080,0.2668216363412777,0.0
1081,3.608575552252672,0.0
1082,6.80433731869951,0.0
1083,-0.5897924190094628,0.0
1084,-1.8660290415385201,0.0
1085,1.5722829357939399,0.0
1086,-0.7977430148271296,0.0
1087,0.07982411829179498,0.0
1088,-0.12506957434235888,0.0
1089,-0.09567879731496842,0.0
1090,-0.016042203929868964,0.0
1091,0.06228170544648985,0.0
1092,0.06971091982012001,0.0
1093,-0.01461853522178019,0.0
1094,-0.000297582246786823,0.0
1095,-0.09147398066227475,0.0
1096,-0.061416569699303654,0.0
1097,-0.0897883163067072,0.0
1098,-0.057388373022408457,0.0
1099,-0.04624924330431343,0.0
1100,0.3513073884880206,0.0
1101,3.582621958340472,0.0
1102,6.698912589137097,0.0
1103,-0.5560118695296458,0.0
1104,-1.8475130808207014,0.0
1105,1.4796278841442954,0.0
1106,-0.7324632818852979,0.0
1107,0.120610119370602,0.0
1108,-0.03647444010061854,0.0
1109,0.045659460694483844,0.0
1110,0.010389374511608304,0.0
1111,-0.03261273380984955,0.0
1112,-0.08387484831311746,0.0
1113,0.07379805814167625,0.0
1114,0.05257086564339512,0.0
1115,0.08588790275123985,0.0
1116,0.07157545163753504,0.0
1117,0.042986643431695955,0.0
1118,0.060413999437647053,0.0
1119,0.05247011176880982,0.0
1120,0.29258500255610254,0.0
1121,3.700729160447629,0.0
1122,6.857107699814792,0.0
1123,-0.6258277046583075,0.0
1124,-1.6944876239119346,0.0
1125,1.5406907907481486,0.0
1126,-0.735049246159663,0.0
1127,0.22993752809989657,0.0
1128,0.022301414565962976,0.0
1129,0.00038707355893254775,0.0
1130,0.045336533575737,0.0
1131,0.00597789667055177,0.0
1132,0.003562790943625457,0.0
1133,0.014803559675899459,0.0
1134,0.1462671809241383,0.0
1135,0.0998204510809827,0.0
1136,0.00023510851492399704,0.0
1137,0.03577343389846918,0.0
1138,0.10445359956981554,0.0
1139,0.13370128587508526,0.0
1140,0.2577882038085587,0.0
1141,3.754485861658319,0.0
1142,6.866407715586794,0.0
1143,-0.4963286200749708,0.0
1144,-1.8232524123353107,0.0
1145,1.4549298851057122,0.0
1146,-0.8128783640267497,0.0
1147,0.14566366901364328,0.0
1148,-0.07211972340174674,0.0
1149,-0.05913525910644933,0.0
1150,0.07819435744526324,0.0
1151,-0.13662909738929435,0.0
1152,-0.07541689241974656,0.0
1153,-0.025092633828312477,0.0
1154,-0.12450235251888714,0.0
1155,-0.07101594937932454,0.0
1156,-0.011318464162248257,0.0
1157,-0.07261312197165229,0.0
1158,0.031192405398977177,0.0
1159,-0.042369653912962754,0.0
1160,0.41809899757894853,0.0
1161,3.7208547878096474,0.0
1162,6.896864253619859,0.0
1163,-0.6183731208073034,0.0
1164,-1.7410587348059714,0.0
1165,1.542671578051344,0.0
1166,-0.7556153381995001,0.0
1167,0.22195197053766189,0.0
1168,0.026747381188684173,0.0
1169,0.003221686770507541,0.0
1170,0.11950515246230012,0.0
1171,0.05692804499587688,0.0
1172,-0.017013652718309867,0.0
1173,-0.04859975945156981,0.0
1174,0.03629582679494014,0.0
1175,-0.002862807931463339,0.0
1176,-0.03731749739701144,0.0
1177,0.07839132515723252,0.0
1178,0.03722878551624408,0.0
1179,0.01338287116984424,0.0
1180,0.36482019124268744,0.0
1181,3.772787951478409,0.0
1182,6.852349290440563,0.0
1183,-0.5395166591702674,0.0
1184,-1.72507276890488,0.0
1185,1.5123597572004825,0.0
1186,-0.6297016737446531,0.0
1187,0.20617853704492373,0.0
1188,0.048045090038411134,0.0
1189,0.07895538898203301,0.0
1190,-0.022547471800848373,0.0
1191,0.027766835832544457,0.0
1192,0.1500268773006563,0.0
1193,0.03569765013380734,0.0
1194,0.07715922685617413,0.0
1195,0.009584486279304555,0.0
1196,0.019377929003452497,0.0
1197,0.012328574696778456,0.0
1198,0.028819638131341273,0.0
1199,0.12873822209368857,0.0
1200,0.3731607507427697,0.0
1201,3.8365655428465955,0.0
1202,6.906612923427931,0.0
1203,-0.5287352971901799,0.0
1204,-1.7462827908589371,0.0
1205,1.5821898892969406,0.0
1206,-0.5883060043299193,0.0
1207,0.272349441386655,0.0
1208,0.09758191338176973,0.0
1209,0.006065362955531517,0.0
1210,0.1236320797742956,0.0
1211,0.09751769562856832,0.0
1212,0.040878910501309075,0.0
1213,0.06317664646564022,0.0
1214,0.10002151604187737,0.0
1215,0.029581846594734923,0.0
1216,0.019346609396981344,0.0
1217,-0.00225350170181194,0.0
1218,0.005620456812023819,0.0
1219,0.08518721250021358,0.0
1220,0.301190401460746,0.0
1221,3.8079474017166333,0.0
1222,6.841478862807514,0.0
1223,-0.6053931773611427,0.0
1224,-1.7488076454207437,0.0
1225,1.5558265508238183,0.0
1226,-0.6889785307573033,0.0
1227,0.21841102496409612,0.0
1228,0.0008537132472041312,0.0
1229,-0.018950168778773164,0.0
1230,0.0888738503371378,0.0
1231,0.08346908667022536,0.0
1232,0.03235108759374298,0.0
1233,0.049432464265023957,0.0
1234,0.07830043539423095,0.0
1235,0.03275783629598639,0.0
1236,0.04438986690658819,0.0
1237,-0.008206180859492776,0.0
1238,-0.062478908071066194,0.0
1239,0.07826619155828987,0.0
1240,0.37459870756859476,0.0
1241,3.7737087621180914,0.0
1242,6.884973948064661,0.0
1243,-0.5230436846062599,0.0
1244,-1.698326235711349,0.0
1245,1.5854377837736018,0.0
1246,-0.7365460918303082,0.0
1247,0.17040158116499976,0.0
1248,0.14628678974222675,0.0
1249,0.06451363741858188,0.0
1250,0.06334543615900523,0.0
1251,-0.02890622480621136,0.0
1252,0.016211570901336195,0.0
1253,0.004509612230008186,0.0
1254,0.05295570530990589,0.0
1255,-0.03391933332025905,0.0
1256,-0.030974857077303308,0.0
1257,-0.03662564782907718,0.0
1258,0.05346039212551241,0.0
1259,0.016696383261533672,0.0
1260,0.37802153407327566,0.0
1261,3.7467454006872676,0.0
1262,6.821115261114993,0.0
1263,-0.6515919626938452,0.0
1264,-1.8029161168610588,0.0
1265,1.5294647294927373,0.0
1266,-0.7165989137554442,0.0
1267,0.19662930880698418,0.0
1268,0.11080839278300642,0.0
1269,-0.01602261293704673,0.0
1270,0.05882097621105187,0.0
1271,0.027059982142322574,0.0
1272,-0.02930193675035237,0.0
1273,0.010706896542160872,0.0
1274,0.05109509863646074,0.0
1275,0.007632276619231625,0.0
1276,-0.0075553305528464525,0.0
1277,0.025991213444605255,0.0
1278,0.024216419914137262,0.0
1279,0.0177094727099508,0.0
1280,0.25910840060843604,0.0
1281,3.6902630494250674,0.0
1282,6.7657220170176045,0.0
1283,-0.5727507528311464,0.0
1284,-1.7735540120014013,0.0
1285,1.5757372843621196,0.0
1286,-0.8261918383509055,0.0
1287,0.06021530683449665,0.0
1288,-0.0023116236495737998,0.0
1289,-0.0465693536853075,0.0
1290,0.03422274533509268,0.0
1291,0.0485085406856876,0.0
1292,0.0027125774690493556,0.0
1293,0.04596777744867908,0.0
1294,0.0242894295356244,0.0
1295,-0.01575192410002283,0.0
1296,-0.047745076022599885,0.0
1297,0.016054507475691857,0.0
1298,0.007440842108273704,0.0
1299,-0.04549386295853153,0.0
1300,0.32152116218274324,0.0
1301,3.747179498978803,0.0
1302,6.8409649872828755,0.0
1303,-0.6247713009628377,0.0
1304,-1.821076691039009,0.0
1305,1.5209534005797687,0.0
1306,-0.760594036134836,0.0
1307,0.1590237331896552,0.0
1308,0.08779112776804628,0.0
1309,-0.10201225676727313,0.0
1310,-0.03160661264058459,0.0
1311,-0.0027526891068696446,0.0
1312,-0.012851731774432211,0.0
1313,0.036686089809649304,0.0
1314,0.009074858698547685,0.0
1315,-0.08238859409810537,0.0
1316,-0.1316748452713177,0.0
1317,-0.009041653229969276,0.0
1318,-0.04237264690263528,0.0
1319,-0.0781291315653605,0.0
1320,0.22300611656768837,0.0
1321,3.7687686369808446,0.0
1322,6.715044840348012,0.0
1323,-0.647248620860353,0.0
1324,-1.74322502950426,0.0
1325,1.3749750866140231,0.0
1326,-0.8284594239820261,0.0
1327,0.11151497715632312,0.0
1328,0.03156751462624026,0.0
1329,-0.09859396149761913,0.0
1330,-0.039888584058504595,0.0
1331,-0.004377711455963461,0.0
1332,-0.0952829118706205,0.0
1333,-0.030074643340819066,0.0
1334,-0.10199488566230026,0.0
1335,0.06372469564345824,0.0
1336,-0.01126835251161031,0.0
1337,-0.03707111961970311,0.0
1338,0.05524777257697064,0.0
1339,0.10334379499193652,0.0
1340,0.24839845193116983,0.0
1341,3.7592715594120225,0.0
1342,6.748084673654355,0.0
1343,-0.6881852195538601,0.0
1344,-1.7813819649288078,0.0
1345,1.4359631880976473,0.0
1346,-0.7380101910802773,0.0
1347,0.19938601248836718,0.0
1348,0.007050528412003189,0.0
1349,-0.05772100432349422,0.0
1350,-0.03352448646520235,0.0
1351,-0.0011613758160800153,0.0
1352,0.008157619333385947,0.0
1353,0.0031989821101889326,0.0
1354,0.035467005286759896,0.0
1355,0.13516516968595493,0.0
1356,0.014382054003547832,0.0
1357,-0.01566645740514738,0.0
1358,-0.03915180816675448,0.0
1359,0.07015757165405073,0.0
1360,0.27891135715964166,0.0
1361,3.6924599024523537,0.0
1362,6.69538005394796,0.0
1363,-0.5350447114100666,0.0
1364,-1.7980376083656566,0.0
1365,1.4960958173471834,0.0
1366,-0.8325835274557127,0.0
1367,0.1995117686725663,0.0
1368,0.021344908450441104,0.0
1369,-0.04053364076214538,0.0
1370,-0.023288334437768357,0.0
1371,-0.03852983263110223,0.0
1372,0.13890364525699697,0.0
1373,0.029430392559558836,0.0
1374,0.03595966805954649,0.0
1375,-0.022415558071371258,0.0
1376,0.030539599278180896,0.0
1377,0.15753434318585874,0.0
1378,0.06244122746290634,0.0
1379,-0.017705362251968088,0.0
1380,0.26877500645659647,0.0
1381,3.778620424339989,0.0
1382,6.7802988846857986,0.0
1383,-0.49987847823971826,0.0
1384,-1.668958882509171,0.0
1385,1.6340287677602667,0.0
1386,-0.5940811289730326,0.0
1387,0.18324310291424473,0.0
1388,0.06713101023681622,0.0
1389,-0.05034486763034254,0.0
1390,0.05866303239528191,0.0
1391,0.03059509521929169,0.0
1392,0.06503465562302972,0.0
1393,-0.013606429351328948,0.0
1394,0.04046978925026871,0.0
1395,0.06612377921244712,0.0
1396,0.010998645771102648,0.0
1397,0.05530665246706791,0.0
1398,-0.02454192866794612,0.0
1399,0.11577920369313588,0.0
1400,0.4437572313275338,0.0
1401,3.8261559873311897,0.0
1402,6.757080754061843,0.0
1403,-0.6253033131493796,0.0
1404,-1.691027167139912,0.0
1405,1.5060866924462937,0.0
1406,-0.754549358696931,0.0
1407,0.2367767730031538,0.0
1408,0.0392336864193055,0.0
1409,0.0017275722482970497,0.0
1410,0.05148004634917037,0.0
1411,0.10484989077155107,0.0
1412,0.00815115699256859,0.0
1413,0.06237724572956554,0.0
1414,-0.021812414356218557,0.0
1415,0.08688543245931643,0.0
1416,0.0641504551968156,0.0
1417,0.07091307059029335,0.0
1418,0.1110227730320234,0.0
1419,0.04205222646971792,0.0
1420,0.2566621288948246,0.0
1421,3.7610729133183085,0.0
1422,6.87875895090071,0.0
1423,-0.5451255559228662,0.0
1424,-1.6724244812103537,0.0
1425,1.5780552155683625,0.0
1426,-0.7663118757465173,0.0
1427,0.2167518601283324,0.0
1428,-0.054832018047479315,0.0
1429,-0.1263882305942633,0.0
1430,0.015727372429943872,0.0
1431,-0.05114038988997348,0.0
1432,0.048815995140290364,0.0
1433,-0.0967609181348395,0.0
1434,0.017384258596021277,0.0
1435,-0.021136335312795254,0.0
1436,0.12066979740855173,0.0
1437,0.06265051690168524,0.0
1438,0.14719049605984713,0.0
1439,0.0036289729150977418,0.0
1440,0.4210557856571151,0.0
1441,3.808556145806949,0.0
1442,6.796578313702211,0.0
1443,-0.5673329076085094,0.0
1444,-1.6317866061649704,0.0
1445,1.5884691548422782,0.0
1446,-0.6291196597551628,0.0
1447,0.3103316309520156,0.0
1448,0.12107937930476727,0.0
1449,-0.012411022752521338,0.0
1450,0.18098020362825612,0.0
1451,0.03490279847511221,0.0
1452,0.0388723888125285,0.0
1453,-0.012474355008142875,0.0
1454,0.044225384205050344,0.0
1455,0.0020491744801063513,0.0
1456,0.06061281996287862,0.0
1457,0.06592386293168516,0.0
1458,0.07942289046677596,0.0
1459,0.0556988424669986,0.0
1460,0.3816133758400272,0.0
1461,3.839306042712215,0.0
1462,6.891722670985464,0.0
1463,-0.600792734524418,0.0
1464,-1.7105942639426817,0.0
1465,1.5467861605546407,0.0
1466,-0.6740964147426167,0.0
1467,0.2283848237876137,0.0
1468,-0.00046601754247216354,0.0
1469,0.011252715431696113,0.0
1470,0.12561263844744286,0.0
1471,-0.02267453419393728,0.0
1472,-0.013980824070021412,0.0
1473,-0.05490992635171221,0.0
1474,0.05944082819217582,0.0
1475,0.0498704240709581,0.0
1476,0.06679753971310064,0.0
1477,0.0403140316630181,0.0
1478,0.026056645367164108,0.0
1479,-0.06794006010452185,0.0
1480,0.2882058320333061,0.0
1481,3.748825416275352,0.0
1482,6.7674453668750125,0.0
1483,-0.7104617060030309,0.0
1484,-1.6734297734939287,0.0
1485,1.5423663847933038,0.0
1486,-0.6383841007684049,0.0
1487,0.19443986069860048,0.0
1488,-0.003690696768220522,0.0
1489,-0.06396176454009196,0.0
1490,-0.08659232144107613,0.0
1491,-0.008517272918976332,0.0
1492,0.05236666325853911,0.0
1493,-0.04944523783580558,0.0
1494,-0.01842957756051959,0.0
1495,-0.018508277725956448,0.0
1496,0.04909071642028624,0.0
1497,-0.017459873325952207,0.0
1498,0.04123042205334646,0.0
1499,-0.022748345619486313,0.0
1500,0.31521764865051155,0.0
1501,3.6711509355966236,0.0
1502,6.78186355856877,0.0
1503,-0.7853281096595754,0.0
1504,-1.6957893849926067,0.0
1505,1.4950769680940397,0.0
1506,-0.7007590087964456,0.0
1507,0.12174473598182126,0.0
1508,0.0543182482897282,0.0
1509,-0.15136494909912324,0.0
1510,-0.09647225907782471,0.0
1511,-0.00996236581908054,0.0
1512,-0.08935589075700365,0.0
1513,0.016275797245854207,0.0
1514,0.0025705890702996835,0.0
1515,0.041222134244910516,0.0
1516,0.011587601371086442,0.0
1517,0.04676674700580459,0.0
1518,-0.1028900450336038,0.0
1519,-0.013122426269559812,0.0
1520,0.3193230184645816,0.0
1521,3.789603023463642,0.0
1522,6.882211872563665,0.0
1523,-0.7999920177997274,0.0
1524,-1.7846796469970483,0.0
1525,1.5451262548845612,0.0
1526,-0.6711051084206414,0.0
1527,0.16648079090897527,0.0
1528,0.06271033268852472,0.0
1529,0.005054964813539689,0.0
1530,0.031180850313613888,0.0
1531,-0.07720414069826864,0.0
1532,-0.0348438234536554,0.0
1533,-0.10004956811952084,0.0
1534,-0.07864040350053805,0.0
1535,-0.02355271507124833,0.0
1536,0.015629546545200025,0.0
1537,0.04000688194295751,0.0
1538,-0.01903868169356899,0.0
1539,-0.04126004558258359,0.0
1540,0.2819102123445698,0.0
1541,3.7913300127013687,0.0
1542,6.7034433793365995,0.0
1543,-0.6256706641727435,0.0
1544,-1.6353788432047434,0.0
1545,1.567052257121253,0.0
1546,-0.8882140647157015,0.0
1547,0.15009314432008478,0.0
1548,-0.08526079838563694,0.0
1549,-0.05473385044625173,0.0
1550,-0.00573189071987928,0.0
1551,-0.017044745499940672,0.0
1552,0.050704895640057444,0.0
1553,-0.049745777696434235,0.0
1554,0.005109856719618135,0.0
1555,-0.07913017730282344,0.0
1556,-0.0578369008477475,0.0
1557,-0.03923388363299346,0.0
1558,0.030435872381084972,0.0
1559,0.0014303734956068424,0.0
1560,0.2742151049064242,0.0
1561,3.782712404817219,0.0
1562,6.77669020552505,0.0
1563,-0.6614752991973336,0.0
1564,-1.7386443672895864,0.0
1565,1.4290279308364855,0.0
1566,-0.8017635478199859,0.0
1567,0.12450936894072094,0.0
1568,0.056384066037195264,0.0
1569,-0.04876566683892513,0.0
1570,0.0005660447754947361,0.0
1571,-0.09556961480859533,0.0
1572,0.005386641956691057,0.0
1573,-0.0023817208902657157,0.0
1574,-0.0037349120088946593,0.0
1575,-0.02770207747506051,0.0
1576,-0.02665118708661863,0.0
1577,0.055721701706131666,0.0
1578,-0.06715424273807961,0.0
1579,-0.006613339246938124,0.0
1580,0.2950941065338154,0.0
1581,3.7935443926279793,0.0
1582,6.7906826553535895,0.0
1583,-0.644914277022305,0.0
1584,-1.7151577905363238,0.0
1585,1.6013875505460073,0.0
1586,-0.8398375699590187,0.0
1587,0.1305750924352622,0.0
1588,-0.05991033150945359,0.0
1589,0.04431886691813544,0.0
1590,0.07543112748915924,0.0
1591,-0.053864615834392934,0.0
1592,0.044163863336972545,0.0
1593,-0.022187086899769764,0.0
1594,0.03689307746505681,0.0
1595,-0.004846335176777607,0.0
1596,0.024316713216050743,0.0
1597,-0.06458105092356253,0.0
1598,0.07283142410415558,0.0
1599,0.008756135636082676,0.0
1600,0.3685581380620877,0.0
1601,3.867730012335457,0.0
1602,6.77467540524406,0.0
1603,-0.5958256285976884,0.0
1604,-1.6905330114996013,0.0
1605,1.4858152068723984,0.0
1606,-0.691885799098556,0.0
1607,0.1299920974592876,0.0
1608,0.01380832830007857,0.0
1609,-0.009060537070618914,0.0
1610,-0.04612485521260504,0.0
1611,-0.0035945875192579177,0.0
1612,0.07568932865807186,0.0
1613,0.052192792471530025,0.0
1614,0.03979935100759999,0.0
1615,0.048441683858800176,0.0
1616,-0.005069238687108512,0.0
1617,-0.05914289106325431,0.0
1618,-0.02136869585033435,0.0
1619,0.01531699838115562,0.0
1620,0.3160126571378804,0.0
1621,3.75441097326149,0.0
1622,6.770235561603763,0.0
1623,-0.685216591408398,0.0
1624,-1.6281946109846426,0.0
1625,1.4749336686166725,0.0
1626,-0.7251142147515871,0.0
1627,0.17996942537123709,0.0
1628,-0.016558509610318194,0.0
1629,-0.010887240876362041,0.0
1630,0.04541460293777315,0.0
1631,0.05502970721253296,0.0
1632,-0.024069794806767544,0.0
1633,-0.08738225947813394,0.0
1634,0.016916047871715172,0.0
1635,0.0923956913057034,0.0
1636,-0.07016132461009976,0.0
1637,-0.0009792810834445042,0.0
1638,0.02387243287193648,0.0
1639,-0.08423727708117434,0.0
1640,0.30331793995607886,0.0
1641,3.7767061648418085,0.0
1642,6.6381947431924715,0.0
1643,-0.707963648223831,0.0
1644,-1.7571020739678642,0.0
1645,1.5310178726754184,0.0
1646,-0.8017099980572969,0.0
1647,0.16372105411646182,0.0
1648,0.0018435106601769717,0.0
1649,-0.10277586160888602,0.0
1650,0.026914034172250686,0.0
1651,0.02760159892489854,0.0
1652,0.01798704173876955,0.0
1653,-0.07866884514701504,0.0
1654,-0.01799988605152528,0.0
1655,-0.056397828773756126,0.0
1656,0.002844197175097981,0.0
1657,-0.06488391216536947,0.0
1658,0.05199243568569312,0.0
1659,0.07237732771202321,0.0
1660,0.28952752285387623,0.0
1661,3.710367881024036,0.0
1662,6.716698292208386,0.0
1663,-0.7381097501992999,0.0
1664,-1.7288039009562781,0.0
1665,1.454820199198569,0.0
1666,-0.7512261468395327,0.0
1667,0.22247342511248824,0.0
1668,-0.03019481172823285,0.0
1669,-0.08550725100124545,0.0
1670,-0.046846507523885444,0.0
1671,-0.04710596330519757,0.0
1672,-0.09452040362518324,0.0
1673,-0.015713181599986713,0.0
1674,-0.0014880701060869805,0.0
1675,-0.0856344432726931,0.0
1676,-0.08016348048870228,0.0
1677,-0.10867854563936438,0.0
1678,-0.06123131856777105,0.0
1679,-0.003925203653346268,0.0
1680,0.3016964027292073,0.0
1681,3.6093257299446395,0.0
1682,6.669388118299276,0.0
1683,-0.7043763675504098,0.0
1684,-1.7934907648171987,0.0
1685,1.498244741918851,0.0
1686,-0.8290952034640692,0.0
1687,0.11071373878102407,0.0
1688,-0.025586544683960755,0.0
1689,-0.11677862980463162,0.0
1690,-0.03974122080210032,0.0
1691,-0.09980456223557864,0.0
1692,-0.031187291525824966,0.0
1693,-0.016617184377228752,0.0
1694,0.01105900160195188,0.0
1695,-0.023164761003947123,0.0
1696,0.057979090145895675,0.0
1697,0.04664707374685344,0.0
1698,0.04854596764611786,0.0
1699,0.04146936251731183,0.0
1700,0.2577905006935787,0.0
1701,3.757417072608099,0.0
1702,6.715618215621122,0.0
1703,-0.77408324899848,0.0
1704,-1.6328143431056543,0.0
1705,1.4426352630451884,0.0
1706,-0.8183133862738571,0.0
1707,0.07501220830086709,0.0
1708,0.045227473018528475,0.0
1709,-0.08227151771635033,0.0
1710,0.0380465655863267,0.0
1711,-0.0762748030524046,0.0
1712,0.07311491585719995,0.0
1713,-0.02229267231509185,0.0
1714,-0.08361579815952466,0.0
1715,-0.05872390346560818,0.0
1716,-0.09662156724759152,0.0
1717,0.011235003150041903,0.0
1718,-0.015782944349539686,0.0
1719,-0.031719274022453725,0.0
1720,0.1931609531534982,0.0
1721,3.755358745479554,0.0
1722,6.742390953983994,0.0
1723,-0.7849611623470225,0.0
1724,-1.6294070543277843,0.0
1725,1.4670599449806945,0.0
1726,-0.8401689359620547,0.0
1727,0.14704164108145423,0.0
1728,0.08301948566499905,0.0
1729,-0.08365314415453033,0.0
1730,-0.023020035008262954,0.0
1731,0.009151593067475282,0.0
1732,-0.11732178529532677,0.0
1733,0.012216536121129565,0.0
1734,-0.12847891130593234,0.0
1735,-0.15578331784835225,0.0
1736,-0.12569579892424795,0.0
1737,-0.11463507315472832,0.0
1738,-0.01631233007301902,0.0
1739,-0.10984415464610003,0.0
1740,0.3581704200174832,0.0
1741,3.668546462271024,0.0
1742,6.62707451568797,0.0
1743,-0.7677296131087493,0.0
1744,-1.6999026412724572,0.0
1745,1.4608041803863767,0.0
1746,-0.8555048230892748,0.0
1747,0.1569151725336137,0.0
1748,-0.05357897803985805,0.0
1749,-0.03229964872263548,0.0
1750,0.025833813382402593,0.0
1751,-0.07558014336040358,0.0
1752,-0.04787349067499127,0.0
1753,-0.10141164003043751,0.0
1754,-0.05882593061288611,0.0
1755,-0.0662427155639427,0.0
1756,-0.044414305047605705,0.0
1757,-0.09455075605094873,0.0
1758,-0.1449848118011624,0.0
1759,0.016910585016314594,0.0
1760,0.30092061147388316,0.0
1761,3.6696776330958,0.0
1762,6.5840313750010635,0.0
1763,-0.7725542389735951,0.0
1764,-1.702426422220821,0.0
1765,1.3451609120857488,0.0
1766,-0.9878349327310447,0.0
1767,0.12439631373320789,0.0
1768,0.05158247362981282,0.0
1769,-0.032164306723002634,0.0
1770,0.04583590385032585,0.0
1771,-0.07144173595515257,0.0
1772,0.010895110512107776,0.0
1773,-0.0762749160330086,0.0
1774,-0.05430991456923408,0.0
1775,-0.011013057328569355,0.0
1776,-0.013772002698887658,0.0
1777,-0.05309736828062567,0.0
1778,-0.06895454082655816,0.0
1779,0.014083147204448063,0.0
1780,0.2505926833360129,0.0
1781,3.844506247471128,0.0
1782,6.781073194306754,0.0
1783,-0.753196561148659,0.0
1784,-1.7574209543620292,0.0
1785,1.5387422925458452,0.0
1786,-0.833550197967136,0.0
1787,0.1399897852495291,0.0
1788,-0.05851054074607968,0.0
1789,-0.07773986323568996,0.0
1790,-0.06404638098881724,0.0
1791,0.05169705064054804,0.0
1792,-0.06944015321164385,0.0
1793,0.008628121769697093,0.0
1794,-0.011627269371469014,0.0
1795,-0.06748094388849969,0.0
1796,0.04724578918592893,0.0
1797,-0.019089994344848638,0.0
1798,-0.08380606559370968,0.0
1799,0.0026160936261442128,0.0
1800,0.3473301566364481,0.0
1801,3.8235578907597665,0.0
1802,6.663042056120926,0.0
1803,-0.8492639644415308,0.0
1804,-1.6767761334277127,0.0
1805,1.470653109627541,0.0
1806,-0.9057265560195442,0.0
1807,0.10245969081839494,0.0
1808,-0.03797686310385396,0.0
1809,-0.03465244280375811,0.0
1810,-0.01794495754297608,0.0
1811,-0.12730144427806514,0.0
1812,-0.013594912506106244,0.0
1813,0.011926275689788473,0.0
1814,-0.02204757686245947,0.0
1815,-0.012139626223089738,0.0
1816,-0.05411061322124765,0.0
1817,0.03085322800432158,0.0
1818,0.015323404006838591,0.0
1819,-0.09538144714665062,0.0
1820,0.2612286363145566,0.0
1821,3.7674440173537156,0.0
1822,6.6439539582292735,0.0
1823,-0.81670985604031,0.0
1824,-1.673451750646256,0.0
1825,1.3794801328951318,0.0
1826,-0.8126123244641963,0.0
1827,0.044047671089482654,0.0
1828,-0.12065700144268712,0.0
1829,-0.08277285741843193,0.0
1830,0.035255300167188516,0.0
1831,-0.06945418988360677,0.0
1832,0.0679740007083495,0.0
1833,-0.07247484423840198,0.0
1834,-0.014582147805129998,0.0
1835,0.05478132642149211,0.0
1836,-0.016055437658339583,0.0
1837,-0.11497745364845423,0.0
1838,-0.062165049707689476,0.0
1839,-0.0036904164848058016,0.0
1840,0.286095769089064,0.0
1841,3.807045530338558,0.0
1842,6.700207794979614,0.0
1843,-0.7442597619662056,0.0
1844,-1.731857213136643,0.0
1845,1.4929880979990504,0.0
1846,-0.7207307459564061,0.0
1847,0.10016520317148511,0.0
1848,0.039483405121264324,0.0
1849,-0.01737500074084722,0.0
1850,-0.023884956931017432,0.0
1851,0.012044269223157631,0.0
1852,-0.061518312137495666,0.0
1853,-0.06614247280805585,0.0
1854,-0.016621952199446073,0.0
1855,0.026595266363059963,0.0
1856,-0.01471726507367304,0.0
1857,-0.128559525717878,0.0
1858,-0.034470845218575824,0.0
1859,-0.12464265232545729,0.0
1860,0.3368427001040285,0.0
1861,3.86097153885475,0.0
1862,6.697483600025665,0.0
1863,-0.8177146634428661,0.0
1864,-1.6868542922143355,0.0
1865,1.4693699391681188,0.0
1866,-0.9249758708774813,0.0
1867,0.22701582669558723,0.0
1868,-0.06475726190535529,0.0
1869,0.006199436656471977,0.0
1870,-0.0016705894374343146,0.0
1871,-0.026435415952877996,0.0
1872,0.018149830470469676,0.0
1873,0.07644011360266592,0.0
1874,-0.06400198844936893,0.0
1875,-0.0904365100007416,0.0
1876,-0.05275145950332816,0.0
1877,-0.10642928462748813,0.0
1878,-0.06380512753172342,0.0
1879,-0.1018825443995856,0.0
1880,0.28072230450757496,0.0
1881,3.83927402141762,0.0
1882,6.706439061569254,0.0
1883,-0.9279802059898165,0.0
1884,-1.7680237915112604,0.0
1885,1.296871465031755,0.0
1886,-0.921230562767555,0.0
1887,0.19208491265447142,0.0
1888,-0.23407315784533322,0.0
1889,-0.19042930438853617,0.0
1890,-0.11059321020601168,0.0
1891,-0.21375359810027167,0.0
1892,-0.16142259398785896,0.0
1893,-0.07859830557691552,0.0
1894,-0.07519998909501259,0.0
1895,-0.008615975371140963,0.0
1896,-0.003259971320747873,0.0
1897,0.014836736093756978,0.0
1898,-0.0895878166225825,0.0
1899,-0.09323174180820737,0.0
1900,0.3386174114184989,0.0
1901,3.859036408180282,0.0
1902,6.733033440223624,0.0
1903,-0.7716076913026924,0.0
1904,-1.685413131410923,0.0
1905,1.4368135725443194,0.0
1906,-0.8108855365571261,0.0
1907,0.07510185267833992,0.0
1908,-0.02712723209117575,0.0
1909,-0.00842280613819571,0.0
1910,-0.07918861629384073,0.0
1911,-0.02358145033808886,0.0
1912,-0.0862647657427981,0.0
1913,-0.11082622758002658,0.0
1914,-0.12498604758093035,0.0
1915,-0.022282481016299878,0.0
1916,-0.0017232726245717395,0.0
1917,-0.012266489989361142,0.0
1918,-0.011814961110408874,0.0
1919,-0.03605526238293264,0.0
1920,0.2893757867536223,0.0
1921,3.8584668762963177,0.0
1922,6.7699634008583685,0.0
1923,-0.6329086288394499,0.0
1924,-1.5615847967698628,0.0
1925,1.4469083345944713,0.0
1926,-0.7617770386395621,0.0
1927,0.16548104893285936,0.0
1928,0.01583772944232023,0.0
1929,-0.11240089717514787,0.0
1930,-0.017007511504173237,0.0
1931,-0.10552594674199976,0.0
1932,-0.008566004000479549,0.0
1933,-0.13448525819183862,0.0
1934,-0.010376084435177846,0.0
1935,-0.09354175118125074,0.0
1936,-0.08125317749068567,0.0
1937,0.029519058708555958,0.0
1938,-0.03594462427138163,0.0
1939,-0.06487499239481653,0.0
1940,0.26773758382910584,0.0
1941,3.736060961570873,0.0
1942,6.59484621501312,0.0
1943,-0.7768495085713346,0.0
1944,-1.749989023675545,0.0
1945,1.4893345616136813,0.0
1946,-0.8313785724302228,0.0
1947,0.20662753845139875,0.0
1948,-0.028272166968859605,0.0
1949,0.06273831271811726,0.0
1950,-0.019084015113761982,0.0
1951,-0.0958970654064983,0.0
1952,0.0008065924066995613,0.0
1953,-0.11310115696218,0.0
1954,-0.10361944269601492,0.0
1955,-0.05888558721730515,0.0
1956,0.00228912737640391,0.0
1957,-0.08423830124170192,0.0
1958,-0.14840353744897056,0.0
1959,-0.11180041065743693,0.0
1960,0.3236681585455796,0.0
1961,3.7781327656498647,0.0
1962,6.71290491198268,0.0
1963,-0.8241854944071493,0.0
1964,-1.7144005254720724,0.0
1965,1.4792509820816953,0.0
1966,-0.7313486582860035,0.0
1967,0.11610158992548501,0.0
1968,-0.0275407620278231,0.0
1969,-0.05405178936966467,0.0
1970,0.10448324942239835,0.0
1971,-0.024450483790495355,0.0
1972,-0.05160751115256764,0.0
1973,0.020315219782892302,0.0
1974,0.008088009957970738,0.0
1975,0.05252556918094474,0.0
1976,0.06117700978973446,0.0
1977,0.013018031339363795,0.0
1978,-0.030632046784401505,0.0
1979,0.057377285065159656,0.0
1980,0.37998771406832405,0.0
1981,3.80367234655369,0.0
1982,6.711134345546251,0.0
1983,-0.6961331510579729,0.0
1984,-1.6775757598742536,0.0
1985,1.5321813861967384,0.0
1986,-0.7563899128712281,0.0
1987,0.2404024667523038,0.0
1988,0.02099668174079572,0.0
1989,-0.08056979802034372,0.0
1990,0.08357707933292058,0.0
1991,0.022942411047988505,0.0
1992,0.11000278355257505,0.0
1993,0.06696323501654362,0.0
1994,0.001169192878847286,0.0
1995,0.006216189404013771,0.0
1996,0.04467598816337301,0.0
1997,-0.0481868594227216,0.0
1998,0.05382021428006414,0.0
1999,0.06015057643631318,0.0
2000,0.38908424410487286,0.0
2001,3.9461332938610107,0.0
2002,6.698491466387153,0.0
2003,-0.8083771687394559,0.0
2004,-1.5495321005731832,0.0
2005,1.4940736331145859,0.0
2006,-0.6858597978763653,0.0
2007,0.3194852763232847,0.0
2008,0.06404773558903194,0.0
2009,-0.049252099676294056,0.0
2010,0.07028721758898124,0.0
2011,-0.022327879392238452,0.0
2012,0.13661590484409558,0.0
2013,0.07669846987701295,0.0
2014,0.10845452881606388,0.0
2015,0.045500587116602556,0.0
2016,0.06245821302810745,0.0
2017,0.06611442469205542,0.0
2018,0.05682690331680376,0.0
2019,-0.007676452833200904,0.0
2020,0.46947556398220164,0.0
2021,3.9075650577131578,0.0
2022,6.73164940970201,0.0
2023,-0.8251862552760331,0.0
2024,-1.6467500089748464,0.0
2025,1.5393041866030448,0.0
2026,-0.7686861205750364,0.0
2027,0.19083359435454234,0.0
2028,0.014970749934155612,0.0
2029,0.005389260310710811,0.0
2030,0.10057192870583562,0.0
2031,-0.05048975086730324,0.0
2032,0.09279777133066888,0.0
2033,0.03758209458259082,0.0
2034,0.13007104154384883,0.0
2035,0.04478946214054383,0.0
2036,0.006399520008623212,0.0
2037,0.0752998234489148,0.0
2038,0.03933803120703221,0.0
2039,0.09522535402268936,0.0
2040,0.3596602999318013,0.0
2041,3.967756575707138,0.0
2042,6.81474639729537,0.0
2043,-0.8095939382794091,0.0
2044,-1.613684926942765,0.0
2045,1.5396496934781463,0.0
2046,-0.7008648584499467,0.0
2047,0.23323799093173433,0.0
2048,0.06539888555530766,0.0
2049,0.04309141548801052,0.0
2050,0.07816854835339056,0.0
2051,0.026183985370091933,0.0
2052,0.025961023717486105,0.0
2053,0.06921171025629953,0.0
2054,0.08373002100566548,0.0
2055,0.015306074537271966,0.0
2056,0.12042160097084732,0.0
2057,0.038307724095990967,0.0
2058,0.08750775562454559,0.0
2059,0.04354046291462187,0.0
2060,0.43566670163642357,0.0
2061,3.8982405187444242,0.0
2062,6.812259056526481,0.0
2063,-0.7248032365551358,0.0
2064,-1.5792103677357587,0.0
2065,1.5086978265226583,0.0
2066,-0.71559620649134,0.0
2067,0.21546965255616207,0.0
2068,0.10948327633009225,0.0
2069,0.050388148219512006,0.0
2070,0.12484021936135986,0.0
2071,0.044133512328661535,0.0
2072,0.08385952949937216,0.0
2073,0.04045058931775481,0.0
2074,0.032850280952260835,0.0
2075,0.08744735906797253,0.0
2076,0.02996426652451728,0.0
2077,0.020269180004330006,0.0
2078,0.05210939292194432,0.0
2079,0.054939374225869544,0.0
2080,0.3388985336976492,0.0
2081,3.8812181956954293,0.0
2082,6.88644075017577,0.0
2083,-0.702202257730296,0.0
2084,-1.534072588358092,0.0
2085,1.5658971310708918,0.0
2086,-0.7487182507815903,0.0
2087,0.29920205137534694,0.0
2088,0.076407177689559,0.0
2089,0.009931899312158175,0.0
2090,0.09414918483636582,0.0
2091,0.044193191347266576,0.0
2092,0.03995342607473904,0.0
2093,0.0183987119721049,0.0
2094,0.021846192941774246,0.0
2095,0.08779727127282455,0.0
2096,0.008305494441824882,0.0
2097,0.028665791598071096,0.0
2098,-0.005409420540826785,0.0
2099,-0.019277419617075693,0.0
2100,0.3080569250170302,0.0
2101,3.9225410511543446,0.0
2102,6.750904403891308,0.0
2103,-0.9023135796126834,0.0
2104,-1.6757861626791726,0.0
2105,1.4477979290722196,0.0
2106,-0.7543413743628704,0.0
2107,0.14603982361569579,0.0
2108,0.05270798117035573,0.0
2109,0.09698637908880736,0.0
2110,0.03470216950683842,0.0
2111,0.003028670079669782,0.0
2112,0.09151821179684011,0.0
2113,0.10198629826972593,0.0
2114,0.04106317251537272,0.0
2115,-0.06398084238819185,0.0
2116,0.046080247964264756,0.0
2117,-0.038613863733802496,0.0
2118,0.05650402087824753,0.0
2119,0.06557877373001521,0.0
2120,0.3470741528699858,0.0
2121,3.910877324572218,0.0
2122,6.678816910971765,0.0
2123,-0.8935509583483195,0.0
2124,-1.5739212554825086,0.0
2125,1.4778830513452563,0.0
2126,-0.7538275199130516,0.0
2127,0.20760472735111984,0.0
2128,-0.07220812093402296,0.0
2129,-0.042770331580156314,0.0
2130,0.03323218289476959,0.0
2131,0.030051959341467475,0.0
2132,-0.08720534047553109,0.0
2133,-0.05016502633965991,0.0
2134,-0.11033684522093147,0.0
2135,0.08552415281029188,0.0
2136,-0.040292886710988435,0.0
2137,0.009755768584634247,0.0
2138,0.003570846508570412,0.0
2139,0.04798439033403903,0.0
2140,0.3757771644715158,0.0
2141,3.816086188991643,0.0
2142,6.680179310649708,0.0
2143,-0.7516953082374377,0.0
2144,-1.611242862259524,0.0
2145,1.4518019915533755,0.0
2146,-0.7912318056849877,0.0
2147,0.13462730966602077,0.0
2148,0.06269399181899622,0.0
2149,0.04451840721163525,0.0
2150,0.008339475892918204,0.0
2151,-0.03330776107457535,0.0
2152,0.10075386092735182,0.0
2153,0.08002781989208065,0.0
2154,0.08653046181014448,0.0
2155,-0.05731915893168428,0.0
2156,0.08613568948924707,0.0
2157,0.05172588027596342,0.0
2158,-0.0016619158015175267,0.0
2159,0.03196615018607211,0.0
2160,0.2942088713194753,0.0
2161,3.8158535337764152,0.0
2162,6.753204935704587,0.0
2163,-0.8951454625686164,0.0
2164,-1.6084213963490728,0.0
2165,1.4892178248237158,0.0
2166,-0.7446440127659426,0.0
2167,0.15995824655318777,0.0
2168,-0.008699250462560964,0.0
2169,-0.12275695077446881,0.0
2170,0.05771597240716899,0.0
2171,-0.02189094204728276,0.0
2172,-0.011744475482820056,0.0
2173,0.04816654306917917,0.0
2174,-0.10373235260496211,0.0
2175,-0.027142176636714775,0.0
2176,-0.04253645782652716,0.0
2177,-0.09055152895820653,0.0
2178,-0.0038436139154527367,0.0
2179,-0.0681912490288734,0.0
2180,0.33009068917703077,0.0
2181,3.922663864731056,0.0
2182,6.738725818407644,0.0
2183,-0.8825548651937571,0.0
2184,-1.5076364384551866,0.0
2185,1.5546230071956022,0.0
2186,-0.7739373481977617,0.0
2187,0.2126578469673714,0.0
2188,0.057687100012060226,0.0
2189,-0.10976079837552692,0.0
2190,0.1014951463514007,0.0
2191,0.1254861504984695,0.0
2192,0.0075825061643032265,0.0
2193,0.08108864837393885,0.0
2194,-0.01569558456189827,0.0
2195,0.010613926481024147,0.0
2196,0.009328558503897267,0.0
2197,0.0105237495716992,0.0
2198,-0.011364405603636087,0.0
2199,-0.038035777325206514,0.0
2200,0.40838518396572254,0.0
2201,3.911915758692759,0.0
2202,6.681993396526879,0.0
2203,-0.8208587835944937,0.0
2204,-1.56039510410563,0.0
2205,1.5037664049995143,0.0
2206,-0.7250153883298623,0.0
2207,0.2610853175296331,0.0
2208,-0.09438399473559814,0.0
2209,-0.08897964502084114,0.0
2210,-0.023421747916410173,0.0
2211,-0.031274442463116336,0.0
2212,-0.07589886313323695,0.0
2213,-0.009544803973578105,0.0
2214,-0.04287751838462815,0.0
2215,0.05815931492556804,0.0
2216,-0.07324343252964122,0.0
2217,-0.025559690707458366,0.0
2218,-0.017988883025501577,0.0
2219,0.043827134879220686,0.0
2220,0.3703444946928522,0.0
2221,3.905885704893375,0.0
2222,6.643331561474677,0.0
2223,-0.908874655310285,0.0
2224,-1.630738885819973,0.0
2225,1.4848698384769756,0.0
2226,-0.827846321395479,0.0
2227,0.1233048012489214,0.0
2228,-0.07143620681269346,0.0
2229,-0.035971703049883924,0.0
2230,0.07430819481215545,0.0
2231,0.06928526708843097,0.0
2232,0.04430172578137005,0.0
2233,0.02441750984928022,0.0
2234,0.04091766914328242,0.0
2235,-0.021114061315712793,0.0
2236,0.11780686497857427,0.0
2237,0.10113722561976923,0.0
2238,-0.08610154817956235,0.0
2239,0.02883998148241132,0.0
2240,0.3356364145254028,0.0
2241,3.8797121049112397,0.0
2242,6.686675248828562,0.0
2243,-0.8824267825839202,0.0
2244,-1.6248956211195844,0.0
2245,1.4831199011606653,0.0
2246,-0.8505657968144563,0.0
2247,0.27485034616849596,0.0
2248,0.07675048298619104,0.0
2249,-0.10185362994748416,0.0
2250,0.04352258905817935,0.0
2251,-0.04530711812868932,0.0
2252,-0.10159943577491892,0.0
2253,0.003155945767743671,0.0
2254,-0.02248092965931265,0.0
2255,-0.11991599848325832,0.0
2256,0.0488693470213814,0.0
2257,-0.07739383153389107,0.0
2258,0.08435895062222937,0.0
2259,-0.05417973695486546,0.0
2260,0.30966827954072806,0.0
2261,3.741707527237585,0.0
2262,6.620650709552242,0.0
2263,-0.8567476342895671,0.0
2264,-1.709095301342402,0.0
2265,1.3610109987537569,0.0
2266,-0.8000763482149509,0.0
2267,0.23489482935505723,0.0
2268,-0.1271597016370945,0.0
2269,-0.03161159267675703,0.0
2270,-0.029990958358290486,0.0
2271,0.06191688343941905,0.0
2272,-0.05593362031133796,0.0
2273,-0.0884883805802115,0.0
2274,0.03924129155575817,0.0
2275,0.035823441562134135,0.0
2276,0.011419638232566792,0.0
2277,-0.02099367731533195,0.0
2278,-0.03848325022097204,0.0
2279,0.03962944243028081,0.0
2280,0.2720515118888332,0.0
2281,3.9037464473110477,0.0
2282,6.718770577866857,0.0
2283,-0.9375319894331047,0.0
2284,-1.650575398112281,0.0
2285,1.4738467415985737,0.0
2286,-0.7836070756687226,0.0
2287,0.1079873042533891,0.0
2288,-0.08995020240934386,0.0
2289,0.008872870086076179,0.0
2290,-0.09147327814452544,0.0
2291,-0.1631610726169656,0.0
2292,-0.07529311860856563,0.0
2293,-0.06907958464587848,0.0
2294,-0.06213047620871932,0.0
2295,-0.02652771733887089,0.0
2296,0.05452925835914076,0.0
2297,-0.15319975498387067,0.0
2298,-0.013342753566059101,0.0
2299,-0.15205730785874627,0.0
2300,0.35216695539591103,0.0
2301,3.799234175100189,0.0
2302,6.709017063983887,0.0
2303,-0.9505013302635291,0.0
2304,-1.6549743840425586,0.0
2305,1.489284888011734,0.0
2306,-0.7762352074357155,0.0
2307,0.10885834997859783,0.0
2308,0.06606006613593346,0.0
2309,-0.03990177589438772,0.0
2310,0.03565164026322623,0.0
2311,-0.052199120351179976,0.0
2312,-0.012760535683893575,0.0
2313,-0.021918648087908693,0.0
2314,-0.02740278493304181,0.0
2315,-0.12359775321815138,0.0
2316,-0.04345163067985215,0.0
2317,-0.023492644586993554,0.0
2318,0.07550992840356652,0.0
2319,0.050908447790205556,0.0
2320,0.40387720447047026,0.0
2321,3.890808421903891,0.0
2322,6.652430064192192,0.0
2323,-0.8249695559136466,0.0
2324,-1.572848205594451,0.0
2325,1.531609688564222,0.0
2326,-0.7576586712176513,0.0
2327,0.2317650725608113,0.0
2328,0.05794079609309547,0.0
2329,0.01738905226929731,0.0
2330,-0.011135912962163309,0.0
2331,0.02887990712678761,0.0
2332,0.017281521447629816,0.0
2333,-0.03436502096046916,0.0
2334,0.06875248637588084,0.0
2335,0.010003899048820472,0.0
2336,-0.08656500536060438,0.0
2337,-0.007843021160973978,0.0
2338,-0.11385956327344207,0.0
2339,0.0026077252481418317,0.0
2340,0.31667411940298446,0.0
2341,3.947002674199258,0.0
2342,6.740783726963578,0.0
2343,-0.9135210892029779,0.0
2344,-1.5129654715114755,0.0
2345,1.5772933050225915,0.0
2346,-0.7938472093685294,0.0
2347,0.3028020281304878,0.0
2348,0.07544900955115949,0.0
2349,0.004659210835645508,0.0
2350,0.16516821713650925,0.0
2351,0.0677148681954483,0.0
2352,0.13352855045464757,0.0
2353,0.031008087078779167,0.0
2354,0.03564238874679561,0.0
2355,0.06756356299988209,0.0
2356,0.05367970711978323,0.0
2357,0.06819097447346573,0.0
2358,0.00562304837096618,0.0
2359,-0.06750173972243645,0.0
2360,0.35432195606724814,0.0
2361,3.909480489735276,0.0
2362,6.6394036194290456,0.0
2363,-0.9765302795408622,0.0
2364,-1.6364638130817974,0.0
2365,1.404310293359014,0.0
2366,-0.8133835186497478,0.0
2367,0.2049528917868082,0.0
2368,0.0036318892962036546,0.0
2369,-0.061211374945389765,0.0
2370,-0.018575813192778512,0.0
2371,0.01473077098687365,0.0
2372,-0.05404353086524447,0.0
2373,0.01741789615713945,0.0
2374,-0.04643455331088865,0.0
2375,0.009480141951273658,0.0
2376,-0.03690053650522863,0.0
2377,-0.0019745043734087746,0.0
2378,-0.060745454371773616,0.0
2379,-0.048022428170346215,0.0
2380,0.29125760129960143,0.0
2381,3.9409329005640648,0.0
2382,6.795217149214019,0.0
2383,-0.9314318994552377,0.0
2384,-1.6258326538381453,0.0
2385,1.4805155622697936,0.0
2386,-0.8265472324232276,0.0
2387,0.16014475873342962,0.0
2388,0.07227928072612151,0.0
2389,-0.018650634014720818,0.0
2390,-0.030255734525320592,0.0
2391,0.03810612341552882,0.0
2392,-0.05435308397040803,0.0
2393,0.00838993651050699,0.0
2394,0.032189486528913576,0.0
2395,-0.09732631092065921,0.0
2396,0.0591559452296853,0.0
2397,0.044996509174575046,0.0
2398,0.0599289902949728,0.0
2399,0.08775283425951519,0.0
2400,0.20109978157299183,0.0
2401,3.9397204871172513,0.0
2402,6.717379429092225,0.0
2403,-0.8946892596362399,0.0
2404,-1.666877090006834,0.0
2405,1.4308197509034353,0.0
2406,-0.7774974768670128,0.0
2407,0.07076700685153367,0.0
2408,-0.06283049191330733,0.0
2409,-0.07532366358778732,0.0
2410,0.0047456983554591235,0.0
2411,-0.0576030919831135,0.0
2412,-0.04630860305492085,0.0
2413,-0.0022546109247205542,0.0
2414,-0.01817449260102265,0.0
2415,0.030011803853484557,0.0
2416,-0.07882672861651957,0.0
2417,0.06389364116917809,0.0
2418,-0.012609009218252292,0.0
2419,0.026294176104705087,0.0
2420,0.39541886174601004,0.0
2421,3.9826399620198525,0.0
2422,6.591838919913347,0.0
2423,-0.9617850976137541,0.0
2424,-1.6517557549900066,0.0
2425,1.4774550888272702,0.0
2426,-0.8409637242786766,0.0
2427,0.1958132890592579,0.0
2428,-0.0881178522613066,0.0
2429,-0.07037784284116927,0.0
2430,-0.08896537744060702,0.0
2431,-0.018191118525975908,0.0
2432,0.009292331907140208,0.0
2433,-0.04809926217842045,0.0
2434,-0.03500250933156353,0.0
2435,-0.11999880431034457,0.0
2436,-0.12518846564822228,0.0
2437,-0.01868109098644568,0.0
2438,0.0339165870195617,0.0
2439,-0.09128604970604917,0.0
2440,0.32817278040115405,0.0
2441,3.9624261672952925,0.0
2442,6.672510218340033,0.0
2443,-0.8569981526969134,0.0
2444,-1.6104907235507435,0.0
2445,1.5232847657436384,0.0
2446,-0.82582499254829,0.0
2447,0.2168015877600391,0.0
2448,0.008478334664105015,0.0
2449,-0.002962949837350376,0.0
2450,0.06526422108662217,0.0
2451,0.03377984673331533,0.0
2452,-0.01987837827947956,0.0
2453,-0.028489282295662905,0.0
2454,-0.015957094621103278,0.0
2455,-0.0752341383308629,0.0
2456,-0.08988567832091164,0.0
2457,-0.04821353520189568,0.0
2458,-0.04897558441654164,0.0
2459,-0.04715206357044835,0.0
2460,0.39066739340831114,0.0
2461,3.867882597668441,0.0
2462,6.626782440733025,0.0
2463,-0.8847577003393217,0.0
2464,-1.6483364439722354,0.0
2465,1.526940026333522,0.0
2466,-0.7726218630896206,0.0
2467,0.17277852169457336,0.0
2468,-0.08006818919747868,0.0
2469,-0.030685865136913796,0.0
2470,-0.020675610086638742,0.0
2471,-0.034423544704760146,0.0
2472,0.002928141851217883,0.0
2473,-0.14756016079080453,0.0
2474,-0.030702882459078443,0.0
2475,-0.1005541247119229,0.0
2476,-0.039787458693843016,0.0
2477,-0.016611762394510503,0.0
2478,-0.07372212692546595,0.0
2479,0.031136313763514466,0.0
2480,0.27272778123450314,0.0
2481,3.972691323538274,0.0
2482,6.598459788879306,0.0
2483,-0.9410367499220383,0.0
2484,-1.5837847215241136,0.0
2485,1.510982027025881,0.0
2486,-0.8894569806518247,0.0
2487,0.15839372292051743,0.0
2488,-0.0967621134029891,0.0
2489,0.034480875682610365,0.0
2490,-0.007311031686711704,0.0
2491,-0.0885777780603533,0.0
2492,-0.14441168803524457,0.0
2493,-0.10553978656515726,0.0
2494,-0.06566489385918264,0.0
2495,-0.04514102062668474,0.0
2496,-0.021322808786174367,0.0
2497,-0.05296027481682478,0.0
2498,-0.1179491023390647,0.0
2499,-0.010864947518924056,0.0
2500,0.2965941293029893,0.0
2501,3.895028715588579,0.0
2502,6.585030026394246,0.0
2503,-0.8899566982041757,0.0
2504,-1.5512012889623843,0.0
2505,1.5435476065258404,0.0
2506,-0.7987528075674912,0.0
2507,0.24386534946643112,0.0
2508,-0.029396435651623278,0.0
2509,-0.047166797685993064,0.0
2510,0.008446392006154062,0.0
2511,0.02767437074336854,0.0
2512,0.005895040140266644,0.0
2513,-0.026407014582118336,0.0
2514,0.061533496168194354,0.0
2515,0.04328858029941475,0.0
2516,0.041326995786721624,0.0
2517,0.11391133945825221,0.0
2518,0.010513978515268758,0.0
2519,0.021807097711781128,0.0
2520,0.38662132364387347,0.0
2521,3.9499677519540235,0.0
2522,6.723620199920987,0.0
2523,-0.9179542788683283,0.0
2524,-1.494995429979537,0.0
2525,1.4716709391181684,0.0
2526,-0.7078076308849374,0.0
2527,0.21449949465606602,0.0
2528,-0.06059360285160453,0.0
2529,0.019865081516120892,0.0
2530,0.02427904670332582,0.0
2531,0.030437143718364555,0.0
2532,-0.15269380799307825,0.0
2533,0.09734141313931167,0.0
2534,-0.04660472896805987,0.0
2535,-0.03942284246976197,0.0
2536,-0.06559232115718974,0.0
2537,0.11746894312691818,0.0
2538,-0.022496364792590137,0.0
2539,0.023088301911023026,0.0
2540,0.4936049856112953,0.0
2541,3.932061674922824,0.0
2542,6.581700721131203,0.0
2543,-0.9892862406774444,0.0
2544,-1.5107781086709324,0.0
2545,1.464749085744201,0.0
2546,-0.7695149810154405,0.0
2547,0.18994424583432948,0.0
2548,-0.010940474259206297,0.0
2549,-0.025309974379394473,0.0
2550,-0.022680069898029936,0.0
2551,-0.06405596447572931,0.0
2552,-0.01266959623529209,0.0
2553,0.03462289055366216,0.0
2554,-0.05723962730820223,0.0
2555,-0.025396076932654412,0.0
2556,0.051957231529987824,0.0
2557,0.035740707193864976,0.0
2558,0.010800636072268305,0.0
2559,-0.06773250475520552,0.0
2560,0.4284944573080218,0.0
2561,3.919896295540945,0.0
2562,6.691905190693324,0.0
2563,-1.0213956975580576,0.0
2564,-1.5601723798015528,0.0
2565,1.4158050580011627,0.0
2566,-0.7881171360694654,0.0
2567,0.20718327025395789,0.0
2568,-0.007032682723509086,0.0
2569,-0.08661990257243019,0.0
2570,0.0702518376761811,0.0
2571,0.049984163763052335,0.0
2572,0.10568422972769041,0.0
2573,0.09160186192112586,0.0
2574,-0.004620215742679786,0.0
2575,0.09949182468646758,0.0
2576,0.06008044471372856,0.0
2577,-0.02540409090164954,0.0
2578,-0.08404981614241075,0.0
2579,-0.028505840261586545,0.0
2580,0.4117854356199393,0.0
2581,4.039383078040167,0.0
2582,6.732745143493122,0.0
2583,-0.904095550577549,0.0
2584,-1.428893286832428,0.0
2585,1.5299623064400292,0.0
2586,-0.7130070911860135,0.0
2587,0.21956302437591704,0.0
2588,0.09767023955359533,0.0
2589,-0.05715297906363917,0.0
2590,-0.0076342152539032315,0.0
2591,-0.006245511008236573,0.0
2592,0.05845620611011541,0.0
2593,0.03157066422295955,0.0
2594,0.02822752052118735,0.0
2595,0.06565649326819964,0.0
2596,0.08018203986003912,0.0
2597,0.060389487859717775,0.0
2598,0.06595048823268539,0.0
2599,0.1012504194080125,0.0
2600,0.3569862914746319,0.0
2601,4.050289329895084,0.0
2602,6.6693333918266955,0.0
2603,-0.9283615028523019,0.0
2604,-1.5356240929641118,0.0
2605,1.5345288350388424,0.0
2606,-0.728942357998909,0.0
2607,0.2809803511875704,0.0
2608,0.02323664455010395,0.0
2609,0.07554029440986006,0.0
2610,0.10852662053743291,0.0
2611,-0.005779631528933418,0.0
2612,-0.018011028235294532,0.0
2613,0.09933205576495191,0.0
2614,-0.0005528010474794599,0.0
2615,0.16149264616756107,0.0
2616,0.08371895481308081,0.0
2617,0.0716826512981668,0.0
2618,0.0650353293296066,0.0
2619,0.04930796577358727,0.0
2620,0.43611704380791166,0.0
2621,4.026217852587466,0.0
2622,6.645747922986936,0.0
2623,-0.8982202789576818,0.0
2624,-1.4738044170247857,0.0
2625,1.4377902738178756,0.0
2626,-0.848087027901925,0.0
2627,0.16140773465186464,0.0
2628,-0.08562556403920135,0.0
2629,-0.041574227150881785,0.0
2630,0.07203948082512668,0.0
2631,0.003197873742308524,0.0
2632,-0.035373423150167976,0.0
2633,0.03737437321141533,0.0
2634,0.01139438138283072,0.0
2635,0.09789224572798656,0.0
2636,-0.031755583554463375,0.0
2637,0.0629855452051731,0.0
2638,0.05901400343157774,0.0
2639,0.07117357551709415,0.0
2640,0.5369374770762727,0.0
2641,4.054516150956765,0.0
2642,6.755009040285226,0.0
2643,-0.933007082029024,0.0
2644,-1.432687986769252,0.0
2645,1.4659392225522554,0.0
2646,-0.6625778537203385,0.0
2647,0.2051817600493194,0.0
2648,-0.08175605108579423,0.0
2649,-0.09122722260645366,0.0
2650,0.01759618764248851,0.0
2651,0.013197865159853842,0.0
2652,0.04584735096042483,0.0
2653,0.0362724412822924,0.0
2654,-0.0856771275454276,0.0
2655,-0.0741913692065866,0.0
2656,0.06547943788833317,0.0
2657,0.055726144565057464,0.0
2658,0.049497534642162215,0.0
2659,-0.006822198101912305,0.0
2660,0.4233249159528978,0.0
2661,3.9455308222349768,0.0
2662,6.635163760623598,0.0
2663,-0.9226811257109148,0.0
2664,-1.5078207805278505,0.0
2665,1.534817417962789,0.0
2666,-0.7298079816207919,0.0
2667,0.2553586148645573,0.0
2668,0.06025125156199637,0.0
2669,0.03825427778476871,0.0
2670,0.07408085848126204,0.0
2671,0.08355244454704772,0.0
2672,-0.023888624191856063,0.0
2673,-0.029634961803351702,0.0
2674,0.015548546582833257,0.0
2675,-0.01996493844637285,0.0
2676,0.047690512064392676,0.0
2677,-0.08343245683183645,0.0
2678,-0.09699098713774809,0.0
2679,-0.0962302008715235,0.0
2680,0.23502616307110233,0.0
2681,3.8443937561786448,0.0
2682,6.526418219057484,0.0
2683,-1.1244650849040592,0.0
2684,-1.6234082190431145,0.0
2685,1.397817583988618,0.0
2686,-0.9151058964494125,0.0
2687,0.1325066166345233,0.0
2688,-0.0037511979515188684,0.0
2689,-0.145083549389876,0.0
2690,-0.0237231414499067,0.0
2691,0.04107481046413388,0.0
2692,0.014475606962302167,0.0
2693,0.05534747594914695,0.0
2694,-0.02726777764941227,0.0
2695,0.05081576186499963,0.0
2696,0.031673276053258946,0.0
2697,0.01695241016730576,0.0
2698,0.027019294586053323,0.0
2699,-0.025597758913536217,0.0
2700,0.3703081813556077,0.0
2701,4.05529132782487,0.0
2702,6.598892668567484,0.0
2703,-1.0043255221740515,0.0
2704,-1.5287352638934493,0.0
2705,1.570300530284791,0.0
2706,-0.8477796907685259,0.0
2707,0.16951789111849658,0.0
2708,-0.030898963870793335,0.0
2709,-0.06840611349532603,0.0
2710,-0.054915183494565055,0.0
2711,-0.07150398744330483,0.0
2712,-0.12760226151608783,0.0
2713,-0.031477006098546936,0.0
2714,-0.087397738573591,0.0
2715,0.009598927521413673,0.0
2716,-0.07334136796402477,0.0
2717,-0.08974916105756467,0.0
2718,-0.01847827300591638,0.0
2719,0.017205561249051343,0.0
2720,0.3753725281425742,0.0
2721,3.9381766696206397,0.0
2722,6.640810771234024,0.0
2723,-0.9790922568731055,0.0
2724,-1.5787857919401025,0.0
2725,1.3971314191998343,0.0
2726,-0.7461860890251171,0.0
2727,0.08753430261932434,0.0
2728,-0.08093711828896168,0.0
2729,-0.013205469446478123,0.0
2730,-0.09432902918833466,0.0
2731,-0.06985962876911829,0.0
2732,-0.07690465140902225,0.0
2733,-0.06924959336821812,0.0
2734,0.026351096214843918,0.0
2735,-0.0446626634437165,0.0
2736,0.02203607870562788,0.0
2737,-0.025041855617035765,0.0
2738,0.07122748179373567,0.0
2739,-0.009417551993023826,0.0
2740,0.30703948870109704,0.0
2741,3.9420521246187024,0.0
2742,6.56912070160482,0.0
2743,-0.9876846311571728,0.0
2744,-1.5005858794629734,0.0
2745,1.3376848293967292,0.0
2746,-0.7552748454085167,0.0
2747,0.12921703461873676,0.0
2748,-0.013226913721100686,0.0
2749,-0.10522931554747234,0.0
2750,-0.06252188096732698,0.0
2751,-0.02457333118444347,0.0
2752,-0.0379433843801567,0.0
2753,-0.07687747090809663,0.0
2754,-0.027401026102941456,0.0
2755,-0.062293119093216484,0.0
2756,-0.03755858338992717,0.0
2757,-0.04975797318621911,0.0
2758,-0.0826372410328695,0.0
2759,-0.0750752250552508,0.0
2760,0.39281905094348857,0.0
2761,3.9353059457133126,0.0
2762,6.580636383188698,0.0
2763,-1.0789694672949155,0.0
2764,-1.594399999249759,0.0
2765,1.4814460733680377,0.0
2766,-0.8199100029331572,0.0
2767,0.17992744429626273,0.0
2768,-0.02583861665548475,0.0
2769,-0.09024971221490588,0.0
2770,-0.05152375656292725,0.0
2771,-0.07231316744170135,0.0
2772,-0.055360112173612586,0.0
2773,-0.05479343314373812,0.0
2774,-0.06283074243910802,0.0
2775,-0.03178759671766511,0.0
2776,-0.07525555054429384,0.0
2777,-0.01090081482198238,0.0
2778,-0.03852940493294117,0.0
2779,0.03358743370030449,0.0
2780,0.3016425689228257,0.0
2781,4.01151233272097,0.0
2782,6.700047969419731,0.0
2783,-1.0047397790652646,0.0
2784,-1.3730155691769892,0.0
2785,1.527104332614091,0.0
2786,-0.7594872187366185,0.0
2787,0.2790348714336407,0.0
2788,-0.06729858571832287,0.0
2789,-0.05286149159849241,0.0
2790,0.001933678201816752,0.0
2791,-0.05407547722565202,0.0
2792,-0.020015960547769565,0.0
2793,-0.08051836157864364,0.0
2794,-0.0803086258392009,0.0
2795,-0.0189737464561457,0.0
2796,0.004886804299935793,0.0
2797,-0.02921851681167871,0.0
2798,-0.0782100691891899,0.0
2799,-0.03673664907984316,0.0
2800,0.36597831546258597,0.0
2801,3.9096123113930044,0.0
2802,6.629374417236121,0.0
2803,-1.0698639562868908,0.0
2804,-1.4774595939713677,0.0
2805,1.4106584080778128,0.0
2806,-0.7383684815328547,0.0
2807,0.21409823865556804,0.0
2808,-0.07318335772109547,0.0
2809,0.013335959631682902,0.0
2810,0.03219993144797278,0.0
2811,0.09272828534888256,0.0
2812,0.049988621621808366,0.0
2813,-0.02479427528522216,0.0
2814,0.07754332464023612,0.0
2815,0.03582422149442453,0.0
2816,0.07823250947454509,0.0
2817,-0.047270892559613274,0.0
2818,-0.02483467935138712,0.0
2819,-0.08965736193193924,0.0
2820,0.32371929113040454,0.0
2821,3.8948043453546473,0.0
2822,6.660254566952735,0.0
2823,-1.0275508070429542,0.0
2824,-1.5757982081454953,0.0
2825,1.433510251505025,0.0
2826,-0.879359079577736,0.0
2827,0.24729750381562693,0.0
2828,-0.04730731964873854,0.0
2829,-0.04603019684322057,0.0
2830,-0.01863758245161251,0.0
2831,0.05494359785460533,0.0
2832,0.021858647323956936,0.0
2833,-0.004053571078489908,0.0
2834,-0.04512185112450277,0.0
2835,0.1045589410568458,0.0
2836,0.11811080860530934,0.0
2837,0.03771724947411073,0.0
2838,0.05199388460675744,0.0
2839,0.12090377621687241,0.0
2840,0.35734840482245533,0.0
2841,3.9753596999917833,0.0
2842,6.694926297202616,0.0
2843,-0.9599865312896818,0.0
2844,-1.5188564164550349,0.0
2845,1.5271266353511364,0.0
2846,-0.7723806070235165,0.0
2847,0.26102801615804894,0.0
2848,0.0341547187151571,0.0
2849,-0.03367710496832982,0.0
2850,0.019123767695541735,0.0
2851,-0.01992556398530952,0.0
2852,-0.030891877396222477,0.0
2853,0.01990039564197735,0.0
2854,0.026636540879226085,0.0
2855,0.059912501135608594,0.0
2856,0.03971372092085692,0.0
2857,0.0033672869971705446,0.0
2858,0.002882543261023357,0.0
2859,-0.026981871898766198,0.0
2860,0.3989654004820673,0.0
2861,3.9562966436259477,0.0
2862,6.7232986761664115,0.0
2863,-0.9476948148858861,0.0
2864,-1.5250820194585912,0.0
2865,1.4424819705287395,0.0
2866,-0.7578888022858138,0.0
2867,0.27284830504272833,0.0
2868,0.05085031745744769,0.0
2869,-0.06258571124285568,0.0
2870,0.002061337034984588,0.0
2871,0.06815294579163111,0.0
2872,0.061638845122786945,0.0
2873,-0.022545121694327527,0.0
2874,-0.11622917115010627,0.0
2875,-0.015288848883342004,0.0
2876,-0.02762430136399252,0.0
2877,-0.02213013511813141,0.0
2878,-0.03179065699115937,0.0
2879,-8.095344036859395e-05,0.0
2880,0.31449689710956724,0.0
2881,3.954274366281089,0.0
2882,6.665045913181644,0.0
2883,-0.9655715312725384,0.0
2884,-1.391466441067365,0.0
2885,1.4029648969083026,0.0
2886,-0.7638682120322217,0.0
2887,0.3556838149506547,0.0
2888,0.008615571279081372,0.0
2889,0.052579899530940125,0.0
2890,0.08090931195558915,0.0
2891,0.12920648966313544,0.0
2892,0.10322816288452086,0.0
2893,0.12331504951823366,0.0
2894,0.04831239865042996,0.0
2895,0.07869333141303722,0.0
2896,0.10168414953404464,0.0
2897,0.03299918651009358,0.0
2898,0.01947018403605727,0.0
2899,0.03971487611916391,0.0
2900,0.3196373502155888,0.0
2901,4.003303748656207,0.0
2902,6.6554631932098625,0.0
2903,-1.075761604893693,0.0
2904,-1.533227689666475,0.0
2905,1.4349875240897594,0.0
2906,-0.9496152758219281,0.0
2907,0.184033379005329,0.0
2908,-0.0753862794528683,0.0
2909,-0.02769988201121982,0.0
2910,-0.05048357751965603,0.0
2911,-0.020840391535191256,0.0
2912,0.11004986333154101,0.0
2913,-0.010027301765228704,0.0
2914,0.020573263406623462,0.0
2915,-0.04120647073671725,0.0
2916,0.0662473060031071,0.0
2917,0.09558303777293473,0.0
2918,-0.09460181012510237,0.0
2919,0.04104093458616219,0.0
2920,0.40913058344533115,0.0
2921,4.034707560716308,0.0
2922,6.656360338739063,0.0
2923,-1.0258875047727056,0.0
2924,-1.4021420073976283,0.0
2925,1.4200421304520257,0.0
2926,-0.716394587158385,0.0
2927,0.25090803842990067,0.0
2928,0.028883725166567474,0.0
2929,0.07029928867461756,0.0
2930,-0.07670786521835249,0.0
2931,-0.01660720330877543,0.0
2932,-0.019168864773260033,0.0
2933,-0.028479219355773175,0.0
2934,-0.020514806641608936,0.0
2935,0.05702836894396999,0.0
2936,-0.04972173827003658,0.0
2937,-0.05689166114408269,0.0
2938,-0.044041510860108705,0.0
2939,-0.01985801976561944,0.0
2940,0.3576615466420361,0.0
2941,4.063120340982931,0.0
2942,6.611451803788875,0.0
2943,-0.9751982299562056,0.0
2944,-1.4704881326793584,0.0
2945,1.431286033646264,0.0
2946,-0.7533534268536054,0.0
2947,0.2514774461930413,0.0
2948,0.02131182027084555,0.0
2949,0.16049121645326192,0.0
2950,0.09352930706757004,0.0
2951,0.10391520088339418,0.0
2952,0.09524298259723378,0.0
2953,-0.02082036011541774,0.0
2954,0.045086555954081085,0.0
2955,0.011507480367307338,0.0
2956,0.0536141953810309,0.0
2957,-0.023864456520930936,0.0
2958,0.12494763041993591,0.0
2959,-0.018164671259740264,0.0
2960,0.4152620642515111,0.0
2961,4.047679500607693,0.0
2962,6.584946080405682,0.0
2963,-1.1223226336854402,0.0
2964,-1.5032593055346832,0.0
2965,1.433062847094405,0.0
2966,-0.8019267278211898,0.0
2967,0.16780155663383026,0.0
2968,-0.08599963796759971,0.0
2969,-0.07995195347463643,0.0
2970,0.04690777851284367,0.0
2971,-0.01044251668898777,0.0
2972,-0.021962755067425635,0.0
2973,-0.02277110649482262,0.0
2974,0.02729617477786911,0.0
2975,0.058187451847147784,0.0
2976,-0.0018744850117109694,0.0
2977,0.04033050442801256,0.0
2978,-0.08749102446562254,0.0
2979,-0.03812971997592869,0.0
2980,0.49061098720106266,0.0
2981,3.951461111021686,0.0
2982,6.617963714187885,0.0
2983,-1.0758835617868105,0.0
2984,-1.4490547146963906,0.0
2985,1.4746183576005278,0.0
2986,-0.6854406913813068,0.0
2987,0.17833306213961714,0.0
2988,-0.06319106879387319,0.0
2989,0.0558436257010387,0.0
2990,-0.016179402695196445,0.0
2991,0.021782399228565417,0.0
2992,0.008815921403794174,0.0
2993,0.009700924552724585,0.0
2994,0.11036961367351864,0.0
2995,0.03544272863852658,0.0
2996,-0.03354325129090866,0.0
2997,0.09377210141646942,0.0
2998,0.07798346176068578,0.0
2999,-0.03613191948782604,0.0
3000,0.478635554824587,0.0
3001,3.9665461250403333,0.0
3002,6.64227109590283,0.0
3003,-1.1352561797018415,0.0
3004,-1.4331510752639116,0.0
3005,1.468517822898061,0.0
3006,-0.7136784598205591,0.0
3007,0.2561555587607898,0.0
3008,-0.13696093772415352,0.0
3009,0.03985938739764709,0.0
3010,0.13017131381298863,0.0
3011,-0.022819418419427705,0.0
3012,-0.0007206926904975708,0.0
3013,-0.05286555806639169,0.0
3014,0.04570297745122263,0.0
3015,0.01217698333105612,0.0
3016,-0.038069763437348796,0.0
3017,-0.04366690173149665,0.0
3018,-0.033935296883593896,0.0
3019,0.03807585084435112,0.0
3020,0.42884652757369623,0.0
3021,4.0266797462342225,0.0
3022,6.575238653384389,0.0
3023,-1.0291049769439604,0.0
3024,-1.501346493775184,0.0
3025,1.4283598431987548,0.0
3026,-0.8340600307436397,0.0
3027,0.1841624684846987,0.0
3028,-0.08060649534936196,0.0
3029,-0.08759447101315654,0.0
3030,0.088888441393302,0.0
3031,-0.014291298641637844,0.0
3032,-0.14364682672405177,0.0
3033,-0.061622063144545394,0.0
3034,-0.10890129448578695,0.0
3035,0.032959639468667465,0.0
3036,-0.0038847179531095247,0.0
3037,-0.05173866377282494,0.0
3038,-0.09200291227078317,0.0
3039,-0.05581774085959727,0.0
3040,0.3548549389650014,0.0
3041,3.9692165894854448,0.0
3042,6.519536521131376,0.0
3043,-1.17543789406923,0.0
3044,-1.513729530974745,0.0
3045,1.3909860471653341,0.0
3046,-0.8025603297432082,0.0
3047,0.19769684720411654,0.0
3048,-0.03926124253023365,0.0
3049,-0.059712927037915225,0.0
3050,0.009953873102745385,0.0
3051,-0.06991613463744614,0.0
3052,-0.046475004084464054,0.0
3053,0.0200805012035504,0.0
3054,0.06006658410557052,0.0
3055,-0.07541210211784696,0.0
3056,-0.013859058258976242,0.0
3057,0.02350209548078804,0.0
3058,-0.047060546253906876,0.0
3059,0.004464734784107319,0.0
3060,0.41183934279213746,0.0
3061,4.035347326453819,0.0
3062,6.614611262337224,0.0
3063,-1.1422971157931125,0.0
3064,-1.4789108102339514,0.0
3065,1.4686738007469056,0.0
3066,-0.8473053200216522,0.0
3067,0.15209651744438743,0.0
3068,0.052902432153724456,0.0
3069,-0.05934586959015385,0.0
3070,0.0020745823221404924,0.0
3071,-0.06845812811798219,0.0
3072,-0.06551754835645539,0.0
3073,-0.015450005214501978,0.0
3074,0.06629370839687178,0.0
3075,0.0316908788024116,0.0
3076,0.005313780160397101,0.0
3077,0.026575179240978748,0.0
3078,0.03731491837033554,0.0
3079,0.07169315933341192,0.0
3080,0.3650597026831165,0.0
3081,3.980867223689885,0.0
3082,6.508303094003706,0.0
3083,-1.058890961866826,0.0
3084,-1.5058369328565555,0.0
3085,1.3776507212385223,0.0
3086,-0.7780397355360155,0.0
3087,0.1056218391470718,0.0
3088,-0.03704222467267235,0.0
3089,-0.018746317041325546,0.0
3090,0.010057080502318324,0.0
3091,-0.0071107427612650724,0.0
3092,0.08711992594312254,0.0
3093,-0.08409052322278021,0.0
3094,0.09104794824048926,0.0
3095,0.026270555578172733,0.0
3096,-0.032022524832035916,0.0
3097,-0.05008729405662889,0.0
3098,0.044635316571301556,0.0
3099,0.03558017380255603,0.0
3100,0.366495830005929,0.0
3101,4.070270071070571,0.0
3102,6.513641506306093,0.0
3103,-1.0679048371193498,0.0
3104,-1.4914397974807574,0.0
3105,1.4732819794187177,0.0
3106,-0.7540777899568756,0.0
3107,0.2802452692918215,0.0
3108,-0.11523352341451838,0.0
3109,-0.027421824847016146,0.0
3110,-0.05084185519965712,0.0
3111,0.03744878171487577,0.0
3112,0.05302724304398498,0.0
3113,0.011231652839909992,0.0
3114,0.006173767358688167,0.0
3115,0.01739555609785368,0.0
3116,-0.04065004847849848,0.0
3117,-0.032930779971943644,0.0
3118,0.0008229775110781337,0.0
3119,0.0012602315357703453,0.0
3120,0.3733484339124028,0.0
3121,4.018943844428445,0.0
3122,6.537396055760933,0.0
3123,-1.1286964290118018,0.0
3124,-1.4759618068124358,0.0
3125,1.3640035064086176,0.0
3126,-0.7138117925327376,0.0
3127,0.2444288007698166,0.0
3128,-0.03140543451508169,0.0
3129,-0.05066281463116027,0.0
3130,-0.024001563466614455,0.0
3131,-0.08128320443556947,0.0
3132,0.020706809566248985,0.0
3133,0.0068543285413245406,0.0
3134,0.0072153320739935245,0.0
3135,-0.06775369754451767,0.0
3136,-0.05059073896491219,0.0
3137,-0.09831535261456253,0.0
3138,-0.056306878853210354,0.0
3139,0.028257690824036952,0.0
3140,0.3872449502831414,0.0
3141,4.007456754727293,0.0
3142,6.643754987834904,0.0
3143,-1.1320912342337914,0.0
3144,-1.385120455484676,0.0
3145,1.4004960752252271,0.0
3146,-0.8064050520650708,0.0
3147,0.21556556217140851,0.0
3148,-0.05170717192347939,0.0
3149,-0.05767824419830163,0.0
3150,-0.02331653743679843,0.0
3151,0.018616892996497648,0.0
3152,0.1416448749793765,0.0
3153,-0.0018690793366816644,0.0
3154,0.004615326325216208,0.0
3155,0.02879220841789092,0.0
3156,0.02685798142878726,0.0
3157,-0.010997029041377728,0.0
3158,-0.029681077800741404,0.0
3159,-0.11774753329715218,0.0
3160,0.4226033321325895,0.0
3161,4.040805480744704,0.0
3162,6.548246800624849,0.0
3163,-1.1572525144014667,0.0
3164,-1.563109042519373,0.0
3165,1.3420201966285517,0.0
3166,-0.8982841514622589,0.0
3167,0.15851616947615296,0.0
3168,-0.1336180743391138,0.0
3169,-0.13084851382290358,0.0
3170,-0.021591681386750494,0.0
3171,-0.008332800013279934,0.0
3172,-0.008179966007676644,0.0
3173,-0.06785470914083361,0.0
3174,0.04984394339581097,0.0
3175,-0.008228476751944637,0.0
3176,0.004892519892566383,0.0
3177,-0.07843408254435533,0.0
3178,0.02786607495197059,0.0
3179,-0.01814632841665291,0.0
3180,0.41787002935744966,0.0
3181,3.903154345909641,0.0
3182,6.631063480868932,0.0
3183,-1.2498342157118791,0.0
3184,-1.4738982078707163,0.0
3185,1.3566455379220703,0.0
3186,-0.7183583692852452,0.0
3187,0.18275647157078231,0.0
3188,-0.05925392676948787,0.0
3189,-0.1471729252082824,0.0
3190,0.016622976309732862,0.0
3191,-0.008195626287063343,0.0
3192,-0.12173737106033797,0.0
3193,-0.043538374821128205,0.0
3194,0.014429943889097414,0.0
3195,-0.07881865727393804,0.0
3196,0.08561991446311246,0.0
3197,-0.052642929626204,0.0
3198,-0.04075483989507175,0.0
3199,0.025100340629526943,0.0
3200,0.3320064991176498,0.0
3201,4.009434947519597,0.0
3202,6.495333557536162,0.0
3203,-1.0898504589951654,0.0
3204,-1.474102577601126,0.0
3205,1.2627045065569542,0.0
3206,-0.8850687950353718,0.0
3207,0.16103658663064113,0.0
3208,-0.05455718093729592,0.0
3209,-0.09012934446638234,0.0
3210,-0.0030086546835337083,0.0
3211,-0.03605036926818071,0.0
3212,0.011503508851958742,0.0
3213,-0.10316771163823013,0.0
3214,-0.045939835690047344,0.0
3215,-0.002877829002033313,0.0
3216,-0.09408779900279847,0.0
3217,-0.07316949698020406,0.0
3218,-0.05204654955782971,0.0
3219,-0.002793669946625797,0.0
3220,0.2921951732285529,0.0
3221,4.05267216988735,0.0
3222,6.546938544168763,0.0
3223,-1.2732409992571965,0.0
3224,-1.4402845184941908,0.0
3225,1.3428231177944476,0.0
3226,-0.901300822294358,0.0
3227,0.2604595968956348,0.0
3228,-0.10666392705605822,0.0
3229,-0.10057227770812822,0.0
3230,-0.029054762727013354,0.0
3231,-0.10242868043280931,0.0
3232,-0.0994920310240767,0.0
3233,-0.04022214137709813,0.0
3234,-0.05878380809839973,0.0
3235,-0.15531990702364995,0.0
3236,-0.07813302070897427,0.0
3237,-0.1315921279598442,0.0
3238,-0.11315931364696089,0.0
3239,-0.07636059401997955,0.0
3240,0.31367230885095,0.0
3241,4.038337703443263,0.0
3242,6.551580247538264,0.0
3243,-1.2520552688930848,0.0
3244,-1.4996953701592355,0.0
3245,1.302160114795495,0.0
3246,-0.937912898567759,0.0
3247,0.07203490149865222,0.0
3248,-0.11814014400401071,0.0
3249,-0.09864379629328598,0.0
3250,-0.02130731906100182,0.0
3251,-0.11988424627407095,0.0
3252,-0.04737720321176803,0.0
3253,-0.04925856118673426,0.0
3254,-0.1418653017180762,0.0
3255,-0.053926763583152904,0.0
3256,-0.07511803321613031,0.0
3257,-0.06055331416884814,0.0
3258,0.009347422704863204,0.0
3259,-0.11793513632658839,0.0
3260,0.3104935907088013,0.0
3261,4.0600081205041185,0.0
3262,6.670512353029187,0.0
3263,-1.1924076853714292,0.0
3264,-1.465874397697327,0.0
3265,1.431473170758254,0.0
3266,-0.7840382965781029,0.0
3267,0.14189599969250405,0.0
3268,-0.13997248367323528,0.0
3269,-0.02660884193715135,0.0
3270,0.029511759745190685,0.0
3271,-0.11678018964950454,0.0
3272,-0.03794949189040657,0.0
3273,-0.030507871742982043,0.0
3274,-0.04452876826267671,0.0
3275,0.08514569357694973,0.0
3276,-0.06673948608258878,0.0
3277,-0.04948694222565014,0.0
3278,-0.024285705342773085,0.0
3279,-0.15708653577134837,0.0
3280,0.2919457623375719,0.0
3281,4.057877904643933,0.0
3282,6.477754794908498,0.0
3283,-1.1925351238818,0.0
3284,-1.4515842575784625,0.0
3285,1.4275373129894429,0.0
3286,-0.8723661623079466,0.0
3287,0.11549298875138633,0.0
3288,0.0581627244277656,0.0
3289,0.021533299094490976,0.0
3290,0.040488520420318544,0.0
3291,-0.0695556683256005,0.0
3292,0.02170428191750781,0.0
3293,0.06424720887308297,0.0
3294,0.07185606710844811,0.0
3295,0.0076911837997394455,0.0
3296,0.10639526243278216,0.0
3297,-0.03733262032828201,0.0
3298,0.05115867658065169,0.0
3299,-0.02681324277546175,0.0
3300,0.3956065645399787,0.0
3301,4.176870699047683,0.0
3302,6.6389722911299405,0.0
3303,-1.1237784172755456,0.0
3304,-1.4473710134816447,0.0
3305,1.3667813965879083,0.0
3306,-0.8254000537998895,0.0
3307,0.24780926183862728,0.0
3308,-0.04209675830421168,0.0
3309,0.06043259401795575,0.0
3310,0.04708817899554276,0.0
3311,0.08266363156220698,0.0
3312,0.027886949372126105,0.0
3313,0.05156512425883868,0.0
3314,0.07846848128514253,0.0
3315,0.09121902793693762,0.0
3316,0.06216789821062008,0.0
3317,-0.10536801627172843,0.0
3318,-0.026373759421830782,0.0
3319,-0.12486453271042841,0.0
3320,0.41598977231141765,0.0
3321,4.065538998310833,0.0
3322,6.568929938156722,0.0
3323,-1.1274847391440133,0.0
3324,-1.4206827553768633,0.0
3325,1.4154470092816058,0.0
3326,-0.8299354199174538,0.0
3327,0.2623734885482615,0.0
3328,-0.020032470438876036,0.0
3329,0.006131336968243016,0.0
3330,0.07565490906333236,0.0
3331,0.04922476840049439,0.0
3332,0.080438285162723,0.0
3333,0.030001915642040508,0.0
3334,0.03886938911993414,0.0
3335,0.03452651473134981,0.0
3336,0.06426516287119088,0.0
3337,0.015483010723104748,0.0
3338,0.05041379858577352,0.0
3339,0.019404833352999546,0.0
3340,0.4396364953251517,0.0
3341,4.130750149565524,0.0
3342,6.504932856183612,0.0
3343,-1.1049170265772135,0.0
3344,-1.3431738668763722,0.0
3345,1.4670040441471666,0.0
3346,-0.7032650070962533,0.0
3347,0.18586623225657217,0.0
3348,-0.06411511104257933,0.0
3349,0.011255110268882866,0.0
3350,0.09247574908506428,0.0
3351,-0.01197507931061641,0.0
3352,0.12076725762510557,0.0
3353,0.047089656310912234,0.0
3354,0.053594410254599094,0.0
3355,0.043615955592879195,0.0
3356,0.044769782495291725,0.0
3357,0.003377323310812426,0.0
3358,0.06708524119575324,0.0
3359,0.004061475342296176,0.0
3360,0.4579610437005602,0.0
3361,4.1489957714044,0.0
3362,6.572705151098228,0.0
3363,-1.1391345008112441,0.0
3364,-1.4162665443717073,0.0
3365,1.384441942105418,0.0
3366,-0.7583831993732472,0.0
3367,0.24083553904266744,0.0
3368,-0.04350858361399873,0.0
3369,-0.03164334324096076,0.0
3370,0.10124377747595145,0.0
3371,0.024516844373619125,0.0
3372,0.004418632268414364,0.0
3373,0.033513737712730446,0.0
3374,-0.010104428464490757,0.0
3375,-0.05299754422173772,0.0
3376,0.0464836397375744,0.0
3377,0.011864820034425981,0.0
3378,-0.033979940794449576,0.0
3379,0.13661804627847604,0.0
3380,0.41502455098118113,0.0
3381,4.0982917170449005,0.0
3382,6.59551128393332,0.0
3383,-1.1197040707844246,0.0
3384,-1.374436661852404,0.0
3385,1.4135236900420476,0.0
3386,-0.8916693888917538,0.0
3387,0.2327466632180822,0.0
3388,-0.04639205695625775,0.0
3389,-0.10101027263072014,0.0
3390,-0.0562319524564076,0.0
3391,-0.056320888440460945,0.0
3392,-0.04564047911828317,0.0
3393,0.0005329337641276077,0.0
3394,-0.05795332666810914,0.0
3395,0.023039618846134084,0.0
3396,-0.036184260404572455,0.0
3397,-0.07168884529550965,0.0
3398,-0.05481222543681946,0.0
3399,-0.02542183720288753,0.0
3400,0.41338796337840206,0.0
3401,4.117257928578193,0.0
3402,6.6126014874736825,0.0
3403,-1.1154005449236306,0.0
3404,-1.353812148401494,0.0
3405,1.4671456256688427,0.0
3406,-0.7561419682520903,0.0
3407,0.270633829944126,0.0
3408,0.010220793366204035,0.0
3409,-0.0453566794148748,0.0
3410,-0.07333169746133913,0.0
3411,-0.07765329542480369,0.0
3412,0.08996148967994741,0.0
3413,-0.018101015162481505,0.0
3414,-0.06330513061317154,0.0
3415,0.003917333386296487,0.0
3416,-0.014050320865901174,0.0
3417,0.039465219517919425,0.0
3418,-0.08558499483758708,0.0
3419,-0.0115945644395978,0.0
3420,0.3528487188971799,0.0
3421,4.090963979468519,0.0
3422,6.596585563546,0.0
3423,-1.1013434690400263,0.0
3424,-1.3671153178287494,0.0
3425,1.3935668791084321,0.0
3426,-0.8519397753389228,0.0
3427,0.14698859525616761,0.0
3428,0.05441121745203108,0.0
3429,-0.04913439738805954,0.0
3430,0.06053280268561221,0.0
3431,-0.011768744743451767,0.0
3432,0.03345564511475427,0.0
3433,0.009897980272816985,0.0
3434,0.00853259075369194,0.0
3435,0.06338572108496447,0.0
3436,-0.08896387006113979,0.0
3437,-0.02239959337884696,0.0
3438,-0.010663318595929627,0.0
3439,0.05188155471517022,0.0
3440,0.4868050168521299,0.0
3441,4.115719750191156,0.0
3442,6.539126386181229,0.0
3443,-1.1344207300736961,0.0
3444,-1.332973977085677,0.0
3445,1.43661935585188,0.0
3446,-0.7737105164351913,0.0
3447,0.255635804393631,0.0
3448,-0.09715107561190958,0.0
3449,0.08987842097485105,0.0
3450,-0.07077479715841771,0.0
3451,0.07547890564147154,0.0
3452,-0.010480609215556741,0.0
3453,-0.07945046704714966,0.0
3454,-0.03356159939989686,0.0
3455,0.13355672126061444,0.0
3456,-0.1627208655791898,0.0
3457,-0.07886381188136818,0.0
3458,-0.0018512852521195416,0.0
3459,-0.05770507532653531,0.0
3460,0.2904916307309264,0.0
3461,4.188625771122797,0.0
3462,6.531118762772409,0.0
3463,-1.0976684616049597,0.0
3464,-1.461640260944985,0.0
3465,1.3154943203351839,0.0
3466,-0.8263615706337051,0.0
3467,0.14117485768126103,0.0
3468,-0.0566175701831645,0.0
3469,-0.030527822109640487,0.0
3470,-0.030315100249488608,0.0
3471,-0.03200544252097512,0.0
3472,-0.029609616242718996,0.0
3473,-0.10196650683770767,0.0
3474,-0.0974320209858733,0.0
3475,0.001236118281949649,0.0
3476,0.059316535221600686,0.0
3477,-0.03227773991913423,0.0
3478,-0.029562682686624025,0.0
3479,0.05334154212248832,0.0
3480,0.3589927025083657,0.0
3481,4.180609277285499,0.0
3482,6.536264665480382,0.0
3483,-1.1703911829445344,0.0
3484,-1.3244353838862977,0.0
3485,1.4245663805792745,0.0
3486,-0.792467299699334,0.0
3487,0.20077856078792558,0.0
3488,-0.06112690977478909,0.0
3489,0.002293123854666953,0.0
3490,0.055849771207160684,0.0
3491,-0.018164921821318833,0.0
3492,-0.008398648767981364,0.0
3493,-0.09389568215863757,0.0
3494,0.04929030570339935,0.0
3495,-0.03164709940191023,0.0
3496,0.009353690259760593,0.0
3497,0.0005531120785833678,0.0
3498,-0.020186895741839683,0.0
3499,0.09735200249435534,0.0
3500,0.5288918888441869,0.0
3501,4.154570836405649,0.0
3502,6.559765974617776,0.0
3503,-1.1260214538728979,0.0
3504,-1.3648023036451078,0.0
3505,1.4379745112705602,0.0
3506,-0.8112042507780535,0.0
3507,0.206698444783673,0.0
3508,-0.0025326192515513837,0.0
3509,0.11524519324440519,0.0
3510,-0.06677987798327006,0.0
3511,-0.06657262282254293,0.0
3512,-0.11558966631968993,0.0
3513,-0.0015844321648216674,0.0
3514,0.027613160042171597,0.0
3515,-0.06053880728949272,0.0
3516,-0.08435408488585901,0.0
3517,0.0561056869422088,0.0
3518,0.06972079810441417,0.0
3519,-0.03334525410665913,0.0
3520,0.5199933446499763,0.0
3521,4.231278030525197,0.0
3522,6.668528257137287,0.0
3523,-1.0753414230211098,0.0
3524,-1.2886587540626206,0.0
3525,1.5447379089943125,0.0
3526,-0.6824043969609697,0.0
3527,0.30905124859855904,0.0
3528,-0.008944988118475258,0.0
3529,-0.06832659570710725,0.0
3530,0.05036211339152173,0.0
3531,0.02016283796205407,0.0
3532,0.05968088840865699,0.0
3533,-0.06193114672925927,0.0
3534,0.02883638576881497,0.0
3535,-0.04019250027255525,0.0
3536,-0.05998965191403566,0.0
3537,-0.06828808578895597,0.0
3538,-0.008029960053157498,0.0
3539,-0.10946991078650385,0.0
3540,0.41498368477755576,0.0
3541,4.166536339834958,0.0
3542,6.5858001656822704,0.0
3543,-1.2157054745160212,0.0
3544,-1.4135302401147667,0.0
3545,1.3147564448753393,0.0
3546,-0.7586441480910797,0.0
3547,0.18935044158882883,0.0
3548,-0.030925260661808396,0.0
3549,-0.036378304973874225,0.0
3550,-0.03271589422305468,0.0
3551,-0.08845523706225546,0.0
3552,-0.020654187641956288,0.0
3553,0.05353646253097531,0.0
3554,-0.005376904203983693,0.0
3555,0.01649762019518253,0.0
3556,0.027303800045579436,0.0
3557,0.06987124693739687,0.0
3558,0.007352418594024232,0.0
3559,0.10613813256835941,0.0
3560,0.5199694919016249,0.0
3561,4.26838059916423,0.0
3562,6.594406966133321,0.0
3563,-1.1167718363459294,0.0
3564,-1.2990780389803116,0.0
3565,1.452521321135778,0.0
3566,-0.8009375028126805,0.0
3567,0.21555509930259686,0.0
3568,0.037756392817652674,0.0
3569,-0.02955888013208858,0.0
3570,0.0547463145101799,0.0
3571,-0.09770384418804537,0.0
3572,-0.011195197999479526,0.0
3573,-0.07622897386871155,0.0
3574,-0.004296338237597355,0.0
3575,-0.09105631842455666,0.0
3576,-0.03554705862603744,0.0
3577,0.02040533881037688,0.0
3578,-0.04695886217118201,0.0
3579,-0.08282061550416255,0.0
3580,0.3719384110073898,0.0
3581,4.170837913160708,0.0
3582,6.520879934769429,0.0
3583,-1.2054782037798344,0.0
3584,-1.3730330188566768,0.0
3585,1.4540998798175229,0.0
3586,-0.7547947358992056,0.0
3587,0.21532129958110457,0.0
3588,-0.14952804590275764,0.0
3589,-0.08931441273789516,0.0
3590,-0.04159822895367059,0.0
3591,-0.037577266562739034,0.0
3592,-0.022346949623496697,0.0
3593,-0.03922070794227503,0.0
3594,-0.1670594142462043,0.0
3595,-0.12906153645591822,0.0
3596,-0.1030333338362612,0.0
3597,-0.07601232277592126,0.0
3598,-0.04266527532178053,0.0
3599,-0.10563679042242377,0.0
3600,0.3519787793423236,0.0
3601,4.016690735473668,0.0
3602,6.488798283714353,0.0
3603,-1.3454910615248508,0.0
3604,-1.429677241241072,0.0
3605,1.372372346407111,0.0
3606,-0.7603475222253697,0.0
3607,0.13677819235613048,0.0
3608,-0.02137225264905243,0.0
3609,-0.1260159194898103,0.0
3610,0.024428336757616416,0.0
3611,-0.03554687360740811,0.0
3612,-0.017249724336934127,0.0
3613,-0.03829644480164407,0.0
3614,-0.1386183820493555,0.0
3615,-0.09020074414793408,0.0
3616,-0.14509033079468803,0.0
3617,-0.0924742332911011,0.0
3618,-0.1817431748621183,0.0
3619,-0.022165933423572426,0.0
3620,0.2992252183288846,0.0
3621,3.9814550593336238,0.0
3622,6.471130762416815,0.0
3623,-1.3347296657563126,0.0
3624,-1.5508983656478594,0.0
3625,1.3494124898356359,0.0
3626,-0.8067166419802879,0.0
3627,0.12234975976418644,0.0
3628,-0.1378330870271902,0.0
3629,-0.05893678971530372,0.0
3630,-0.059336087741156736,0.0
3631,-0.04847897279253769,0.0
3632,-0.028854778202906432,0.0
3633,-0.044855457367902564,0.0
3634,-0.029986473492550896,0.0
3635,-0.05813584169463429,0.0
3636,-0.09882338942139986,0.0
3637,-0.08241332742731836,0.0
3638,-0.06997712325661731,0.0
3639,-0.06941661183988812,0.0
3640,0.30639506905908154,0.0
3641,4.113282280944435,0.0
3642,6.403941027816817,0.0
3643,-1.3394663959038693,0.0
3644,-1.4622961046699514,0.0
3645,1.2935366595287034,0.0
3646,-0.9583194753559754,0.0
3647,0.05471546139176677,0.0
3648,-0.11969084897946092,0.0
3649,-0.07269761553648992,0.0
3650,-0.09513454824649438,0.0
3651,-0.1356525575352122,0.0
3652,-0.14525152438761527,0.0
3653,-0.09096580439196712,0.0
3654,-0.23727014224728143,0.0
3655,-0.07404778797888115,0.0
3656,-0.12587087874939493,0.0
3657,-0.1790598887378039,0.0
3658,-0.05176136387504022,0.0
3659,-0.13954300815433637,0.0
3660,0.3445092193257299,0.0
3661,4.0782113895394305,0.0
3662,6.567214056886369,0.0
3663,-1.2817786333240035,0.0
3664,-1.4413194002522285,0.0
3665,1.3453127492840977,0.0
3666,-0.8973748512074572,0.0
3667,0.2236185119724862,0.0
3668,-0.05738430295894259,0.0
3669,0.012973482332729644,0.0
3670,0.026009489413142517,0.0
3671,-0.06182981761134532,0.0
3672,-0.08023318824325419,0.0
3673,-0.008528141802132481,0.0
3674,-0.03826395450118899,0.0
3675,-0.10321923471436328,0.0
3676,-0.1332941059812791,0.0
3677,-0.08798468257261012,0.0
3678,-0.050992802444872046,0.0
3679,0.007953642267085767,0.0
3680,0.3431938437574126,0.0
3681,4.104243120488906,0.0
3682,6.435020778448651,0.0
3683,-1.3619684834594548,0.0
3684,-1.4390634529078299,0.0
3685,1.3278888466711978,0.0
3686,-0.8738754170589054,0.0
3687,0.14724043775901371,0.0
3688,-0.06535035223927652,0.0
3689,-0.07946748922657419,0.0
3690,-0.0032370247943619562,0.0
3691,0.01415715228680918,0.0
3692,-0.12929555992763675,0.0
3693,-0.12143018996059257,0.0
3694,-0.11740818142299962,0.0
3695,-0.15899998406647597,0.0
3696,-0.10060239454077717,0.0
3697,-0.06181789837894738,0.0
3698,-0.05907631173105696,0.0
3699,-0.09294704486687855,0.0
3700,0.3477088688716944,0.0
3701,4.119211589678316,0.0
3702,6.482528318215781,0.0
3703,-1.2690270684812264,0.0
3704,-1.466178513813533,0.0
3705,1.4565620153576784,0.0
3706,-0.8137129182605443,0.0
3707,0.2411859776364398,0.0
3708,0.017001406790183547,0.0
3709,0.045908600282979134,0.0
3710,0.11781756000687926,0.0
3711,-0.017938476055896057,0.0
3712,0.02752398629603488,0.0
3713,-0.005852707882171953,0.0
3714,0.040726277506770894,0.0
3715,-0.028012916658920774,0.0
3716,-0.03413917213951072,0.0
3717,0.054977902531200065,0.0
3718,0.02197157666453597,0.0
3719,-0.048527413899720734,0.0
3720,0.3475908656252131,0.0
3721,4.134553846269897,0.0
3722,6.535299671594998,0.0
3723,-1.3533724196947958,0.0
3724,-1.4245850262081263,0.0
3725,1.338792417081465,0.0
3726,-0.9224813513931173,0.0
3727,0.20555469096950427,0.0
3728,-0.06918796987999248,0.0
3729,0.0694579768097416,0.0
3730,0.024541307506201242,0.0
3731,-0.02468422701619738,0.0
3732,0.019707578325772367,0.0
3733,0.0022347363512732776,0.0
3734,-0.007176705784535074,0.0
3735,0.022161852801230016,0.0
3736,0.06117392604012732,0.0
3737,0.08756118517003506,0.0
3738,-0.0023958327398828213,0.0
3739,-0.044715511977807876,0.0
3740,0.45966776838166795,0.0
3741,4.136498442495626,0.0
3742,6.494646574527644,0.0
3743,-1.2262408930157205,0.0
3744,-1.2880466695763975,0.0
3745,1.4027607091511,0.0
3746,-0.8618217998050556,0.0
3747,0.2050219061925337,0.0
3748,0.019620504533864592,0.0
3749,0.04475456443752828,0.0
3750,0.04914108427194122,0.0
3751,0.0304978387341945,0.0
3752,0.011941839406988241,0.0
3753,0.03725449312983339,0.0
3754,0.001252403278770825,0.0
3755,0.09453081825309977,0.0
3756,0.04989292623537077,0.0
3757,0.0505792851161673,0.0
3758,0.002114782856006414,0.0
3759,0.05715232472912174,0.0
3760,0.37837395304841653,0.0
3761,4.26358328217496,0.0
3762,6.528265506309893,0.0
3763,-1.2019107700635097,0.0
3764,-1.2348505548244435,0.0
3765,1.388787991211029,0.0
3766,-0.6839955987761001,0.0
3767,0.2197351158057385,0.0
3768,-0.008076934485936951,0.0
3769,-0.014536427239170271,0.0
3770,0.03697523838784502,0.0
3771,-0.00996802752450943,0.0
3772,0.09852724399837202,0.0
3773,0.017377868718617084,0.0
3774,0.09070949641652269,0.0
3775,0.03508463177691905,0.0
3776,0.025568762631265944,0.0
3777,-0.0006004889004670236,0.0
3778,-0.0187208450275444,0.0
3779,-0.02248665039201114,0.0
3780,0.46855866097467164,0.0
3781,4.191920353696583,0.0
3782,6.530783623665294,0.0
3783,-1.3172628256633772,0.0
3784,-1.3005796771178706,0.0
3785,1.4195322870518678,0.0
3786,-0.7873271822308027,0.0
3787,0.2578973681304114,0.0
3788,-0.02661379631299801,0.0
3789,-0.051879822810988484,0.0
3790,0.014741854501336488,0.0
3791,-0.05524070486798238,0.0
3792,-0.006379904989194697,0.0
3793,0.0568693660580047,0.0
3794,-0.03316784819753879,0.0
3795,0.01254005458152124,0.0
3796,-0.03106033923976661,0.0
3797,0.008729902768550837,0.0
3798,0.035297548886440044,0.0
3799,-0.06860423658287897,0.0
3800,0.40350514579606855,0.0
3801,4.158666334501922,0.0
3802,6.47118361775699,0.0
3803,-1.2012925770015204,0.0
3804,-1.2962027463697237,0.0
3805,1.3538458102491588,0.0
3806,-0.8063403545643706,0.0
3807,0.18095501518572887,0.0
3808,-0.08316483859692794,0.0
3809,-0.06011012339985962,0.0
3810,-0.03617403520939684,0.0
3811,-0.03876610518420706,0.0
3812,0.049531125250853,0.0
3813,0.04817478982369748,0.0
3814,-0.007990469228261913,0.0
3815,0.04520473910154234,0.0
3816,0.07254744301537987,0.0
3817,-0.1023955127303573,0.0
3818,-0.011367565618339116,0.0
3819,-0.03334124157426493,0.0
3820,0.3449315922674084,0.0
3821,4.120729398169553,0.0
3822,6.426057251280959,0.0
3823,-1.314944394674311,0.0
3824,-1.365067065718145,0.0
3825,1.2973741989752912,0.0
3826,-0.898594314575276,0.0
3827,0.1617183852883147,0.0
3828,0.012098389396068679,0.0
3829,-0.051364567913862166,0.0
3830,-0.11971545459687147,0.0
3831,-0.030793351139298535,0.0
3832,-0.0322889278621138,0.0
3833,-0.07174591702026564,0.0
3834,-0.05313675521697555,0.0
3835,-0.12493540879073886,0.0
3836,-0.051380673805807235,0.0
3837,0.024022832972223934,0.0
3838,-0.0017530786337980504,0.0
3839,0.0017448136624374153,0.0
3840,0.3879231346613571,0.0
3841,4.147998615859035,0.0
3842,6.4788032479744,0.0
3843,-1.2826493918719626,0.0
3844,-1.5430964429336809,0.0
3845,1.3669495935296907,0.0
3846,-0.828727496322819,0.0
3847,0.13496437603337064,0.0
3848,0.026245510269382627,0.0
3849,-0.09481868955968915,0.0
3850,-0.04409717991390292,0.0
3851,0.05118007929252732,0.0
3852,5.8322796580706536e-05,0.0
3853,-0.018436250962993825,0.0
3854,0.006773605511232138,0.0
3855,-0.025805004589196545,0.0
3856,-0.00028319974625962054,0.0
3857,0.00728554040479624,0.0
3858,-0.0003335136386271821,0.0
3859,0.006662544472888855,0.0
3860,0.4953540042662553,0.0
3861,4.267216692774139,0.0
3862,6.518349622989005,0.0
3863,-1.3266539344011914,0.0
3864,-1.4016064442909333,0.0
3865,1.4205851798003029,0.0
3866,-0.760227783619187,0.0
3867,0.20627162976395666,0.0
3868,0.023348784736803685,0.0
3869,-0.021252329629491355,0.0
3870,0.04217465624090817,0.0
3871,-0.1260188873795266,0.0
3872,-0.09282084074246519,0.0
3873,-0.00779248985785384,0.0
3874,-0.030146326635718187,0.0
3875,-0.012952419449141831,0.0
3876,0.0139729630111841,0.0
3877,-0.011370119483304143,0.0
3878,-0.003713165340755836,0.0
3879,-0.031985348615089816,0.0
3880,0.44285828598041055,0.0
3881,4.226079462134159,0.0
3882,6.607707577624878,0.0
3883,-1.373221489881973,0.0
3884,-1.3081231790412844,0.0
3885,1.4717116177805487,0.0
3886,-0.789639426811182,0.0
3887,0.2893579041614328,0.0
3888,-0.007442579589554729,0.0
3889,-0.07457977639389678,0.0
3890,0.05379981048811245,0.0
3891,-0.102341264361842,0.0
3892,0.027664299609974928,0.0
3893,-0.02207603513683125,0.0
3894,-0.04518629685169148,0.0
3895,-0.07235839540201629,0.0
3896,-0.10595313913897061,0.0
3897,-0.0633779548287301,0.0
3898,-0.062804967529648,0.0
3899,-0.08275539735806385,0.0
3900,0.3804192407920041,0.0
3901,4.25209420470715,0.0
3902,6.451601898203107,0.0
3903,-1.3405949670962736,0.0
3904,-1.3231542158585596,0.0
3905,1.3666233920656032,0.0
3906,-0.7667307660247564,0.0
3907,0.20802616926894962,0.0
3908,-0.13305831513836536,0.0
3909,-0.10721634643166522,0.0
3910,-0.031819899396717935,0.0
3911,-0.04667736706143513,0.0
3912,-0.039940088255090545,0.0
3913,-0.07594118716414781,0.0
3914,-0.08547654558301751,0.0
3915,0.008789381459160965,0.0
3916,-0.014542358590831686,0.0
3917,0.08169709043874752,0.0
3918,-0.003178438360863834,0.0
3919,-0.023437523462025045,0.0
3920,0.44985666285955184,0.0
3921,4.168624250549016,0.0
3922,6.536748599823357,0.0
3923,-1.2481972799481706,0.0
3924,-1.3796226686414437,0.0
3925,1.434502544216004,0.0
3926,-0.7897155333436899,0.0
3927,0.1886795677567563,0.0
3928,-0.14728872555619069,0.0
3929,0.018961065410957337,0.0
3930,-0.011756184255127545,0.0
3931,-0.019509891503638323,0.0
3932,-0.016895428086651607,0.0
3933,0.06255116354298483,0.0
3934,-0.024342992143013213,0.0
3935,-0.036760782472241266,0.0
3936,0.004133814893371571,0.0
3937,-0.035642647309517814,0.0
3938,-0.07597159642826204,0.0
3939,-0.02816229550942437,0.0
3940,0.3861912838126235,0.0
3941,4.179625622054819,0.0
3942,6.516890958089096,0.0
3943,-1.3577185265281053,0.0
3944,-1.258155676663399,0.0
3945,1.3728492998299333,0.0
3946,-0.82067286962632,0.0
3947,0.22990336912980205,0.0
3948,-0.041501951875338984,0.0
3949,-0.047952197728666796,0.0
3950,0.017837777374283614,0.0
3951,0.035467501299459206,0.0
3952,0.012866548733009589,0.0
3953,-0.04637660579753797,0.0
3954,0.0723204196838015,0.0
3955,-0.058665138561558146,0.0
3956,-0.051434825537879994,0.0
3957,-0.03472557844366301,0.0
3958,0.01955914278567647,0.0
3959,-0.04008219959055309,0.0
3960,0.4010016511940925,0.0
3961,4.282408731204686,0.0
3962,6.465985863689853,0.0
3963,-1.323808735558217,0.0
3964,-1.3071735313912631,0.0
3965,1.3486197340973922,0.0
3966,-0.7905863454439842,0.0
3967,0.2740371779903143,0.0
3968,-0.037268329533310766,0.0
3969,0.11341197237928452,0.0
3970,0.002586346925578905,0.0
3971,0.10295678763657667,0.0
3972,0.11299121698274106,0.0
3973,0.04102218097818695,0.0
3974,-0.004622741554691952,0.0
3975,0.021956964956254967,0.0
3976,0.008423766877841105,0.0
3977,0.03077844724978194,0.0
3978,0.03045847733268067,0.0
3979,-0.04249068014557584,0.0
3980,0.45288476441985054,0.0
3981,4.18606277654856,0.0
3982,6.390568053380333,0.0
3983,-1.4032621275278996,0.0
3984,-1.2883878326606704,0.0
3985,1.3819035259126358,0.0
3986,-0.809965093537444,0.0
3987,0.23424941548794564,0.0
3988,-0.02135425679737124,0.0
3989,-0.1286500058157438,0.0
3990,-0.08524354596332676,0.0
3991,-0.11331884318527831,0.0
3992,-0.11651962606437903,0.0
3993,0.0835300099644517,0.0
3994,0.041703625399255116,0.0
3995,-0.07776020420294526,0.0
3996,0.016412673818332522,0.0
3997,-0.0603438936090558,0.0
3998,-0.028038811704697846,0.0
3999,0.009814859287205423,0.0
4000,0.47192036654774777,0.0
4001,4.317859738877331,0.0
4002,6.536137922537818,0.0
4003,-1.3278080799980274,0.0
4004,-1.2801435774996608,0.0
4005,1.440276628571085,0.0
4006,-0.8386684340854353,0.0
4007,0.2962914378479186,0.0
4008,-0.007120660002629094,0.0
4009,-0.024278883690615722,0.0
4010,-0.03524047998664279,0.0
4011,0.04889093400551418,0.0
4012,0.047835131674394835,0.0
4013,-0.018605410054273963,0.0
4014,0.07040969059162447,0.0
4015,0.019071285382599737,0.0
4016,0.020191441111729345,0.0
4017,-0.026237485301765725,0.0
4018,0.0607075276211456,0.0
4019,-0.034872248374407985,0.0
4020,0.4232916680748144,0.0
4021,4.366214461212655,0.0
4022,6.431385650965876,0.0
4023,-1.333147135778453,0.0
4024,-1.2681131093327145,0.0
4025,1.4081791136605182,0.0
4026,-0.7234044507160794,0.0
4027,0.32931509948380727,0.0
4028,-0.04157213272739577,0.0
4029,0.07370097450327838,0.0
4030,0.04162709150627937,0.0
4031,-0.03715845013378332,0.0
4032,-0.06246417948354449,0.0
4033,-0.09177657392272674,0.0
4034,-0.037725693820009135,0.0
4035,-0.01796549250328111,0.0
4036,0.00786568304903419,0.0
4037,-0.017461627922914738,0.0
4038,0.04948380994683364,0.0
4039,0.09535168722832878,0.0
4040,0.3623002630081253,0.0
4041,4.22295212048386,0.0
4042,6.67021571488003,0.0
4043,-1.2006454908837694,0.0
4044,-1.2564044589577383,0.0
4045,1.4667154678103946,0.0
4046,-0.7605246042957994,0.0
4047,0.28181959484600116,0.0
4048,-0.0018294809498232978,0.0
4049,0.07820411257064049,0.0
4050,0.022111267810918794,0.0
4051,0.12835680870894925,0.0
4052,0.14310339986161652,0.0
4053,0.09258886767996145,0.0
4054,0.2112951191903531,0.0
4055,0.12519898738339014,0.0
4056,0.057650824117486114,0.0
4057,0.19500651700573357,0.0
4058,0.06694388387588708,0.0
4059,0.023668681369594276,0.0
4060,0.4024226876629326,0.0
4061,4.263614442456589,0.0
4062,6.580064092623458,0.0
4063,-1.308928496137773,0.0
4064,-1.3233864167206688,0.0
4065,1.3845628113574944,0.0
4066,-0.8228411214787366,0.0
4067,0.2995950461251305,0.0
4068,-0.09596513572034555,0.0
4069,-0.022632660618823984,0.0
4070,0.0510311992354849,0.0
4071,-0.05241581324068674,0.0
4072,0.10345685467660054,0.0
4073,0.012808445772583851,0.0
4074,0.09508824771320612,0.0
4075,0.059180335801075,0.0
4076,-0.0022501781346877013,0.0
4077,-0.02434242072860825,0.0
4078,0.04445959560618236,0.0
4079,0.06692075635288482,0.0
4080,0.5151083116570043,0.0
4081,4.3525551377086735,0.0
4082,6.495379628741369,0.0
4083,-1.2863612341976403,0.0
4084,-1.2728392343966448,0.0
4085,1.4236188398869352,0.0
4086,-0.8387772531820711,0.0
4087,0.23775948241341846,0.0
4088,-0.06915183649850003,0.0
4089,0.11351512557108066,0.0
4090,-0.019936712067257424,0.0
4091,0.06417826992464071,0.0
4092,-0.022397017050562636,0.0
4093,-0.02557006767594185,0.0
4094,-0.08338874105481155,0.0
4095,-0.01147487754670189,0.0
4096,-0.045661522081896694,0.0
4097,0.008445508357903355,0.0
4098,-0.003523754725325706,0.0
4099,-0.02734223499024828,0.0
4100,0.43407820125704893,0.0
4101,4.189495459013903,0.0
4102,6.392178340330536,0.0
4103,-1.3454920321248498,0.0
4104,-1.241088952380191,0.0
4105,1.3296948381050553,0.0
4106,-0.7763170234710801,0.0
4107,0.15837985874309146,0.0
4108,-0.03526049594731552,0.0
4109,-0.013835840257718158,0.0
4110,0.041200556064447544,0.0
4111,0.024832553152901993,0.0
4112,-0.008980659258819676,0.0
4113,-0.012163582418873295,0.0
4114,-0.014263693903897564,0.0
4115,0.04114592997914208,0.0
4116,0.01845240729964004,0.0
4117,0.10228044635229536,0.0
4118,-0.062322298960489,0.0
4119,0.07462413505614413,0.0
4120,0.40880907971316954,0.0
4121,4.3388029481268084,0.0
4122,6.417808989104661,0.0
4123,-1.387436727726973,0.0
4124,-1.2622182693457202,0.0
4125,1.491632832988904,0.0
4126,-0.7773094401071172,0.0
4127,0.212356276201027,0.0
4128,0.017707711783485194,0.0
4129,-0.009670792092882423,0.0
4130,0.05807928962554246,0.0
4131,0.03554812529776072,0.0
4132,-0.09630469970060221,0.0
4133,0.04971173961910534,0.0
4134,0.01598927401887203,0.0
4135,0.0209861822136977,0.0
4136,-0.051099279691309465,0.0
4137,0.0761674520343178,0.0
4138,-0.06923320177147803,0.0
4139,0.059046774232177565,0.0
4140,0.4623747380797937,0.0
4141,4.2817631409371515,0.0
4142,6.502604937956386,0.0
4143,-1.3203890608153037,0.0
4144,-1.2131365708916741,0.0
4145,1.3341789534614035,0.0
4146,-0.8244191012590177,0.0
4147,0.26002762915843713,0.0
