timestamp,value-0,is_anomaly
0,0.26339705201800095,0.0
1,3.496738429143339,0.0
2,6.844084849567154,0.0
3,-0.20679134328905913,0.0
4,-2.022461774605933,0.0
5,1.4996489585434825,0.0
6,-0.6289180767676364,0.0
7,0.14241302122295807,0.0
8,0.05037708340938546,0.0
9,-0.06384465820111448,0.0
10,0.13960688343636324,0.0
11,0.10866662661205158,0.0
12,-0.016197168965816296,0.0
13,0.008712015391542056,0.0
14,0.03280680701885892,0.0
15,0.004141469690138893,0.0
16,0.015726798424249806,0.0
17,-0.056768470790799094,0.0
18,0.0011155164002230938,0.0
19,-0.08089953496756684,0.0
20,0.24503494043793755,0.0
21,3.54280683861067,0.0
22,6.956108026950894,0.0
23,-0.26988500284895567,0.0
24,-1.992663549421067,0.0
25,1.5619751210668094,0.0
26,-0.7600577800702965,0.0
27,0.07274508262513671,0.0
28,0.024206947054130193,0.0
29,-0.06322171355233924,0.0
30,0.053459374818402974,0.0
31,-0.035141279934178614,0.0
32,0.002714126681039757,0.0
33,-0.008830546608076393,0.0
34,0.010996623455587521,0.0
35,-0.012609174976918595,0.0
36,-0.03992576332929923,0.0
37,-0.007579158604344117,0.0
38,-0.029259268004591263,0.0
39,-0.08061577295149037,0.0
40,0.28660353611973455,0.0
41,3.5314215711204913,0.0
42,6.948822148793558,0.0
43,-0.2542465891809997,0.0
44,-2.046953302418451,0.0
45,1.4823927269477648,0.0
46,-0.7413767684899779,0.0
47,0.14430141125250334,0.0
48,-0.04136964238496453,0.0
49,-0.037203877040341685,0.0
50,0.045129206383682195,0.0
51,-0.03298273419799839,0.0
52,-0.03604073087508135,0.0
53,-0.041511465438290304,0.0
54,-0.04014598429941545,0.0
55,-0.08006038247088862,0.0
56,0.10233770917974322,0.0
57,0.047819144223997925,0.0
58,0.02399891867356392,0.0
59,0.05041528378019647,0.0
60,0.33106010146112624,0.0
61,3.5762348337458576,0.0
62,7.040663364349811,0.0
63,-0.20136975428135856,0.0
64,-1.9014405574520568,0.0
65,1.6370732565737578,0.0
66,-0.6893090588468251,0.0
67,0.17232278679200852,0.0
68,0.10883695804462674,0.0
69,0.11578952111657267,0.0
70,0.05777699300927948,0.0
71,0.04093350808604693,0.0
72,0.0175109978899383,0.0
73,0.08557009569771472,0.0
74,0.03192791491079903,0.0
75,-0.05517713524448211,0.0
76,0.05425740626015833,0.0
77,-0.015285108641511377,0.0
78,0.038960012241107074,0.0
79,-0.1302045515363604,0.0
80,0.2766193899301601,0.0
81,3.420339238900649,0.0
82,6.832182334933994,0.0
83,-0.339297929674907,0.0
84,-2.0592730879576475,0.0
85,1.5717044167164875,0.0
86,-0.7279679478194803,0.0
87,0.1016124378620923,0.0
88,-0.07167891528382593,0.0
89,-0.013110917184198628,0.0
90,0.003609587046246303,0.0
91,-0.013827842708174436,0.0
92,0.0142430080481022,0.0
93,0.009277740177736873,0.0
94,-0.08761124280283061,0.0
95,-0.059022922795231345,0.0
96,-0.10849485236631409,0.0
97,0.012165310356627133,0.0
98,-0.02570365900057922,0.0
99,-0.00447886706658808,0.0
100,0.29339411702341006,0.0
101,3.498791556398494,0.0
102,6.838857684924307,0.0
103,-0.2838445304159182,0.0
104,-1.9660614536716101,0.0
105,1.4594868118129125,0.0
106,-0.6877320545849418,0.0
107,0.06279422870399529,0.0
108,-0.09637638499353589,0.0
109,-0.08475384920494518,0.0
110,-0.02205346279025414,0.0
111,-0.040090828308864374,0.0
112,-0.04096476183976844,0.0
113,0.02656992694810787,0.0
114,-0.011481820751477554,0.0
115,-0.05599352869276803,0.0
116,-0.09752061849702133,0.0
117,-9.499305185291587e-05,0.0
118,-0.11442471757082456,0.0
119,-0.04854094752435961,0.0
120,0.27900371839887217,0.0
121,3.555805180739586,0.0
122,6.859483343603792,0.0
123,-0.3199835627872901,0.0
124,-1.9315767523141645,0.0
125,1.517524944444899,0.0
126,-0.741141929369667,0.0
127,0.03260340753541405,0.0
128,0.06906495736145801,0.0
129,-0.05937664759084275,0.0
130,0.07872961501626717,0.0
131,-0.0034470849911835606,0.0
132,-0.05671341589393386,0.0
133,0.09710289781556086,0.0
134,-0.05542601273745344,0.0
135,-0.03428452031489315,0.0
136,0.05922605563620018,0.0
137,-0.05752329466250361,0.0
138,-0.012207186100806174,0.0
139,-0.07424594248903427,0.0
140,0.07818228133828065,0.0
141,3.555377952813041,0.0
142,6.90493159605203,0.0
143,-0.36208099838337154,0.0
144,-1.9099127929360589,0.0
145,1.5136455713622903,0.0
146,-0.7308043997641391,0.0
147,0.1928996990366168,0.0
148,0.017761542591158207,0.0
149,-0.06246905005364933,0.0
150,0.01716192093151231,0.0
151,0.026811738203649738,0.0
152,0.023596792031188873,0.0
153,-0.03551692476029895,0.0
154,0.08899975301666982,0.0
155,-0.048624032531510354,0.0
156,0.00017000418246301656,0.0
157,-0.002942279180253156,0.0
158,0.021143146328605943,0.0
159,0.03217659110028937,0.0
160,0.2599702740717828,0.0
161,3.480313010455998,0.0
162,6.900628368053869,0.0
163,-0.27213615556821125,0.0
164,-2.020939652475501,0.0
165,1.5144273634002237,0.0
166,-0.7041297011941094,0.0
167,0.040333442543129774,0.0
168,0.052080568100497826,0.0
169,-0.15396201821321018,0.0
170,-0.008851694592344424,0.0
171,-0.016631782168039566,0.0
172,-0.06972614063207645,0.0
173,-0.024888135096627344,0.0
174,-0.012612661224909233,0.0
175,5.669708309390467e-05,0.0
176,-0.04724312364142595,0.0
177,0.04666194118408225,0.0
178,-0.01193360425862553,0.0
179,0.03688197281591999,0.0
180,0.2647959522568506,0.0
181,3.5215977530233156,0.0
182,6.7637855842086925,0.0
183,-0.23071879453568644,0.0
184,-1.8616749229882692,0.0
185,1.5122107534086278,0.0
186,-0.6385536310011097,0.0
187,0.16590002383329477,0.0
188,0.047387600475720784,0.0
189,-0.1354160983659642,0.0
190,0.036030569128136694,0.0
191,0.04801315300232978,0.0
192,-0.0031942248370392993,0.0
193,-0.004251183764638733,0.0
194,-0.04549071558530419,0.0
195,0.025404145660720353,0.0
196,-0.015664888915940242,0.0
197,0.011835250514831001,0.0
198,0.08769400424830762,0.0
199,0.01621290204636328,0.0
200,0.3358420337272753,0.0
201,3.5943547737555237,0.0
202,6.8651354237691695,0.0
203,-0.28099156558496163,0.0
204,-1.973708269958452,0.0
205,1.5111735625636535,0.0
206,-0.7853470371871041,0.0
207,0.15778896995597272,0.0
208,-0.02417254535943924,0.0
209,0.0003846775647471032,0.0
210,-0.013979550023222341,0.0
211,-0.11380238111668366,0.0
212,-0.029523021440603297,0.0
213,-0.023420036020309426,0.0
214,-0.03432876059849457,0.0
215,0.05281494806448145,0.0
216,0.07990061625868865,0.0
217,-0.020872773000142522,0.0
218,-0.0963288479202573,0.0
219,-0.03719878312342715,0.0
220,0.34616477591223715,0.0
221,3.4694232805425904,0.0
222,6.93851398015975,0.0
223,-0.3101479972669683,0.0
224,-1.9734861773955916,0.0
225,1.4737816022331804,0.0
226,-0.7161600110002916,0.0
227,0.1339618862853066,0.0
228,-0.00043913364704147376,0.0
229,0.0761602408209367,0.0
230,0.00011972264085405304,0.0
231,-0.0887703399891879,0.0
232,-0.0219018877423975,0.0
233,-0.05039821252039318,0.0
234,0.09024682527854638,0.0
235,0.030822306957857926,0.0
236,-0.03889043941077434,0.0
237,0.09110118488553709,0.0
238,-0.04557450489347342,0.0
239,0.03945365014520013,0.0
240,0.26999177755204545,0.0
241,3.6077704127841894,0.0
242,6.895841402001544,0.0
243,-0.33426776239324835,0.0
244,-1.8770579628305084,0.0
245,1.5306653982190057,0.0
246,-0.6369134678982745,0.0
247,0.12319976769404112,0.0
248,0.13729661051281955,0.0
249,-0.05024267868818593,0.0
250,0.0026129083193658885,0.0
251,-0.0942845238489464,0.0
252,0.03757055072817326,0.0
253,-0.04014235407073132,0.0
254,-0.05688048453771075,0.0
255,0.04701242923779519,0.0
256,-0.019126614939333972,0.0
257,-0.08131418160488661,0.0
258,0.08974458574231264,0.0
259,0.023669876015593453,0.0
260,0.3034053155626496,0.0
261,3.5656910588052884,0.0
262,6.758002208350704,0.0
263,-0.37935565096742696,0.0
264,-1.9134048831466004,0.0
265,1.545924415304716,0.0
266,-0.7674161904305449,0.0
267,0.14854865099109096,0.0
268,-0.012559200159224092,0.0
269,-0.07861608184388083,0.0
270,0.008529655951841407,0.0
271,0.0188100418361717,0.0
272,0.007495447842881279,0.0
273,-0.024809883200898986,0.0
274,0.02556092054461654,0.0
275,0.026095562910034634,0.0
276,-0.01315516441533187,0.0
277,-0.03093702645877909,0.0
278,0.01432328300077624,0.0
279,0.019658783347516896,0.0
280,0.3267668676638911,0.0
281,3.524814483237417,0.0
282,6.9151535748342035,0.0
283,-0.2963186725903493,0.0
284,-1.9316357064775111,0.0
285,1.4465002207891802,0.0
286,-0.6655177442465408,0.0
287,0.1422403546772703,0.0
288,0.05254387465178864,0.0
289,-0.05831479779540727,0.0
290,0.06115924837938692,0.0
291,-0.03809396215951488,0.0
292,-0.027564116093858962,0.0
293,-0.03101076181329645,0.0
294,0.04652807910689129,0.0
295,-0.039049682998616476,0.0
296,0.012048476665926696,0.0
297,-0.01934839529442428,0.0
298,0.0463913152471387,0.0
299,-0.07884514053868637,0.0
300,0.31429528936328993,0.0
301,3.5478222993928594,0.0
302,6.878856260619621,0.0
303,-0.3464858602520934,0.0
304,-1.9387833121744682,0.0
305,1.5540968683531293,0.0
306,-0.7634462506059378,0.0
307,0.23381229295833503,0.0
308,0.044625567729741966,0.0
309,-0.04356572960159522,0.0
310,0.011285143527628706,0.0
311,0.02229632980161363,0.0
312,0.02279412852562716,0.0
313,-0.014900920570366103,0.0
314,-0.008538668062161633,0.0
315,0.07666383903970798,0.0
316,0.004576279730571521,0.0
317,-0.0020325164809941757,0.0
318,-0.06147070670006894,0.0
319,0.0002985424179867093,0.0
320,0.29238236320787886,0.0
321,3.4762070837227768,0.0
322,6.813473747091184,0.0
323,-0.3356269117803007,0.0
324,-1.850809840379355,0.0
325,1.6151039855537364,0.0
326,-0.6890029564537581,0.0
327,0.12965714365509048,0.0
328,-0.016167053371899408,0.0
329,-0.09350929448588799,0.0
330,0.03281877915082922,0.0
331,0.05524638066476807,0.0
332,0.04125645628757363,0.0
333,-0.06353149996931359,0.0
334,0.04128410271688067,0.0
335,-0.008441452629225316,0.0
336,-0.03579571915881756,0.0
337,-0.04227567556585684,0.0
338,-0.012507261863972394,0.0
339,-0.0986008072696114,0.0
340,0.2292074475243177,0.0
341,3.565478622698744,0.0
342,6.883616227436851,0.0
343,-0.3643862206172084,0.0
344,-1.9239831522245654,0.0
345,1.5903140860014586,0.0
346,-0.6268669741233971,0.0
347,0.11315814595279494,0.0
348,0.0017466453509613344,0.0
349,-0.044099703931098785,0.0
350,-0.0994716027614588,0.0
351,-0.014559842324598681,0.0
352,-0.004350273550677745,0.0
353,-0.017027765415025015,0.0
354,-0.026480230470166344,0.0
355,-0.05140025504021087,0.0
356,-0.0239769156653505,0.0
357,-0.03038092918490381,0.0
358,-0.015896435548075474,0.0
359,-0.10590093798848021,0.0
360,0.2590408421797483,0.0
361,3.5048145609904946,0.0
362,6.837699202878466,0.0
363,-0.43428162684928867,0.0
364,-1.9032769088928032,0.0
365,1.4597097860331207,0.0
366,-0.783891106207105,0.0
367,0.06914970457517661,0.0
368,0.04761547907420921,0.0
369,-0.05221360195018035,0.0
370,-0.022442240933470234,0.0
371,0.004808927535744047,0.0
372,0.04597620528945956,0.0
373,-0.03118766577059813,0.0
374,-0.03732895071335468,0.0
375,-0.07367179836019011,0.0
376,0.014047528727902842,0.0
377,0.022290521841177555,0.0
378,-0.005801593890851997,0.0
379,0.026946086984016904,0.0
380,0.17128623625183648,0.0
381,3.502932612427247,0.0
382,6.906618971262745,0.0
383,-0.3626888346845473,0.0
384,-1.952281251448945,0.0
385,1.5409768757950186,0.0
386,-0.6571973410496685,0.0
387,0.18536771273134306,0.0
388,-0.02400578166780709,0.0
389,-0.10560363514766598,0.0
390,-0.06665223333330773,0.0
391,0.006971003943223392,0.0
392,0.10770726255288048,0.0
393,0.09814714789063586,0.0
394,-0.07231431848099343,0.0
395,-0.07911947671199977,0.0
396,-0.0022373698201358736,0.0
397,-0.019072658170273763,0.0
398,0.0590473586952744,0.0
399,0.1255797336561959,0.0
400,0.30913938476224456,0.0
401,3.6233170261797674,0.0
402,6.717811742910245,0.0
403,-0.29509982443353217,0.0
404,-1.9585628922513796,0.0
405,1.5073312358848263,0.0
406,-0.8139439295070728,0.0
407,0.0825284024887959,0.0
408,-0.04483389780181485,0.0
409,-0.0382421206771853,0.0
410,0.04567896745134764,0.0
411,-0.10570704241539618,0.0
412,0.005406954857317306,0.0
413,0.029744640457097196,0.0
414,-0.05970720708611939,0.0
415,0.01860694170541111,0.0
416,0.0016565861377445517,0.0
417,-0.06245324342355363,0.0
418,-0.002542796227688472,0.0
419,-0.03714966966972597,0.0
420,0.30016260366783176,0.0
421,3.569661626422279,0.0
422,6.820995261355694,0.0
423,-0.39580073384020054,0.0
424,-1.9541344570751091,0.0
425,1.5520086225290983,0.0
426,-0.6813543198737707,0.0
427,0.08156941554805794,0.0
428,0.09133137876340022,0.0
429,-0.1127983365848677,0.0
430,0.07644883756371917,0.0
431,-0.02862417401021118,0.0
432,-0.003483068796474146,0.0
433,-0.013048667604928423,0.0
434,0.05279603488897608,0.0
435,0.05944421315734068,0.0
436,-0.045046737019430315,0.0
437,-0.018007592560630767,0.0
438,-0.051889243596649814,0.0
439,-0.07936206096407004,0.0
440,0.25421734482221664,0.0
441,3.62387878317979,0.0
442,6.840758144975701,0.0
443,-0.38960274511226556,0.0
444,-1.905186019036887,0.0
445,1.5299229317835048,0.0
446,-0.7669656801553318,0.0
447,0.2202199079535434,0.0
448,0.04463600530707669,0.0
449,-0.09415706955039893,0.0
450,0.03785462976301072,0.0
451,0.022779697093386755,0.0
452,-0.008139329507451689,0.0
453,-0.020891334763113605,0.0
454,-0.04087448369994731,0.0
455,0.0860924403558831,0.0
456,0.02360481396504506,0.0
457,-0.06460702829642001,0.0
458,0.04539689123828907,0.0
459,-0.004792938526571542,0.0
460,0.21821474609268987,0.0
461,3.6712316470911968,0.0
462,6.862389342203407,0.0
463,-0.44006754898799183,0.0
464,-1.8440159660981965,0.0
465,1.5482528458233258,0.0
466,-0.8866235884078472,0.0
467,0.054615119154134986,0.0
468,0.017597048257106486,0.0
469,-0.09790094810514742,0.0
470,-0.06274940916208474,0.0
471,-0.05173434670305081,0.0
472,-0.10471445691052876,0.0
473,-0.07378520723658316,0.0
474,-0.07575785756823353,0.0
475,0.04977484806095257,0.0
476,-0.07629115649227523,0.0
477,-0.006024632506905442,0.0
478,0.05621428485427666,0.0
479,-0.04639013140888909,0.0
480,0.25171056277351217,0.0
481,3.5856664425468745,0.0
482,6.9010337739004735,0.0
483,-0.42313650442296147,0.0
484,-1.9656036586781678,0.0
485,1.4689598373964352,0.0
486,-0.8041508851747587,0.0
487,0.15038127566679024,0.0
488,0.004506237245312697,0.0
489,-0.1379747662207615,0.0
490,0.014676757859437178,0.0
491,-0.04834824308203708,0.0
492,0.04282780613968486,0.0
493,0.09140740243737007,0.0
494,0.018828317349931165,0.0
495,-0.024873376417034913,0.0
496,0.025140040945934174,0.0
497,0.07792206750591607,0.0
498,0.0010101630342533169,0.0
499,0.07982064286706203,0.0
500,0.32231583574372485,0.0
501,3.687322254422181,0.0
502,6.926396711497629,0.0
503,-0.42189813908561224,0.0
504,-1.842995355021619,0.0
505,1.5011545741612409,0.0
506,-0.6537141303438045,0.0
507,0.18357457885887365,0.0
508,-0.06320362822623729,0.0
509,-0.03670765936114577,0.0
510,0.1410581412254633,0.0
511,-0.013461458691083832,0.0
512,-0.036008705364234395,0.0
513,-0.007794805208009629,0.0
514,-0.09550763774868008,0.0
515,0.02366864931626629,0.0
516,-0.03392500512991776,0.0
517,0.010185374439322272,0.0
518,0.013382970991375798,0.0
519,-0.021654722961730134,0.0
520,0.19958659072065166,0.0
521,3.581286804886401,0.0
522,6.921985974968254,0.0
523,-0.4316381609211126,0.0
524,-1.8129374380919985,0.0
525,1.4708873551063297,0.0
526,-0.6110555583523988,0.0
527,0.1654735779488243,0.0
528,0.12145400051643825,0.0
529,0.05024093285146846,0.0
530,0.019400912069028213,0.0
531,-0.026052500049759564,0.0
532,0.054428709739980596,0.0
533,-0.008288162216508486,0.0
534,0.1332923435486195,0.0
535,-0.033164597420000635,0.0
536,0.1071700639706396,0.0
537,0.04265858853758456,0.0
538,0.1505269244586015,0.0
539,0.06295686137664003,0.0
540,0.2635072746314882,0.0
541,3.6521836898495526,0.0
542,6.961238368148326,0.0
543,-0.27955023722909517,0.0
544,-1.7642384244167524,0.0
545,1.6227290712195355,0.0
546,-0.7264466696070364,0.0
547,0.23685237519135838,0.0
548,0.07879133457051518,0.0
549,0.033492356295192996,0.0
550,-0.023501159755658307,0.0
551,-0.010298106306171395,0.0
552,-0.08424251764363581,0.0
553,-0.08176625761617733,0.0
554,0.01264186957023156,0.0
555,0.04089362150282308,0.0
556,0.0010891458221579595,0.0
557,-0.006765905456374174,0.0
558,-0.04760832689322134,0.0
559,-0.061611971027594956,0.0
560,0.2912531103994455,0.0
561,3.5879535101524396,0.0
562,6.97106511356517,0.0
563,-0.362336949366418,0.0
564,-1.8612023160912168,0.0
565,1.5992196714208358,0.0
566,-0.6319705278913365,0.0
567,0.09231654580170794,0.0
568,0.005930676242862108,0.0
569,-0.06926875812229269,0.0
570,0.035522777544940765,0.0
571,-0.03780247841801247,0.0
572,0.13322276327676374,0.0
573,0.03227280091478411,0.0
574,0.01542301921232031,0.0
575,0.06252506802119039,0.0
576,-0.021496679434331416,0.0
577,0.007584750805906697,0.0
578,-0.027274295958622338,0.0
579,-0.0032818269160093186,0.0
580,0.38329166433204004,0.0
581,3.5142547996560496,0.0
582,6.834532481891101,0.0
583,-0.4550455533110492,0.0
584,-1.8882715411562392,0.0
585,1.6101745966236,0.0
586,-0.7404386317917033,0.0
587,0.09585842917652122,0.0
588,-0.026740208666992622,0.0
589,-0.07026720833576901,0.0
590,0.029634481018480173,0.0
591,-0.0029051405211820945,0.0
592,-0.05153191286385925,0.0
593,-0.056726627054593914,0.0
594,-0.03202864298966788,0.0
595,-0.14492529451189384,0.0
596,0.04260836710854308,0.0
597,0.028961338595302526,0.0
598,0.06010349754343496,0.0
599,0.01567737682859549,0.0
600,0.34207436400118846,0.0
601,3.598354421913554,0.0
602,6.905960220940089,0.0
603,-0.34453049611494235,0.0
604,-1.8345194012851922,0.0
605,1.561144356871106,0.0
606,-0.7089540332280806,0.0
607,0.17307680167153192,0.0
608,0.07483190681203053,0.0
609,0.003743608125240959,0.0
610,0.04583867798712367,0.0
611,0.044921747595396,0.0
612,0.06842910053790452,0.0
613,-0.02457321736694728,0.0
614,-0.0391640080158952,0.0
615,-0.07271562059651691,0.0
616,-0.06477052649216712,0.0
617,-0.03847769506646761,0.0
618,-0.10665539319888201,0.0
619,-0.10247973875226596,0.0
620,0.2131698937640315,0.0
621,3.519718201525951,0.0
622,6.872725991452808,0.0
623,-0.5612611990133227,0.0
624,-1.9972362255426697,0.0
625,1.5392342333631568,0.0
626,-0.8581984022315453,0.0
627,0.12223917611982446,0.0
628,-0.020824994862715954,0.0
629,-0.08455558923405716,0.0
630,-0.04698759138752842,0.0
631,-0.060920539635312874,0.0
632,0.008337612802197908,0.0
633,-0.03562435204895876,0.0
634,-0.06953493349497404,0.0
635,-0.0172625538513902,0.0
636,0.10155437681015238,0.0
637,-0.009743787340384984,0.0
638,0.02776709161373047,0.0
639,0.007403636517980461,0.0
640,0.3080213384125128,0.0
641,3.5917750801493296,0.0
642,6.829681507047002,0.0
643,-0.4706932722533508,0.0
644,-1.8773370933190179,0.0
645,1.408508144438951,0.0
646,-0.8617880162414272,0.0
647,0.15647412323854804,0.0
648,-0.014455383441836521,0.0
649,-0.09967945915407661,0.0
650,0.031715834618879266,0.0
651,-0.06397835692451181,0.0
652,-0.09666671772363739,0.0
653,-0.06573959320728029,0.0
654,-0.07381830685391443,0.0
655,-0.017105438078087856,0.0
656,-0.130778798711444,0.0
657,-0.09108703242196203,0.0
658,-0.13561916146250114,0.0
659,0.007001198716590162,0.0
660,0.2120158155265165,0.0
661,3.4907043258781307,0.0
662,6.802587055205786,0.0
663,-0.513931917936399,0.0
664,-1.905689184938355,0.0
665,1.5616529108353787,0.0
666,-0.7172498074228622,0.0
667,0.14678331965854352,0.0
668,0.025040635659299197,0.0
669,0.039256813079771885,0.0
670,-0.003818031050063401,0.0
671,0.007936267332067915,0.0
672,-0.014312773431509235,0.0
673,-0.08813467843924308,0.0
674,-0.09681244798554753,0.0
675,-0.0402549048336541,0.0
676,-0.037761257674429644,0.0
677,-0.039052294706826834,0.0
678,-0.08896698574295808,0.0
679,-0.03712253547646008,0.0
680,0.27762094803813137,0.0
681,3.584678639339474,0.0
682,6.765941186345653,0.0
683,-0.3901094064684476,0.0
684,-1.9079054472922534,0.0
685,1.4252802592442453,0.0
686,-0.7389358943203617,0.0
687,0.11481518190114125,0.0
688,-0.05245836064303913,0.0
689,-0.11070661887337122,0.0
690,-0.011974744956189588,0.0
691,-0.07056281619783297,0.0
692,-0.01650567739822291,0.0
693,0.09817621838454324,0.0
694,-0.06800240015475859,0.0
695,0.02301944688575019,0.0
696,0.04198880600313354,0.0
697,-0.002870747735710291,0.0
698,0.13030334391818393,0.0
699,0.0850094682016854,0.0
700,0.3056021284143877,0.0
701,3.5997146633179242,0.0
702,6.754904518013878,0.0
703,-0.38017290056695824,0.0
704,-1.7814287194625436,0.0
705,1.5117643463571564,0.0
706,-0.6474491454427462,0.0
707,0.10571866696420444,0.0
708,0.017556362514289253,0.0
709,-0.15314419460245376,0.0
710,0.06138259281669829,0.0
711,-0.022603686672668478,0.0
712,-0.012214190910208764,0.0
713,-0.11004927622118205,0.0
714,-0.0014655230474950633,0.0
715,-0.07079218990852196,0.0
716,-0.11733817562713664,0.0
717,0.009779792146954451,0.0
718,-0.037664946938019576,0.0
719,0.0693295111162246,0.0
720,0.2475154324700326,0.0
721,3.6368431599903652,0.0
722,6.875556112379458,0.0
723,-0.4268050977730973,0.0
724,-1.8788216867585794,0.0
725,1.5964323978608121,0.0
726,-0.7245835131757851,0.0
727,0.22519239981245376,0.0
728,0.1504385744539249,0.0
729,-0.03041842614921063,0.0
730,0.03886163250543446,0.0
731,0.059850470969814926,0.0
732,-0.013615019751402174,0.0
733,0.0022803669908048607,0.0
734,-0.011650022109626696,0.0
735,0.023853033075725262,0.0
736,0.015609603178217434,0.0
737,-0.1163019446913489,0.0
738,-0.036046244079640036,0.0
739,0.033267536377442966,0.0
740,0.2950243027399732,0.0
741,3.7378334831255113,0.0
742,6.686463819059267,0.0
743,-0.3949687605147259,0.0
744,-1.8432409788631052,0.0
745,1.5180587277590534,0.0
746,-0.7052790337481118,0.0
747,0.18250276910653385,0.0
748,0.10543714866803311,0.0
749,0.06320711513931711,0.0
750,0.05661561495962332,0.0
751,-0.03708118941732929,0.0
752,0.03536977351317403,0.0
753,0.018255134006766257,0.0
754,0.012029137949788429,0.0
755,0.022857291079578155,0.0
756,-0.05437164518581221,0.0
757,0.06972655441602804,0.0
758,-0.010146220985601459,0.0
759,0.08810863408389066,0.0
760,0.34041755620471537,0.0
761,3.60968162853499,0.0
762,6.874749802933976,0.0
763,-0.47251867543596027,0.0
764,-1.8858518164942488,0.0
765,1.6302203187092135,0.0
766,-0.7476353161915369,0.0
767,0.11098792727821008,0.0
768,0.04279256272449268,0.0
769,0.0009217343364288921,0.0
770,-0.011128880451874962,0.0
771,0.005682740335908088,0.0
772,-0.027654140797652278,0.0
773,0.07120875667672401,0.0
774,0.1474121854714504,0.0
775,0.0531346026532173,0.0
776,-0.003441577874469321,0.0
777,0.029156328081497512,0.0
778,-0.06243964642466211,0.0
779,0.016586357959109885,0.0
780,0.35826137785017254,0.0
781,3.6263164661142473,0.0
782,6.891108625957773,0.0
783,-0.47737961089212294,0.0
784,-1.739877036175933,0.0
785,1.5216053011105757,0.0
786,-0.5989900654592728,0.0
787,0.23494918954275965,0.0
788,0.15372220979130585,0.0
789,0.012491046077331279,0.0
790,0.1431068428889467,0.0
791,0.06380597315048935,0.0
792,0.08729517927453342,0.0
793,0.013388562517115843,0.0
794,-0.005733944920038807,0.0
795,0.05180424674928807,0.0
796,0.09761923958707087,0.0
797,0.06365703367126103,0.0
798,0.0945871313310481,0.0
799,0.04992626896977179,0.0
800,0.2801869374928583,0.0
801,3.692748212369177,0.0
802,6.950150221789855,0.0
803,-0.36924720527670957,0.0
804,-1.844765739930264,0.0
805,1.500744070435057,0.0
806,-0.6426860401333607,0.0
807,0.16653823814019938,0.0
808,0.063663815115266,0.0
809,-0.03637423379059204,0.0
810,0.17026457227342723,0.0
811,0.08749880384256492,0.0
812,0.04252099497606023,0.0
813,0.045812037645086005,0.0
814,0.05538174804562708,0.0
815,0.07670415425356977,0.0
816,0.009330484695813657,0.0
817,0.0714519319976233,0.0
818,-0.007143296424281853,0.0
819,0.008490065602022798,0.0
820,0.2965902849928223,0.0
821,3.6386019531075897,0.0
822,6.802286387638571,0.0
823,-0.471635804409163,0.0
824,-1.785800340677175,0.0
825,1.587349424924674,0.0
826,-0.6670144707660562,0.0
827,0.16690871559730092,0.0
828,0.009995438910763453,0.0
829,-0.04226729116758027,0.0
830,0.04654952003576105,0.0
831,0.07565352631900063,0.0
832,0.037900609916131575,0.0
833,0.09365199088482906,0.0
834,0.05892460504274098,0.0
835,0.09505159005465627,0.0
836,-0.004778526536015078,0.0
837,0.04316034137870995,0.0
838,0.013251760400164663,0.0
839,0.04509766532226214,0.0
840,0.25339267200519844,0.0
841,3.656976665845899,0.0
842,6.8799794385251785,0.0
843,-0.4090953969912702,0.0
844,-1.7993498997819373,0.0
845,1.5842902349795225,0.0
846,-0.7267763443138457,0.0
847,0.17643251463934437,0.0
848,0.088843593398105,0.0
849,-0.017991862603174626,0.0
850,0.051843743151733596,0.0
851,0.11441100491384087,0.0
852,-0.031246780371487315,0.0
853,0.006868789550362672,0.0
854,0.08215114720812285,0.0
855,0.008396338834546758,0.0
856,0.10029839417912188,0.0
857,-0.021664466275660963,0.0
858,-0.07887011050644749,0.0
859,0.07852503284063964,0.0
860,0.31278067099952406,0.0
861,3.6581946686190503,0.0
862,6.846825945455587,0.0
863,-0.46190918611978027,0.0
864,-1.8491280428455392,0.0
865,1.6040165441522762,0.0
866,-0.613352766179734,0.0
867,0.21750327077138154,0.0
868,-0.013882037770898054,0.0
869,0.04694211607299012,0.0
870,0.15109479982517848,0.0
871,0.005948226570851423,0.0
872,0.09183074242471766,0.0
873,0.04547822270424556,0.0
874,0.07247399574568442,0.0
875,0.037767050537518214,0.0
876,0.10548702449094988,0.0
877,-0.03753721337532324,0.0
878,-0.02062077939127112,0.0
879,-0.014940002483374789,0.0
880,0.28715642457500196,0.0
881,3.6866665447703197,0.0
882,6.7898374423736705,0.0
883,-0.4567990191045745,0.0
884,-1.755955458785098,0.0
885,1.5491280391477666,0.0
886,-0.7067202852559686,0.0
887,0.20470461734202688,0.0
888,-0.0052783940879194136,0.0
889,-0.03456671070530566,0.0
890,0.008172546717389595,0.0
891,0.06624164884439279,0.0
892,-0.013455334556884017,0.0
893,0.020177079936036596,0.0
894,0.056916562066376956,0.0
895,0.11161504777870665,0.0
896,0.029691634775203923,0.0
897,-0.008652990095066926,0.0
898,0.04530170533715915,0.0
899,0.07378938814429575,0.0
900,0.367174237371593,0.0
901,3.668682921076372,0.0
902,6.906622428811798,0.0
903,-0.479037302155563,0.0
904,-1.6189083630287568,0.0
905,1.5744318512228108,0.0
906,-0.7051359701618528,0.0
907,0.2053948627073349,0.0
908,0.05135721770448714,0.0
909,-0.10737783925412608,0.0
910,0.1514741902108987,0.0
911,-0.020986645604353097,0.0
912,0.007896784501109009,0.0
913,0.10750539595577843,0.0
914,-0.03298660873746034,0.0
915,0.017350235171295865,0.0
916,0.0335347142159135,0.0
917,0.06752267831211725,0.0
918,0.04683781192775898,0.0
919,0.04313438701156753,0.0
920,0.36645936388592987,0.0
921,3.7909796100164015,0.0
922,6.868659139389729,0.0
923,-0.4870711273926731,0.0
924,-1.7478824106486572,0.0
925,1.5929964100149454,0.0
926,-0.6776626836102864,0.0
927,0.19510557249024896,0.0
928,0.10969395735951405,0.0
929,0.001140460742120028,0.0
930,0.005231122844296571,0.0
931,0.004506161187939157,0.0
932,-0.01185245370394411,0.0
933,0.012784945275159755,0.0
934,-0.016125451618940478,0.0
935,-0.021157681258957645,0.0
936,0.001544617387533448,0.0
937,0.062164827624069226,0.0
938,-0.024737407024894915,0.0
939,0.03586113052483831,0.0
940,0.3592421776967864,0.0
941,3.7142012934527715,0.0
942,6.901156217508488,0.0
943,-0.47128729843226863,0.0
944,-1.77379985109349,0.0
945,1.6058680191026062,0.0
946,-0.6754996631427637,0.0
947,0.15592378299876797,0.0
948,0.047318108507327816,0.0
949,0.01957737007192722,0.0
950,-0.00035144143324492005,0.0
951,0.04904266284948892,0.0
952,0.08935628843039004,0.0
953,0.10684433679602648,0.0
954,-2.086405901356725e-05,0.0
955,0.04767805218132656,0.0
956,0.0004535051675849111,0.0
957,0.12274759630138776,0.0
958,0.11120067928578042,0.0
959,0.10325746132336863,0.0
960,0.4217663497505942,0.0
961,3.757976707540791,0.0
962,6.9115937978258595,0.0
963,-0.342863255501306,0.0
964,-1.6747422171878166,0.0
965,1.5425568577981013,0.0
966,-0.6638401792639349,0.0
967,0.12418678071447903,0.0
968,0.13255809123860196,0.0
969,-0.004229355632583854,0.0
970,0.05375338915082955,0.0
971,-0.04252529391491535,0.0
972,0.0690113357584775,0.0
973,-0.04404971124348657,0.0
974,0.036808005876796134,0.0
975,-0.03705340148279852,0.0
976,0.1041102384674226,0.0
977,-0.030013103988084308,0.0
978,-0.007734646418846532,0.0
979,0.015557005771108069,0.0
980,0.37679061105741424,0.0
981,3.7161361207126005,0.0
982,6.835649301725975,0.0
983,-0.5401981668919377,0.0
984,-1.7271057855344576,0.0
985,1.4851866768838093,0.0
986,-0.6667674723505649,0.0
987,0.16096655309529223,0.0
988,-0.0398629404215467,0.0
989,-0.0673032148411732,0.0
990,-0.07299246955491624,0.0
991,-0.007519375227590588,0.0
992,-0.00275152817554092,0.0
993,0.05193641101218147,0.0
994,-0.09065644872461381,0.0
995,-0.01470025771366497,0.0
996,-0.0023778667455789347,0.0
997,0.008799964996984846,0.0
998,-0.06898964725135302,0.0
999,-0.07297069776899273,0.0
1000,0.282983641486632,0.0
1001,3.6627163615618,0.0
1002,6.803300478089123,0.0
1003,-0.5821562137110649,0.0
1004,-1.7594128916265395,0.0
1005,1.5369334553908274,0.0
1006,-0.7098944545153326,0.0
1007,0.18325804157575315,0.0
1008,0.07018937201325721,0.0
1009,-0.12906361192462662,0.0
1010,-0.0377450069505297,0.0
1011,0.11120786548232982,0.0
1012,0.1124579306761907,0.0
1013,0.07672928084389039,0.0
1014,-0.04043456671247229,0.0
1015,0.11555021000988389,0.0
1016,-0.021780220667582728,0.0
1017,0.047143602383626505,0.0
1018,-0.007056186933508405,0.0
1019,0.023127838305791355,0.0
1020,0.3423168886446703,0.0
1021,3.6654532976615206,0.0
1022,6.695036623818602,0.0
1023,-0.49367624669499444,0.0
1024,-1.7524588110283585,0.0
1025,1.5400830523500861,0.0
1026,-0.7445018753374677,0.0
1027,0.13780317063895353,0.0
1028,0.06201827927299431,0.0
1029,-0.056417007454361484,0.0
1030,0.0917136352925174,0.0
1031,0.007772836013529095,0.0
1032,0.05227697973772153,0.0
1033,-0.014427719764290995,0.0
1034,-0.0384552005832106,0.0
1035,-0.0696180128031851,0.0
1036,-0.055608259235815326,0.0
1037,0.0026168574853544582,0.0
1038,-0.04262682594512148,0.0
1039,-0.03646201151059266,0.0
1040,0.3340812601746177,0.0
1041,3.6830970123018703,0.0
1042,6.742974758319186,0.0
1043,-0.5404829418059547,0.0
1044,-1.8011431587871176,0.0
1045,1.563648917288601,0.0
1046,-0.8305069415420071,0.0
1047,0.14092875904897706,0.0
1048,-0.03457341719583188,0.0
1049,-0.02194045790984786,0.0
1050,0.030991625921739152,0.0
1051,-0.06615290136933476,0.0
1052,-0.05369098712760283,0.0
1053,0.0011816642114426835,0.0
1054,-0.06522945675339054,0.0
1055,0.011586903224688047,0.0
1056,-0.11711611296793698,0.0
1057,0.06167917730148282,0.0
1058,0.013894069403660985,0.0
1059,-0.04338702019052497,0.0
1060,0.36119964921580416,0.0
1061,3.682731379952137,0.0
1062,6.848124959036167,0.0
1063,-0.5928353096109501,0.0
1064,-1.8634653409544257,0.0
1065,1.5928892317505838,0.0
1066,-0.8633190487263354,0.0
1067,0.19655449108332837,0.0
1068,-0.01216264001323901,0.0
1069,-0.0920151730903401,0.0
1070,-0.0244376414841503,0.0
1071,-0.04893107684076984,0.0
1072,0.03654515957647152,0.0
1073,-0.05799493926807554,0.0
1074,-0.03247262377308591,0.0
1075,-0.023642525977413405,0.0
1076,-0.018460671779619593,0.0
1077,-0.053820424554125626,0.0
1078,-0.0381661892681469,0.0
1079,-0.05199171539441668,0.0
1080,0.2185894226963136,0.0
1081,3.697689725595401,0.0
1082,6.717405080718938,0.0
1083,-0.6006698521946598,0.0
1084,-1.8321933879175683,0.0
1085,1.4862176074389386,0.0
1086,-0.6915379687458921,0.0
1087,0.15222643535156835,0.0
1088,0.007564029430481248,0.0
1089,-0.011575698818065139,0.0
1090,-0.030066764088493278,0.0
1091,-0.09531265770122141,0.0
1092,0.0008446316697615121,0.0
1093,0.07222464742066004,0.0
1094,0.024374654783304722,0.0
1095,-0.054922516750693845,0.0
1096,0.02665150746455444,0.0
1097,-0.06492942924964942,0.0
1098,0.004034417434486119,0.0
1099,-0.05158031922670092,0.0
1100,0.3077195222548832,0.0
1101,3.7393677525608457,0.0
1102,6.79268763287334,0.0
1103,-0.6155854258159672,0.0
1104,-1.8159183246685104,0.0
1105,1.5313822207534773,0.0
1106,-0.7939171344118564,0.0
1107,0.1581966965240323,0.0
1108,0.0697250828091959,0.0
1109,-0.05884897423730523,0.0
1110,0.04430284403654514,0.0
1111,-0.018048137084279166,0.0
1112,-0.07380333154503935,0.0
1113,-0.05873903637961259,0.0
1114,-0.08536371823107697,0.0
1115,0.009534839311011248,0.0
1116,-0.012327937331210313,0.0
1117,-0.10160087421238305,0.0
1118,-0.10043552133211749,0.0
1119,0.04774095334941116,0.0
1120,0.2858715109019466,0.0
1121,3.6702896715107367,0.0
1122,6.746110373130874,0.0
1123,-0.5525060767484145,0.0
1124,-1.8134573500711015,0.0
1125,1.4798427933374476,0.0
1126,-0.795016831781752,0.0
1127,0.12148369384224646,0.0
1128,0.07005849680990107,0.0
1129,-0.06688457494098199,0.0
1130,-0.06002007390067049,0.0
1131,-0.0591876271001571,0.0
1132,-0.09987606339413035,0.0
1133,-0.12402907828284782,0.0
1134,-0.03760383450096773,0.0
1135,-0.062430041262553936,0.0
1136,0.12285864225127743,0.0
1137,-0.10428645613873667,0.0
1138,-0.07763495629880926,0.0
1139,-0.03473788060608207,0.0
1140,0.22076177149929496,0.0
1141,3.643151230142407,0.0
1142,6.70891512472923,0.0
1143,-0.6624000478239545,0.0
1144,-1.8624808838734037,0.0
1145,1.4436990576466702,0.0
1146,-0.8003223710938288,0.0
1147,0.11975207871734725,0.0
1148,-0.0010592124698020275,0.0
1149,-0.11824529967715378,0.0
1150,-0.07644851525551596,0.0
1151,-0.01237194248108215,0.0
1152,-0.03459463718231592,0.0
1153,-0.04770143134496582,0.0
1154,-0.10001350106916891,0.0
1155,0.072880813163296,0.0
1156,-0.04869530939209191,0.0
1157,0.0016295084228098791,0.0
1158,-0.09195753478202963,0.0
1159,-0.11923961110575834,0.0
1160,0.3174727585847679,0.0
1161,3.68985097683388,0.0
1162,6.8211381849560935,0.0
1163,-0.6044166270438852,0.0
1164,-1.7662600246506583,0.0
1165,1.511043811702413,0.0
1166,-0.7201399792414745,0.0
1167,0.09673190779628196,0.0
1168,-0.09329903756162883,0.0
1169,-0.021338556150519238,0.0
1170,0.03146440711371132,0.0
1171,-0.06589335097483573,0.0
1172,-0.008839406147051435,0.0
1173,-0.04445821179946099,0.0
1174,-0.10154604955292798,0.0
1175,-0.03575169611907488,0.0
1176,-0.09565827814879885,0.0
1177,-0.02304468493314396,0.0
1178,-0.024222503272914062,0.0
1179,-0.0050223896365590645,0.0
1180,0.20980758092951293,0.0
1181,3.654558751490289,0.0
1182,6.740483124436654,0.0
1183,-0.633889803702331,0.0
1184,-1.82819005221959,0.0
1185,1.4681279300006527,0.0
1186,-0.7107661500393256,0.0
1187,0.14683417432405724,0.0
1188,0.04915254890492672,0.0
1189,-0.09845328846187909,0.0
1190,0.007180109571854969,0.0
1191,-0.08083672111824712,0.0
1192,0.0043210427993955886,0.0
1193,-0.021687036924929202,0.0
1194,-0.11622608714402093,0.0
1195,-0.084397719094658,0.0
1196,0.024669911973452887,0.0
1197,-0.06412253116618946,0.0
1198,0.07457992739018081,0.0
1199,-0.07604549808073632,0.0
1200,0.3218119249693168,0.0
1201,3.696695402333573,0.0
1202,6.8272833119885865,0.0
1203,-0.6480146022886317,0.0
1204,-1.7678896019843326,0.0
1205,1.5433434446862626,0.0
1206,-0.770539360589628,0.0
1207,0.08982299960812427,0.0
1208,0.027143207283076884,0.0
1209,-0.05456834659909941,0.0
1210,-0.05401597212901114,0.0
1211,-0.022030689910577293,0.0
1212,-0.02531859779317655,0.0
1213,-0.07724189566864469,0.0
1214,-0.002895146849674627,0.0
1215,0.003112460160505634,0.0
1216,-0.08463021922667807,0.0
1217,0.004376647167775947,0.0
1218,-0.01521600082690768,0.0
1219,-0.011627211427273184,0.0
1220,0.24359871622514942,0.0
1221,3.716847186472947,0.0
1222,6.851735344537292,0.0
1223,-0.6996866923834888,0.0
1224,-1.8144313908523526,0.0
1225,1.5077402803845228,0.0
1226,-0.8270805026961159,0.0
1227,0.06403280608483432,0.0
1228,-0.0072017677598657515,0.0
1229,-0.09634789605698647,0.0
1230,0.01238975391979381,0.0
1231,-0.031147162815756222,0.0
1232,-0.05672103899192658,0.0
1233,-0.04304430695248747,0.0
1234,-0.0058672691127367275,0.0
1235,-0.00905451911256749,0.0
1236,-0.07598293288359509,0.0
1237,0.031346917548206954,0.0
1238,-0.005278144505121443,0.0
1239,0.09572049660248255,0.0
1240,0.29309670328909176,0.0
1241,3.731732480654793,0.0
1242,6.7717365075696705,0.0
1243,-0.476987485617142,0.0
1244,-1.6847747103024984,0.0
1245,1.5242210115938912,0.0
1246,-0.7383782114825724,0.0
1247,0.2170457691858651,0.0
1248,-0.05632143203741016,0.0
1249,-0.05280935647935879,0.0
1250,-0.03151199190071826,0.0
1251,-0.10802316748323976,0.0
1252,-0.17800552829755933,0.0
1253,-0.011174519868525069,0.0
1254,0.03340546482936905,0.0
1255,0.0007763257425384557,0.0
1256,-0.09157280043277996,0.0
1257,0.02265213863259747,0.0
1258,0.02862324473602605,0.0
1259,-0.08924670165849023,0.0
1260,0.28639041026463063,0.0
1261,3.684728653086118,0.0
1262,6.762205098010714,0.0
1263,-0.5992634682402497,0.0
1264,-1.8201266127049225,0.0
1265,1.548711314736054,0.0
1266,-0.7631923559749989,0.0
1267,0.14618899728966728,0.0
1268,0.04460876145063337,0.0
1269,-0.021930817339098303,0.0
1270,0.004726794909098804,0.0
1271,-0.09902344131643079,0.0
1272,-0.00918503523288872,0.0
1273,-0.042600023674770865,0.0
1274,-0.008271370209288262,0.0
1275,-0.06443049364141172,0.0
1276,-0.00019426766173315582,0.0
1277,-0.017336672254600807,0.0
1278,-0.05595932215883741,0.0
1279,0.02268919520555856,0.0
1280,0.3297935384598305,0.0
1281,3.668250085525672,0.0
1282,6.71611215449312,0.0
1283,-0.7544652922970813,0.0
1284,-1.7163323514652595,0.0
1285,1.4880503011984427,0.0
1286,-0.8115477410749414,0.0
1287,0.18340900481993674,0.0
1288,-0.09778956046936016,0.0
1289,-0.03550879905741237,0.0
1290,0.01621994207729447,0.0
1291,0.033382335513291436,0.0
1292,0.043883229427819456,0.0
1293,-0.06431627723596625,0.0
1294,-0.060929016620254656,0.0
1295,-0.0475368427899151,0.0
1296,-0.0030710982314109837,0.0
1297,-0.029471654401147226,0.0
1298,0.025818383846993517,0.0
1299,-0.054264514974320714,0.0
1300,0.39800937660817776,0.0
1301,3.695075391145086,0.0
1302,6.817393252067202,0.0
1303,-0.6359639989253429,0.0
1304,-1.7683528337630814,0.0
1305,1.5258587309718856,0.0
1306,-0.8084439669147918,0.0
1307,0.10469114674058105,0.0
1308,-0.053879584781464464,0.0
1309,-0.05094228225511306,0.0
1310,0.012843917123676694,0.0
1311,-0.12048251448386624,0.0
1312,0.0561812214801928,0.0
1313,0.021241950577741527,0.0
1314,0.014032978030287992,0.0
1315,0.017407322803322522,0.0
1316,-0.044105497994740464,0.0
1317,-0.0031934112727865613,0.0
1318,-0.02537315244415996,0.0
1319,-0.07125565924624115,0.0
1320,0.31864231319004044,0.0
1321,3.801601903505334,0.0
1322,6.823225626711868,0.0
1323,-0.673653411018069,0.0
1324,-1.8066763872478724,0.0
1325,1.5449155347914718,0.0
1326,-0.7334348137561456,0.0
1327,0.19184745088040991,0.0
1328,0.02124130898731738,0.0
1329,-0.025983885274660258,0.0
1330,0.013860531236494295,0.0
1331,-0.03349575406818711,0.0
1332,0.033303260669654056,0.0
1333,0.006548801818052,0.0
1334,0.05045708592243161,0.0
1335,-0.013199591011354678,0.0
1336,-0.037465362282876204,0.0
1337,-0.09195846769907567,0.0
1338,-0.15334301949678422,0.0
1339,-0.06930386793126223,0.0
1340,0.3498405464248821,0.0
1341,3.673192172481757,0.0
1342,6.700199064111727,0.0
1343,-0.7002980826243655,0.0
1344,-1.7233856848142743,0.0
1345,1.4673885155817044,0.0
1346,-0.6916074951192744,0.0
1347,0.10601506855656381,0.0
1348,-0.03193130483237541,0.0
1349,-0.08378610824997766,0.0
1350,0.011782775847019138,0.0
1351,-0.04423605042593272,0.0
1352,-0.03292303959101703,0.0
1353,-0.03557719128952953,0.0
1354,0.017955649160674235,0.0
1355,-0.0018750713831732282,0.0
1356,-0.007296451916352034,0.0
1357,0.01781185562620342,0.0
1358,-0.09467378183238183,0.0
1359,0.028546771578317358,0.0
1360,0.1815521198279672,0.0
1361,3.741516978302685,0.0
1362,6.802441300805492,0.0
1363,-0.6579973519173878,0.0
1364,-1.7817130075526668,0.0
1365,1.4230015111701253,0.0
1366,-0.8141743583927052,0.0
1367,0.13681954077658537,0.0
1368,0.04893680437235958,0.0
1369,-0.06699231823401017,0.0
1370,0.05803602024091989,0.0
1371,-0.024531671285632918,0.0
1372,-0.005542119435196792,0.0
1373,0.027135745800615677,0.0
1374,-0.04004887675905495,0.0
1375,-0.023915119588320363,0.0
1376,-0.009225123195667363,0.0
1377,-0.011605445960116553,0.0
1378,0.03405446613049364,0.0
1379,0.02675481024746612,0.0
1380,0.3796473441812096,0.0
1381,3.8546734281908464,0.0
1382,6.862884812748058,0.0
1383,-0.6544415311528119,0.0
1384,-1.7488526848925654,0.0
1385,1.507827422866497,0.0
1386,-0.7296302502596496,0.0
1387,0.17284655119530068,0.0
1388,-0.023891450523349848,0.0
1389,-0.06262796903203124,0.0
1390,0.010672788879120994,0.0
1391,0.008543516740746344,0.0
1392,-0.05374795201834369,0.0
1393,0.03591074213440967,0.0
1394,0.013652727665239731,0.0
1395,-0.05060870488996982,0.0
1396,-0.0932882425779514,0.0
1397,-0.11511130035433954,0.0
1398,-0.06899360421147896,0.0
1399,-0.02126683846072507,0.0
1400,0.29922550281064336,0.0
1401,3.723441883169977,0.0
1402,6.67213576106022,0.0
1403,-0.6363235035996792,0.0
1404,-1.7902242561829913,0.0
1405,1.4028526733069535,0.0
1406,-0.8534074170633479,0.0
1407,0.03693654243775661,0.0
1408,-0.023151895230969898,0.0
1409,-0.1187072871075304,0.0
1410,-0.048134894081069655,0.0
1411,-0.09746430829286536,0.0
1412,-0.007779589793254077,0.0
1413,0.027941508797211412,0.0
1414,-0.04753392869106826,0.0
1415,-0.015839958579354628,0.0
1416,-0.08290685192846736,0.0
1417,0.017995114340577913,0.0
1418,-0.030028392936629476,0.0
1419,0.03753968846683738,0.0
1420,0.268714482899212,0.0
1421,3.7568589636940732,0.0
1422,6.767893385553694,0.0
1423,-0.6076175114461654,0.0
1424,-1.7118880806325394,0.0
1425,1.4946955044211294,0.0
1426,-0.7411737722722169,0.0
1427,0.15553332035818768,0.0
1428,0.06908982706246797,0.0
1429,-0.011752091366294466,0.0
1430,0.018278683540155563,0.0
1431,-0.03204121392672574,0.0
1432,-0.09073768171506719,0.0
1433,-0.03313187065316426,0.0
1434,-0.028573788801238707,0.0
1435,-0.09978545592303656,0.0
1436,0.05707235268079549,0.0
1437,-0.07507301689526527,0.0
1438,-0.06058006859237976,0.0
1439,-0.03815026171169629,0.0
1440,0.2627880587884071,0.0
1441,3.7053325073071557,0.0
1442,6.82411755001569,0.0
1443,-0.6726303888767065,0.0
1444,-1.7397141748710014,0.0
1445,1.6376139967654304,0.0
1446,-0.7441969578331231,0.0
1447,0.26245292724012814,0.0
1448,0.05000958139783372,0.0
1449,-0.008975117579731871,0.0
1450,0.07418432442059503,0.0
1451,0.07505511703972928,0.0
1452,0.15744551385969194,0.0
1453,0.10350697976906387,0.0
1454,0.06470176520251054,0.0
1455,0.03204178198669431,0.0
1456,0.08746839955036781,0.0
1457,0.08104256596828927,0.0
1458,0.0008463660329462927,0.0
1459,-0.024578604183975578,0.0
1460,0.36416328441488843,0.0
1461,3.80087387652887,0.0
1462,6.776494229353138,0.0
1463,-0.6517970505750047,0.0
1464,-1.7617771148851245,0.0
1465,1.4983504873148639,0.0
1466,-0.7483149014464698,0.0
1467,0.28745383374995864,0.0
1468,0.025314187857635694,0.0
1469,-0.054391457612489584,0.0
1470,-0.02462448245045091,0.0
1471,0.08150009774329331,0.0
1472,0.0911919121769612,0.0
1473,0.05034427665480744,0.0
1474,-0.04838460048885014,0.0
1475,0.014534056544135737,0.0
1476,0.07850164343751956,0.0
1477,0.012359403612987579,0.0
1478,0.029689221365212924,0.0
1479,-0.005865560842801324,0.0
1480,0.37044799516297916,0.0
1481,3.7777123304222915,0.0
1482,6.775387493656224,0.0
1483,-0.7322884798877757,0.0
1484,-1.6712232774288238,0.0
1485,1.5380318686975123,0.0
1486,-0.7367889467492155,0.0
1487,0.21256039043085947,0.0
1488,0.0511815830993882,0.0
1489,-0.032027738672612716,0.0
1490,0.0428443463120069,0.0
1491,0.1410543608930413,0.0
1492,0.07993217377276596,0.0
1493,-0.0005777860973372115,0.0
1494,-0.0070921442067639895,0.0
1495,0.027554462189762076,0.0
1496,0.03821491272815149,0.0
1497,0.026847968160985818,0.0
1498,0.05276411891215084,0.0
1499,-0.02870251158099795,0.0
1500,0.36486317641378485,0.0
1501,3.8147533464755905,0.0
1502,6.797105048805393,0.0
1503,-0.48191414836241353,0.0
1504,-1.7107464447571767,0.0
1505,1.566935004117249,0.0
1506,-0.7409879253096311,0.0
1507,0.21192643700217426,0.0
1508,0.0325520904962104,0.0
1509,-0.010129529500772068,0.0
1510,0.04759012892829004,0.0
1511,0.028316702762425826,0.0
1512,0.1467433071006231,0.0
1513,0.0168339866553048,0.0
1514,0.06419127069867533,0.0
1515,0.0028001017043721085,0.0
1516,-0.0022963946863913814,0.0
1517,-0.005694934926803806,0.0
1518,0.05467259520946339,0.0
1519,-0.009175404189030748,0.0
1520,0.40337459012957905,0.0
1521,3.8724264667296286,0.0
1522,6.814749312147437,0.0
1523,-0.6315469521077652,0.0
1524,-1.697058503868218,0.0
1525,1.4495524509813522,0.0
1526,-0.751368863171683,0.0
1527,0.1928263794940957,0.0
1528,0.05553405595423132,0.0
1529,0.0017167839262420444,0.0
1530,-0.02416074273321868,0.0
1531,0.0802245177976441,0.0
1532,-0.04579341886634507,0.0
1533,0.03832108317682718,0.0
1534,0.05965237628754125,0.0
1535,-0.005178520181505329,0.0
1536,0.009354731148528129,0.0
1537,-0.008723729337363045,0.0
1538,0.001386030992328982,0.0
1539,0.06363914152506782,0.0
1540,0.29396735136145663,0.0
1541,3.75211154308986,0.0
1542,6.747571649041473,0.0
1543,-0.6350178738812989,0.0
1544,-1.681463487613165,0.0
1545,1.5010131972253715,0.0
1546,-0.776368994867258,0.0
1547,0.22456651536987757,0.0
1548,-0.0033903006908700822,0.0
1549,0.015532982211014151,0.0
1550,0.08102614538797871,0.0
1551,0.020493641754724744,0.0
1552,0.040139035110510465,0.0
1553,0.03500921923057466,0.0
1554,0.021846180213456745,0.0
1555,0.059525221331311884,0.0
1556,-0.019120860111192108,0.0
1557,-0.01369690205323478,0.0
1558,-0.21825219424161738,0.0
1559,0.04816009956139992,0.0
1560,0.24812275383480153,0.0
1561,3.7860687359750695,0.0
1562,6.850462464470539,0.0
1563,-0.706052594244343,0.0
1564,-1.685323010439193,0.0
1565,1.446616205949288,0.0
1566,-0.710055686754861,0.0
1567,0.2342494710839811,0.0
1568,0.08036668874877587,0.0
1569,0.0512859489514356,0.0
1570,0.17270920555715186,0.0
1571,0.06420936160867143,0.0
1572,0.18645479860264552,0.0
1573,-0.031053171535523838,0.0
1574,0.1010292882601335,0.0
1575,0.015978389729748174,0.0
1576,0.007378281963376164,0.0
1577,-0.023601291394911357,0.0
1578,0.02730642311545991,0.0
1579,-0.08484225295414385,0.0
1580,0.3868155452434854,0.0
1581,3.733104082611654,0.0
1582,6.8168927719475585,0.0
1583,-0.6813190480748992,0.0
1584,-1.6188444777996076,0.0
1585,1.5446694889203418,0.0
1586,-0.6999447476631899,0.0
1587,0.19549791380747192,0.0
1588,0.09526067763978362,0.0
1589,-0.09501255578242855,0.0
1590,0.07873290469672678,0.0
1591,0.026913235059618797,0.0
1592,0.10581478607509145,0.0
1593,-0.03967669967621262,0.0
1594,-0.0864040040982274,0.0
1595,-0.011450791422858103,0.0
1596,-0.049981646669520555,0.0
1597,0.06979970876526609,0.0
1598,-0.019746407357750285,0.0
1599,-0.04602957481610107,0.0
1600,0.2813381208242486,0.0
1601,3.7902008423549125,0.0
1602,6.682023215168954,0.0
1603,-0.7809966696863667,0.0
1604,-1.6882899782629033,0.0
1605,1.5231840187384842,0.0
1606,-0.8549021547988436,0.0
1607,0.12054748160549905,0.0
1608,-0.02424072149020834,0.0
1609,-0.03645766487458257,0.0
1610,-0.03696097771174143,0.0
1611,0.13326155091021313,0.0
1612,0.024098169572183737,0.0
1613,-0.061936703052688565,0.0
1614,0.07105959491066739,0.0
1615,-0.030851552062631647,0.0
1616,-0.011516900808986761,0.0
1617,-0.027520498444763827,0.0
1618,-0.028356369227869348,0.0
1619,-0.02467741780937897,0.0
1620,0.3033322326119387,0.0
1621,3.839215769078175,0.0
1622,6.778857400626675,0.0
1623,-0.7195959907337397,0.0
1624,-1.718170764822671,0.0
1625,1.395091984721373,0.0
1626,-0.8254778152046157,0.0
1627,0.22070603789429863,0.0
1628,0.10046554277806075,0.0
1629,-0.02921238578236433,0.0
1630,0.07233178401111354,0.0
1631,0.02389978475192534,0.0
1632,0.00013577903891283383,0.0
1633,0.12048635533574123,0.0
1634,0.028886445600506957,0.0
1635,-0.0059305570815759295,0.0
1636,0.07731816514277007,0.0
1637,-0.012934484489519137,0.0
1638,0.005870210322112046,0.0
1639,0.07648777813848362,0.0
1640,0.31289359233415087,0.0
1641,3.900022361610946,0.0
1642,6.849476902049097,0.0
1643,-0.6274676755754681,0.0
1644,-1.720682650662297,0.0
1645,1.548934156229678,0.0
1646,-0.6891125251140814,0.0
1647,0.2915968925270849,0.0
1648,0.15591270846243732,0.0
1649,0.021128093761623383,0.0
1650,0.20664581932469567,0.0
1651,0.13350706482738545,0.0
1652,0.006740371470157908,0.0
1653,-0.010886784346342937,0.0
1654,0.03837204827575722,0.0
1655,0.002495691916337195,0.0
1656,0.15314850280458164,0.0
1657,0.06984432525267312,0.0
1658,0.10728935056078077,0.0
1659,0.028847519888261244,0.0
1660,0.42137741161412207,0.0
1661,3.831770747498499,0.0
1662,6.746370152135469,0.0
1663,-0.7000767205839229,0.0
1664,-1.6453811149309263,0.0
1665,1.4773094671306322,0.0
1666,-0.7127827144368802,0.0
1667,0.2060640340228618,0.0
1668,-0.0458740584833195,0.0
1669,-0.07859270077841451,0.0
1670,-0.003617541968297038,0.0
1671,-0.026705348081008586,0.0
1672,-0.007977614322892651,0.0
1673,-0.10635949084182118,0.0
1674,0.008635823395711159,0.0
1675,-0.044002416457124355,0.0
1676,-0.11371483779482885,0.0
1677,-0.046193469640489065,0.0
1678,-0.05293515781909725,0.0
1679,0.011382238423851693,0.0
1680,0.3256708055693087,0.0
1681,3.723900401492358,0.0
1682,6.6151895473214415,0.0
1683,-0.7384145773115476,0.0
1684,-1.7645815501870787,0.0
1685,1.4554719750541854,0.0
1686,-0.8484316701742314,0.0
1687,0.08837434270814569,0.0
1688,-0.10820140762029755,0.0
1689,-0.09428568387847601,0.0
1690,-0.05408122312269075,0.0
1691,0.034059445646777896,0.0
1692,0.0670385131550582,0.0
1693,0.02485316311416193,0.0
1694,0.0008705443063760088,0.0
1695,-0.03463201294754708,0.0
1696,0.03496962270005022,0.0
1697,-0.03333851663176377,0.0
1698,-0.010953907047677888,0.0
1699,-0.056936521079624686,0.0
1700,0.4057696685328123,0.0
1701,3.820887038165771,0.0
1702,6.662333115152885,0.0
1703,-0.7125572658009242,0.0
1704,-1.717918647402081,0.0
1705,1.538783830905477,0.0
1706,-0.7339977581728935,0.0
1707,0.2424554489850296,0.0
1708,-0.01778996030143642,0.0
1709,-0.05343609885830872,0.0
1710,-0.03559688872927637,0.0
1711,0.05827907787537158,0.0
1712,0.06231640768948679,0.0
1713,0.03492854142255422,0.0
1714,0.01006951140997304,0.0
1715,-0.021451191024230765,0.0
1716,-0.0504254224640694,0.0
1717,0.03972692054040671,0.0
1718,0.050842672729036045,0.0
1719,-0.13520889936096858,0.0
1720,0.34903828109334645,0.0
1721,3.8349528475236676,0.0
1722,6.7186370505644435,0.0
1723,-0.8282021027850629,0.0
1724,-1.7735376790708341,0.0
1725,1.5101902751038483,0.0
1726,-0.777703632847095,0.0
1727,0.11443108430108062,0.0
1728,0.019469582525183285,0.0
1729,-0.09160998093961817,0.0
1730,-0.09347361425650941,0.0
1731,0.09054857718179901,0.0
1732,-0.01928003661234526,0.0
1733,-0.07607011037995293,0.0
1734,0.006016723354225334,0.0
1735,0.036541191905879386,0.0
1736,-0.0057386452757260025,0.0
1737,0.008464935115821727,0.0
1738,0.1354113838363397,0.0
1739,-0.0504892584410799,0.0
1740,0.33413559163543494,0.0
1741,3.831953986879901,0.0
1742,6.816138617090351,0.0
1743,-0.6992992257076127,0.0
1744,-1.6965010513165606,0.0
1745,1.425500669098894,0.0
1746,-0.8075390304238677,0.0
1747,0.11229254752990463,0.0
1748,0.012202321010585652,0.0
1749,-0.0501947445196282,0.0
1750,-0.004526530179767136,0.0
1751,-0.005100466680157852,0.0
1752,0.043845414967334705,0.0
1753,-0.02302351073955672,0.0
1754,0.01475042189817724,0.0
1755,-0.030426638178224406,0.0
1756,-0.03687231104868403,0.0
1757,-0.009941701567674644,0.0
1758,0.06345052344481122,0.0
1759,0.033678838563033484,0.0
1760,0.34880528999565386,0.0
1761,3.801178832240122,0.0
1762,6.824652087145323,0.0
1763,-0.7099743787873041,0.0
1764,-1.6671435768437237,0.0
1765,1.4888662776849675,0.0
1766,-0.7228920394319647,0.0
1767,0.0737434823144724,0.0
1768,0.053654004827039456,0.0
1769,-0.02350270432768818,0.0
1770,0.033306549999586224,0.0
1771,-0.0470953549888982,0.0
1772,-0.025933068183209073,0.0
1773,0.02521506539825523,0.0
1774,-0.015121435495297129,0.0
1775,-0.018467567653515544,0.0
1776,0.027784692945091644,0.0
1777,-0.07657262932096937,0.0
1778,0.02433508780217483,0.0
1779,0.004215402519115265,0.0
1780,0.3400582183100477,0.0
1781,3.8357258258628892,0.0
1782,6.785221599679817,0.0
1783,-0.7134817748655313,0.0
1784,-1.6711371688220633,0.0
1785,1.4977801486925122,0.0
1786,-0.7955141759335355,0.0
1787,0.1912381883870308,0.0
1788,0.018243348422995225,0.0
1789,0.008119425856839453,0.0
1790,-0.02466003673446438,0.0
1791,-0.03429330322208027,0.0
1792,-0.13454017191441509,0.0
1793,0.0023742000947127116,0.0
1794,-0.019989277268564663,0.0
1795,-0.012918801440938267,0.0
1796,0.002010438984986606,0.0
1797,-0.07538613752413868,0.0
1798,0.0856187952618597,0.0
1799,-0.029906377125884148,0.0
1800,0.35516672101905306,0.0
1801,3.886951199816386,0.0
1802,6.733759116018592,0.0
1803,-0.7096998559346271,0.0
1804,-1.7651390644834946,0.0
1805,1.4219676622644377,0.0
1806,-0.7305252066371597,0.0
1807,0.14802284425849135,0.0
1808,-0.028030374255375173,0.0
1809,-0.005783019967508733,0.0
1810,-0.015616866602600254,0.0
1811,-0.08112766595058257,0.0
1812,0.024010488376431625,0.0
1813,0.0112138730836863,0.0
1814,-0.07295880397307503,0.0
1815,-0.052639722889043256,0.0
1816,0.009876427636876378,0.0
1817,0.029087849453449208,0.0
1818,-0.04225575914065077,0.0
1819,-0.004185459736288092,0.0
1820,0.2534448739064582,0.0
1821,3.785773909180596,0.0
1822,6.757943595488208,0.0
1823,-0.7114661544778905,0.0
1824,-1.5872782925056512,0.0
1825,1.4730101545799774,0.0
1826,-0.7906438420208848,0.0
1827,0.20796774975348256,0.0
1828,0.10895003141912013,0.0
1829,0.01034792433703528,0.0
1830,0.0953076518428628,0.0
1831,0.11321280993586585,0.0
1832,0.04879586829097216,0.0
1833,0.0580890581225643,0.0
1834,0.05595536508702998,0.0
1835,-0.005815021213062975,0.0
1836,-0.06955796821369355,0.0
1837,-0.025699741246975546,0.0
1838,-0.03734139266135936,0.0
1839,-0.08710137521057146,0.0
1840,0.33593596822815136,0.0
1841,3.7606006973562356,0.0
1842,6.753180857810894,0.0
1843,-0.8401295675470308,0.0
1844,-1.7125406365205689,0.0
1845,1.418389862312723,0.0
1846,-0.8826346042370257,0.0
1847,0.11312566829314895,0.0
1848,-0.0942998236661739,0.0
1849,-0.12126308400624031,0.0
1850,-0.08498839075884825,0.0
1851,-0.09850629244786954,0.0
1852,0.038020035668801175,0.0
1853,0.018034737589476265,0.0
1854,0.007793533277722942,0.0
1855,-0.013386514135082303,0.0
1856,-0.0004864394852753494,0.0
1857,0.02826354915301358,0.0
1858,-0.01958719976214194,0.0
1859,-0.020523063687344512,0.0
1860,0.28897693182448125,0.0
1861,3.760233929076633,0.0
1862,6.690358373869758,0.0
1863,-0.7934200367368806,0.0
1864,-1.678159238773453,0.0
1865,1.5309585287841798,0.0
1866,-0.811402471533441,0.0
1867,0.13642263396963,0.0
1868,-0.030089987307216667,0.0
1869,0.05166764894227387,0.0
1870,0.051826646743814736,0.0
1871,-0.018647487605954548,0.0
1872,-0.036648745445676686,0.0
1873,-0.035724333498593816,0.0
1874,-0.026666854742563303,0.0
1875,-0.09533515575834539,0.0
1876,0.026805603104672934,0.0
1877,0.06218515212826045,0.0
1878,0.01892176603397411,0.0
1879,0.016765154545392347,0.0
1880,0.32637468135163794,0.0
1881,3.9182153423059884,0.0
1882,6.662417552373308,0.0
1883,-0.7633149866722027,0.0
1884,-1.6922612814121183,0.0
1885,1.5354463838804855,0.0
1886,-0.7192285274531304,0.0
1887,0.11904136606237395,0.0
1888,-0.02727036132281933,0.0
1889,-0.08301585745409437,0.0
1890,-0.005396406417001629,0.0
1891,0.02340580412504274,0.0
1892,-0.023688176130207184,0.0
1893,-0.06299532116965716,0.0
1894,0.0709645942598443,0.0
1895,0.054939664278970034,0.0
1896,0.03669779383960992,0.0
1897,0.023939376147018132,0.0
1898,0.06149769560494495,0.0
1899,0.034877556120709495,0.0
1900,0.36935818553808764,0.0
1901,3.767420008809146,0.0
1902,6.759730555410306,0.0
1903,-0.8119601964109968,0.0
1904,-1.571463714859901,0.0
1905,1.5484569879818673,0.0
1906,-0.7148378129532733,0.0
1907,0.12499241467607264,0.0
1908,0.03310686882651203,0.0
1909,-0.05100307141037108,0.0
1910,-0.04761025778064616,0.0
1911,0.01246498975094388,0.0
1912,-0.08635359605255939,0.0
1913,-0.053022987301809966,0.0
1914,-0.058967806289021235,0.0
1915,0.020116539615002225,0.0
1916,-0.06021215711501088,0.0
1917,-0.060475165384183835,0.0
1918,0.1001635125596026,0.0
1919,0.02100237932097723,0.0
1920,0.3284960899657028,0.0
1921,3.8316164269816086,0.0
1922,6.658670397337914,0.0
1923,-0.67521776347124,0.0
1924,-1.6946330328342807,0.0
1925,1.366404513202182,0.0
1926,-0.7731231835919916,0.0
1927,0.11687704387481376,0.0
1928,-0.12754245245499513,0.0
1929,-0.05387559542308147,0.0
1930,-0.11391709317942693,0.0
1931,-0.05796959729413059,0.0
1932,-0.05922702521389123,0.0
1933,0.011090171703291175,0.0
1934,0.01587453202669567,0.0
1935,-0.013742491375916856,0.0
1936,-0.07029766686017488,0.0
1937,0.10520051900202333,0.0
1938,-0.0818963973966973,0.0
1939,-0.07226827333588803,0.0
1940,0.2829713764851558,0.0
1941,3.788325449627115,0.0
1942,6.698432781473038,0.0
1943,-0.8696198238992301,0.0
1944,-1.6958933670569416,0.0
1945,1.494955190157442,0.0
1946,-0.747992669397432,0.0
1947,0.13697490051551908,0.0
1948,0.03931618005791089,0.0
1949,-0.0048908894086540505,0.0
1950,0.06480828169669993,0.0
1951,0.05157308301099833,0.0
1952,-0.03594498665346251,0.0
1953,-0.038337263744251726,0.0
1954,0.0001377223795758224,0.0
1955,0.05777890494661631,0.0
1956,-0.01345296217868834,0.0
1957,-0.060928257298763666,0.0
1958,-0.06245380859599011,0.0
1959,-0.03795429491406622,0.0
1960,0.21204234128424432,0.0
1961,3.813185203201435,0.0
1962,6.660599010124446,0.0
1963,-0.8924579536695411,0.0
1964,-1.7573339809651864,0.0
1965,1.3953848662812616,0.0
1966,-0.7725677771432302,0.0
1967,0.14568612575179385,0.0
1968,-0.041046659783122226,0.0
1969,-0.1127896350692095,0.0
1970,-0.019431142843620037,0.0
1971,-0.03223869163577904,0.0
1972,-0.03098440717394564,0.0
1973,-0.09414299596688591,0.0
1974,-0.06939785940411695,0.0
1975,-0.07542663263789486,0.0
1976,-0.024130799246289414,0.0
1977,-0.15620729683169726,0.0
1978,0.0070893358223538955,0.0
1979,-0.18517356395052045,0.0
1980,0.2281953306286261,0.0
1981,3.7604701016599833,0.0
1982,6.559924488702494,0.0
1983,-0.9565241617419191,0.0
1984,-1.7131213940708505,0.0
1985,1.3614680791789258,0.0
1986,-0.8703912660775829,0.0
1987,0.05504436806974197,0.0
1988,-0.14881828829043184,0.0
1989,-0.1767908866154566,0.0
1990,-0.07514307986542083,0.0
1991,-0.26536834605601556,0.0
1992,-0.022948605050925046,0.0
1993,-0.1670125312895107,0.0
1994,-0.014505580259364138,0.0
1995,0.005462661592374435,0.0
1996,0.022811556185637655,0.0
1997,-0.1351206186799525,0.0
1998,-0.06670242305618809,0.0
1999,0.006200081157957532,0.0
2000,0.2776509614097541,0.0
2001,3.7523886855527464,0.0
2002,6.693166040387584,0.0
2003,-0.8823478247907405,0.0
2004,-1.7028615881838454,0.0
2005,1.328800696716795,0.0
2006,-0.8368688439117211,0.0
2007,0.06627160488718573,0.0
2008,0.012306483219063358,0.0
2009,-0.027890699425883403,0.0
2010,-0.053591363282988365,0.0
2011,-0.09296281208745952,0.0
2012,-0.06683569206226524,0.0
2013,-0.0798979970017992,0.0
2014,-0.0786081751123455,0.0
2015,-0.04426779645242581,0.0
2016,-0.0678946451465359,0.0
2017,-0.08802429579386692,0.0
2018,-0.08026530334409206,0.0
2019,-0.14686401138974592,0.0
2020,0.34125417153282134,0.0
2021,3.8185201486862144,0.0
2022,6.523978301391276,0.0
2023,-0.9213651950238634,0.0
2024,-1.660995426983587,0.0
2025,1.212074630384235,0.0
2026,-0.960421847078505,0.0
2027,0.13752775969533365,0.0
2028,-0.08462582056131349,0.0
2029,-0.10718196648447342,0.0
2030,-0.10348230110278214,0.0
2031,-0.07266295245671575,0.0
2032,-0.12179206195809637,0.0
2033,-0.06262385155254145,0.0
2034,0.1080233557473094,0.0
2035,-0.026560812024449987,0.0
2036,-0.011196243021168492,0.0
2037,-0.12375954720010104,0.0
2038,-0.038548466269542385,0.0
2039,-0.08828708064875798,0.0
2040,0.19699569462385574,0.0
2041,3.8465736938313912,0.0
2042,6.760749998859787,0.0
2043,-0.9006626084983432,0.0
2044,-1.6697872620676295,0.0
2045,1.3814166449815883,0.0
2046,-0.8131803116007912,0.0
2047,0.024558657179865634,0.0
2048,-0.0906827540276071,0.0
2049,-0.03726369931003652,0.0
2050,-0.0043901246540436825,0.0
2051,-0.05666980377385294,0.0
2052,-0.07657005519121099,0.0
2053,-0.09077176846622541,0.0
2054,-0.0890557106914238,0.0
2055,-0.033462667354883666,0.0
2056,-0.0730550585064679,0.0
2057,0.07258307339011869,0.0
2058,0.08394656412348825,0.0
2059,0.016031415564974234,0.0
2060,0.36766294258724846,0.0
2061,3.9867973450689123,0.0
2062,6.728824518077409,0.0
2063,-0.7936446041839569,0.0
2064,-1.6201452009004027,0.0
2065,1.4959349948120306,0.0
2066,-0.6764625979534417,0.0
2067,0.25887828965230875,0.0
2068,-0.006020125150173277,0.0
2069,-0.06042278109213441,0.0
2070,-0.10849016320272212,0.0
2071,-0.08988206781975944,0.0
2072,-0.11313752468558634,0.0
2073,-0.0520379929204141,0.0
2074,-0.01962319648422945,0.0
2075,-0.013913683284901834,0.0
2076,0.0100455817382764,0.0
2077,0.016093069486532125,0.0
2078,-0.06566073752183745,0.0
2079,-0.017828245736089193,0.0
2080,0.32663173496591275,0.0
2081,3.8917201485239117,0.0
2082,6.742349825652565,0.0
2083,-0.8601901218292111,0.0
2084,-1.5310902148217296,0.0
2085,1.5015484529418728,0.0
2086,-0.832091091000225,0.0
2087,0.14953664264507602,0.0
2088,0.028539864708903514,0.0
2089,-0.01641624957204956,0.0
2090,0.07376962806453179,0.0
2091,-0.066860274603674,0.0
2092,-0.04571215612730861,0.0
2093,0.016043926510572695,0.0
2094,-0.05048338453887479,0.0
2095,0.009038948880419567,0.0
2096,0.010456350956261943,0.0
2097,-0.023046946911927147,0.0
2098,0.10096867855485998,0.0
2099,0.0664169595074521,0.0
2100,0.38889043147743263,0.0
2101,3.873859098866343,0.0
2102,6.794257693929348,0.0
2103,-0.7073593228155802,0.0
2104,-1.4963168143594194,0.0
2105,1.4388305643467179,0.0
2106,-0.7953443022379002,0.0
2107,0.21648961095693137,0.0
2108,0.05037209812022094,0.0
2109,0.039946747934953036,0.0
2110,0.018542990546106287,0.0
2111,-0.0009909910926569586,0.0
2112,0.04178745434101838,0.0
2113,0.08524795204490856,0.0
2114,-0.023049461646436342,0.0
2115,-0.02520647295223501,0.0
2116,-0.016678839743679345,0.0
2117,-0.03195861818687907,0.0
2118,-0.002657358721299204,0.0
2119,-0.04160261124276002,0.0
2120,0.35546209340164187,0.0
2121,3.9412068586548687,0.0
2122,6.6401651508804775,0.0
2123,-0.8602018726552488,0.0
2124,-1.5626630389443978,0.0
2125,1.485537474514492,0.0
2126,-0.8090578143964636,0.0
2127,0.2396020172409207,0.0
2128,0.013330721387447429,0.0
2129,-0.02225883747058715,0.0
2130,-0.021801227280626757,0.0
2131,-0.08499166320926123,0.0
2132,-0.08967478260622283,0.0
2133,-0.007900578654310132,0.0
2134,-0.012114815161621877,0.0
2135,-0.04307819629802627,0.0
2136,-0.0026153333309737624,0.0
2137,0.02993558548488031,0.0
2138,0.07620810714472655,0.0
2139,0.015219020208487553,0.0
2140,0.3429402347306492,0.0
2141,3.9009253470496685,0.0
2142,6.704454822115429,0.0
2143,-0.8447163788603854,0.0
2144,-1.6514871320074256,0.0
2145,1.4522317665613471,0.0
2146,-0.6969508347828778,0.0
2147,0.2708913955441474,0.0
2148,0.03410609587919106,0.0
2149,0.015363413563394828,0.0
2150,0.09508961002231073,0.0
2151,-0.023953604777796886,0.0
2152,0.09378534463814625,0.0
2153,0.08638785450569689,0.0
2154,0.09722687299166444,0.0
2155,0.06061258783411283,0.0
2156,0.05112705776192135,0.0
2157,-0.06435665572059462,0.0
2158,0.06773906242667152,0.0
2159,-0.07322427063533189,0.0
2160,0.30091264341400226,0.0
2161,3.879808947990653,0.0
2162,6.68767029861935,0.0
2163,-0.8049364562731267,0.0
2164,-1.5588674582303548,0.0
2165,1.4952664806901803,0.0
2166,-0.7545937173135753,0.0
2167,0.12817172589772902,0.0
2168,-0.004516584257423152,0.0
2169,-0.08116142224110043,0.0
2170,-0.013278200803604267,0.0
2171,0.01214555413492512,0.0
2172,0.006919326851022086,0.0
2173,0.02064674003174507,0.0
2174,0.05362525879350538,0.0
2175,0.033217022316519504,0.0
2176,0.06888176809901103,0.0
2177,0.00456870273055599,0.0
2178,0.03512448238303029,0.0
2179,0.11010609054852628,0.0
2180,0.34882864417386145,0.0
2181,3.9651789690370127,0.0
2182,6.697266758659457,0.0
2183,-0.8730981741017266,0.0
2184,-1.6200880475586972,0.0
2185,1.4309623036741073,0.0
2186,-0.7616691351552147,0.0
2187,0.13751609731071612,0.0
2188,-0.0008847733780696079,0.0
2189,0.00011498973781241817,0.0
2190,0.0086327209892426,0.0
2191,0.0038213951716885033,0.0
2192,0.08884938333525366,0.0
2193,-0.018548391170452812,0.0
2194,-0.05243384370515812,0.0
2195,-0.022418258486378444,0.0
2196,0.04961721440870394,0.0
2197,0.0027429523613430864,0.0
2198,0.0011177577850291828,0.0
2199,-0.039530372007292924,0.0
2200,0.4159016577233158,0.0
2201,3.9983013123178317,0.0
2202,6.740787752178768,0.0
2203,-0.8308241347573204,0.0
2204,-1.6517947351560804,0.0
2205,1.5145435552033037,0.0
2206,-0.760689814278771,0.0
2207,0.2138474786759527,0.0
2208,0.047793279164586325,0.0
2209,-0.02941675238719385,0.0
2210,0.028676323852015177,0.0
2211,-0.00015404955924314644,0.0
2212,0.04249819900306996,0.0
2213,-0.023517198510838666,0.0
2214,0.06130097913975367,0.0
2215,0.015505632730226744,0.0
2216,0.019141688610062765,0.0
2217,-0.01287002140518799,0.0
2218,0.0305897415606838,0.0
2219,-0.06144050410222583,0.0
2220,0.2405148037636827,0.0
2221,3.750803715903462,0.0
2222,6.688331875686377,0.0
2223,-0.8842014927739128,0.0
2224,-1.561175459855511,0.0
2225,1.4900940344695017,0.0
2226,-0.7888378642009894,0.0
2227,0.12737624761000083,0.0
2228,-0.042367233099749345,0.0
2229,-0.03844545131878259,0.0
2230,-0.004076114428877481,0.0
2231,0.06946727444179886,0.0
2232,-0.10077271927913056,0.0
2233,0.005256297443440527,0.0
2234,-0.003092044373932446,0.0
2235,0.01685322222351638,0.0
2236,0.01202834996631895,0.0
2237,-0.03917621385287874,0.0
2238,-0.039424349241138405,0.0
2239,-0.16143306370786,0.0
2240,0.3139104430168145,0.0
2241,3.7871796521743204,0.0
2242,6.699721013854463,0.0
2243,-0.9700190870533318,0.0
2244,-1.7342446262472624,0.0
2245,1.364619802606708,0.0
2246,-0.8806245465280474,0.0
2247,0.14891183158914656,0.0
2248,-0.08464950314111164,0.0
2249,-0.13906945439476756,0.0
2250,-0.008634273808721574,0.0
2251,0.06844353379439905,0.0
2252,0.012219303817242063,0.0
2253,-0.039266446540299246,0.0
2254,0.026453696328377446,0.0
2255,0.03898312179946461,0.0
2256,0.08554863609824984,0.0
2257,0.0072215831238549785,0.0
2258,-0.0262398606996626,0.0
2259,-0.05336804663547989,0.0
2260,0.4058353270782511,0.0
2261,3.830400421404858,0.0
2262,6.742461521648646,0.0
2263,-0.7935664361683852,0.0
2264,-1.5911416073477214,0.0
2265,1.4647936188305823,0.0
2266,-0.7762586463382612,0.0
2267,0.18443066678306627,0.0
2268,0.006480314002656123,0.0
2269,0.07762635125737727,0.0
2270,0.06889064423211298,0.0
2271,-0.022662071618995402,0.0
2272,0.027422638685793435,0.0
2273,0.011576212194573193,0.0
2274,-0.047684248894815644,0.0
2275,-0.05724900739465175,0.0
2276,0.020665174860599402,0.0
2277,-0.01336857320676564,0.0
2278,0.11121644554189827,0.0
2279,-0.040393586575288035,0.0
2280,0.3818165837729233,0.0
2281,3.9132254752812883,0.0
2282,6.665937684932442,0.0
2283,-0.8014124188579119,0.0
2284,-1.5506520107252502,0.0
2285,1.5325935991948647,0.0
2286,-0.7839430240200131,0.0
2287,0.25873317691325187,0.0
2288,-0.030186970515205754,0.0
2289,-0.019827675694458053,0.0
2290,0.07259924278547211,0.0
2291,-0.053980210747151404,0.0
2292,-0.001021622192755832,0.0
2293,0.02850049030270167,0.0
2294,0.012986226357708519,0.0
2295,-0.04174344754934807,0.0
2296,0.003586038591476281,0.0
2297,0.07703332159028245,0.0
2298,0.06242993152647705,0.0
2299,-0.04590410138215012,0.0
2300,0.38049571420275746,0.0
2301,3.9612089234892376,0.0
2302,6.752389196486047,0.0
2303,-0.8694360346977897,0.0
2304,-1.5716131088561252,0.0
2305,1.455685377803626,0.0
2306,-0.8106717727771315,0.0
2307,0.2101132337245512,0.0
2308,0.018877544435862717,0.0
2309,-0.02478413941449945,0.0
2310,0.05760672775532312,0.0
2311,-0.09382077964724417,0.0
2312,0.02964709104609753,0.0
2313,-0.020323925863271662,0.0
2314,-0.027476687368433426,0.0
2315,0.0020605907358169483,0.0
2316,-0.029798894440068294,0.0
2317,0.1479026307382342,0.0
2318,0.032567390532681456,0.0
2319,0.0193610752968238,0.0
2320,0.44755649944818365,0.0
2321,3.8960140496292137,0.0
2322,6.700350489082786,0.0
2323,-0.9485923724740398,0.0
2324,-1.5860724461731617,0.0
2325,1.5408510890631055,0.0
2326,-0.7958705817658503,0.0
2327,0.2525589611496777,0.0
2328,0.047899332569458,0.0
2329,-0.06911764268592097,0.0
2330,0.03029686691585015,0.0
2331,-0.019300317354576064,0.0
2332,-0.0379704384831066,0.0
2333,0.016288097062001468,0.0
2334,-0.0959031636574342,0.0
2335,0.05588999343790646,0.0
2336,-0.021737736506419615,0.0
2337,-0.07334277810066252,0.0
2338,0.08633434111309281,0.0
2339,-0.06050426275004389,0.0
2340,0.36206283597003697,0.0
2341,3.993231064879369,0.0
2342,6.66318308321297,0.0
2343,-0.8152567276226942,0.0
2344,-1.5310978264556108,0.0
2345,1.4638123379890213,0.0
2346,-0.7789234364702107,0.0
2347,0.27236672005114715,0.0
2348,-0.08214100366710032,0.0
2349,-0.06397504450011085,0.0
2350,0.054568650490897236,0.0
2351,-0.0668615095227504,0.0
2352,-0.024887249191258832,0.0
2353,0.00678270375093004,0.0
2354,0.024546500307818138,0.0
2355,0.016220923008745138,0.0
2356,0.002086265641897145,0.0
2357,-0.04871897310778088,0.0
2358,0.09457114581944934,0.0
2359,0.0632893144842231,0.0
2360,0.4139254238475271,0.0
2361,3.9428714703611387,0.0
2362,6.658801881451097,0.0
2363,-0.8649066994706476,0.0
2364,-1.6835350061986072,0.0
2365,1.416090605863597,0.0
2366,-0.7837218403708709,0.0
2367,0.23648553534161612,0.0
2368,-0.099494390454422,0.0
2369,-0.03459871529577938,0.0
2370,-0.028413441917237485,0.0
2371,-0.005731997550648587,0.0
2372,-0.00652195307433329,0.0
2373,-0.044903530375881594,0.0
2374,0.019790328756139466,0.0
2375,0.04598257631184195,0.0
2376,-0.098279749210446,0.0
2377,-0.050454053899624526,0.0
2378,0.046561770222634385,0.0
2379,-0.03508401247168008,0.0
2380,0.36341533603888365,0.0
2381,3.809755965261488,0.0
2382,6.595067246293789,0.0
2383,-0.9492911304602666,0.0
2384,-1.635587852877258,0.0
2385,1.4321751378543643,0.0
2386,-0.7090687754593179,0.0
2387,0.2158746506124077,0.0
2388,-0.02856120860955444,0.0
2389,-0.08356696856498026,0.0
2390,0.07566558174748891,0.0
2391,0.002530691687261416,0.0
2392,-0.0028903568976232103,0.0
2393,-0.04554152423261202,0.0
2394,0.05880386383800742,0.0
2395,0.020881830021755268,0.0
2396,0.004269578034614514,0.0
2397,-0.05820609188509183,0.0
2398,0.041553370708979395,0.0
2399,6.0243816222329064e-05,0.0
2400,0.27856545362206264,0.0
2401,3.917717719385039,0.0
2402,6.636959811436543,0.0
2403,-0.9052695107894468,0.0
2404,-1.5445751482393915,0.0
2405,1.4816336126174232,0.0
2406,-0.8377704259633117,0.0
2407,0.2393864145021397,0.0
2408,0.00833746133567266,0.0
2409,-0.07959865622113976,0.0
2410,-0.04000578359133179,0.0
2411,-0.015676541181334127,0.0
2412,-0.04026715665382245,0.0
2413,-0.018841550913187077,0.0
2414,-0.07332230483534248,0.0
2415,-0.1046289026581628,0.0
2416,-0.06487423551646389,0.0
2417,-0.0340104617548913,0.0
2418,-0.010838118279479385,0.0
2419,-0.1169699086372852,0.0
2420,0.30774273102508176,0.0
2421,3.857476384286857,0.0
2422,6.67283198105831,0.0
2423,-1.0147453227109837,0.0
2424,-1.6633049884971673,0.0
2425,1.433019187844057,0.0
2426,-0.8279827873423095,0.0
2427,0.15114246981672294,0.0
2428,-0.02473074542122669,0.0
2429,-0.08351877944955433,0.0
2430,-0.05660404303386733,0.0
2431,0.01742265597285035,0.0
2432,-0.057701464008042214,0.0
2433,-0.05955654592038598,0.0
2434,0.007374879436312806,0.0
2435,-0.055943853778811205,0.0
2436,-0.03725949778701569,0.0
2437,0.00904439814044114,0.0
2438,-0.059660963825801744,0.0
2439,-0.04934454563463997,0.0
2440,0.23671351248870798,0.0
2441,3.832493670467049,0.0
2442,6.590458481489235,0.0
2443,-0.9582360033938403,0.0
2444,-1.6246840914313856,0.0
2445,1.4489260658646854,0.0
2446,-0.8046779796859203,0.0
2447,0.22433871895277227,0.0
2448,-0.009373341205729562,0.0
2449,-0.061968474469859286,0.0
2450,-0.033773523130747836,0.0
2451,-0.004899870138460008,0.0
2452,0.028193173729310007,0.0
2453,-0.07935632696912796,0.0
2454,0.0576127370914957,0.0
2455,-0.05506151138990749,0.0
2456,0.022603309317502075,0.0
2457,0.07063533479111916,0.0
2458,0.06280073918372943,0.0
2459,0.062473154412272365,0.0
2460,0.48596673892111064,0.0
2461,3.8704886456433116,0.0
2462,6.7329429991258944,0.0
2463,-0.9205960514764613,0.0
2464,-1.5360661889577423,0.0
2465,1.4976599641258668,0.0
2466,-0.8085217182202595,0.0
2467,0.25337774862703655,0.0
2468,-0.028199836543802606,0.0
2469,-0.052757647660721746,0.0
2470,0.08110768851667242,0.0
2471,-0.05160386885378705,0.0
2472,-0.059951119667113,0.0
2473,0.09787812609419057,0.0
2474,-0.04623915050231882,0.0
2475,0.052218691424680996,0.0
2476,-0.03500657976808416,0.0
2477,0.022489868785878192,0.0
2478,-0.022556651541248626,0.0
2479,0.004641919645073345,0.0
2480,0.3432719058217613,0.0
2481,3.934032204080275,0.0
2482,6.711812066248816,0.0
2483,-0.9461011836419256,0.0
2484,-1.553394091724476,0.0
2485,1.5282819437106243,0.0
2486,-0.7798999704236051,0.0
2487,0.24233433404901694,0.0
2488,-0.0593482725086326,0.0
2489,-0.11309444892896173,0.0
2490,0.11456959547830281,0.0
2491,0.04408618952363484,0.0
2492,-0.047012325597415486,0.0
2493,-0.05691498691790438,0.0
2494,0.013762020334889734,0.0
2495,-0.00035875755270351785,0.0
2496,0.04216601135813544,0.0
2497,0.06914253152806983,0.0
2498,0.010579580949208328,0.0
2499,-0.028651246497993964,0.0
2500,0.3749216198501528,0.0
2501,3.919905003586651,0.0
2502,6.634089264777552,0.0
2503,-0.9873804862448623,0.0
2504,-1.5521205933493305,0.0
2505,1.4665567497443865,0.0
2506,-0.7553760067396494,0.0
2507,0.2007361393545687,0.0
2508,0.03486765389183713,0.0
2509,0.06815705503049119,0.0
2510,0.04130985370405712,0.0
2511,0.008086120921490572,0.0
2512,0.04461400125984344,0.0
2513,-0.04987804244144856,0.0
2514,0.0394753953926822,0.0
2515,-0.043798659946349475,0.0
2516,-0.03180382658194041,0.0
2517,-0.00826820118384617,0.0
2518,0.006240956718978557,0.0
2519,-0.05725519595721748,0.0
2520,0.3708200560885405,0.0
2521,4.018905527473414,0.0
2522,6.688256729686995,0.0
2523,-1.0006083208891225,0.0
2524,-1.5121461033269412,0.0
2525,1.4612396207092266,0.0
2526,-0.6517127217499046,0.0
2527,0.19788335809532262,0.0
2528,0.03246955038719703,0.0
2529,-0.03173281151294555,0.0
2530,0.038049820294304454,0.0
2531,0.05170922305855076,0.0
2532,0.011701049772855814,0.0
2533,-0.014670996006395858,0.0
2534,-0.021415073127834125,0.0
2535,-0.041989287256328736,0.0
2536,0.04711568426455003,0.0
2537,0.08480283771827195,0.0
2538,-0.06427422553058909,0.0
2539,-0.021816101740939196,0.0
2540,0.3395054819495115,0.0
2541,3.8175777093965824,0.0
2542,6.671137325267212,0.0
2543,-0.9021725309011376,0.0
2544,-1.638368106915961,0.0
2545,1.4274464816314612,0.0
2546,-0.8200416919008691,0.0
2547,0.10666728866759043,0.0
2548,-0.0344339187809836,0.0
2549,-0.05849221518439078,0.0
2550,0.12143434869274454,0.0
2551,0.005540924537894183,0.0
2552,0.051040040472766134,0.0
2553,0.010186229927578417,0.0
2554,-0.005010462121062901,0.0
2555,0.02154175966601316,0.0
2556,-0.036714738743052554,0.0
2557,-0.05468756828995215,0.0
2558,-0.06876927884957151,0.0
2559,0.027795931792074825,0.0
2560,0.344355957942291,0.0
2561,3.941861130019311,0.0
2562,6.512392035717101,0.0
2563,-1.0771936856757078,0.0
2564,-1.5524985676776377,0.0
2565,1.3637347138650289,0.0
2566,-0.9228417791116715,0.0
2567,0.15188006702556422,0.0
2568,-0.029349234743987235,0.0
2569,-0.10391481500451763,0.0
2570,-0.027862347790154285,0.0
2571,-0.03636003288915897,0.0
2572,-0.08729671326989125,0.0
2573,-0.054213689356804054,0.0
2574,-0.016292266960740626,0.0
2575,-0.02451924357961867,0.0
2576,-0.12452888857750305,0.0
2577,-0.1410623790851175,0.0
2578,-0.07737933452650164,0.0
2579,-0.10338614464741135,0.0
2580,0.37220797996467314,0.0
2581,3.8926309702478625,0.0
2582,6.491819132944365,0.0
2583,-1.1291690951923772,0.0
2584,-1.5875106637557799,0.0
2585,1.354065703004354,0.0
2586,-0.8743713864787361,0.0
2587,0.20000545241996204,0.0
2588,-0.14857108659970947,0.0
2589,-0.17722007392559533,0.0
2590,-0.09002380045301911,0.0
2591,-0.051897405745775754,0.0
2592,-0.14700765345462413,0.0
2593,-0.10186437143526507,0.0
2594,-0.18256624708858618,0.0
2595,-0.11058433470702822,0.0
2596,-0.03625055564959641,0.0
2597,-0.16642664907440982,0.0
2598,-0.10923359347175592,0.0
2599,-0.1895377939980398,0.0
2600,0.22846847335014858,0.0
2601,3.8464141023384135,0.0
2602,6.524507274622563,0.0
2603,-1.101059637653438,0.0
2604,-1.6487985454863294,0.0
2605,1.2458057271122864,0.0
2606,-0.9754973058835992,0.0
2607,-0.02002115923987463,0.0
2608,-0.1099087669361519,0.0
2609,-0.16385818159626325,0.0
2610,-0.05296275852997877,0.0
2611,-0.015248848594405687,0.0
2612,-0.2342524295728513,0.0
2613,-0.12086981645911088,0.0
2614,-0.11427375640264273,0.0
2615,-0.13584774869948835,0.0
2616,-0.10112074271664279,0.0
2617,-0.19270684860942247,0.0
2618,-0.2502120862880751,0.0
2619,-0.20915301790611712,0.0
2620,0.2586189459613013,0.0
2621,3.795173330269778,0.0
2622,6.591987183528453,0.0
2623,-1.1544723781117734,0.0
2624,-1.587372731574715,0.0
2625,1.309691390365332,0.0
2626,-0.9597850543099191,0.0
2627,0.0679992851638109,0.0
2628,-0.11422125949412804,0.0
2629,-0.17449735092496502,0.0
2630,-0.0592303811706688,0.0
2631,-0.06579503335782098,0.0
2632,-0.053167569672623,0.0
2633,-0.14704583175164365,0.0
2634,-0.1276389881543591,0.0
2635,-0.19653495123088136,0.0
2636,-0.11621726090406549,0.0
2637,-0.21141409860082683,0.0
2638,-0.0881731281384696,0.0
2639,-0.21018391178472873,0.0
2640,0.15653580068869222,0.0
2641,3.8014546919936305,0.0
2642,6.553744008583309,0.0
2643,-1.1701784060887455,0.0
2644,-1.743787882979693,0.0
2645,1.3257078773004378,0.0
2646,-0.9065245767930802,0.0
2647,0.08868033687081905,0.0
2648,-0.09872323882695608,0.0
2649,-0.20950117964337006,0.0
2650,-0.1079008127657129,0.0
2651,-0.10973464113993542,0.0
2652,-0.029649513223485316,0.0
2653,-0.14159031016361068,0.0
2654,-0.09146946196863479,0.0
2655,-0.13481396146462543,0.0
2656,-0.11533254344133165,0.0
2657,-0.06072144031266702,0.0
2658,-0.14716607691485473,0.0
2659,-0.09970915465445707,0.0
2660,0.22766519616798098,0.0
2661,3.8801137015174256,0.0
2662,6.58725470911992,0.0
2663,-1.162160264805192,0.0
2664,-1.6954841150838065,0.0
2665,1.354385018299335,0.0
2666,-0.9535348990864256,0.0
2667,0.07581222175025673,0.0
2668,-0.20484923843255187,0.0
2669,-0.17658855597103307,0.0
2670,-0.12608431593350675,0.0
2671,-0.13436826862040857,0.0
2672,-0.058082724932698976,0.0
2673,-0.207289263627978,0.0
2674,-0.1230728486008939,0.0
2675,-0.1920687129785178,0.0
2676,-0.2104665245720015,0.0
2677,-0.16519019052274164,0.0
2678,-0.13658912655762623,0.0
2679,-0.008666243517032157,0.0
2680,0.33075086286295097,0.0
2681,3.9099132133899763,0.0
2682,6.521176234860537,0.0
2683,-0.9849268799907925,0.0
2684,-1.624418840619746,0.0
2685,1.4641031015953354,0.0
2686,-0.7932046827996158,0.0
2687,0.20880514742236259,0.0
2688,-0.03469209886222619,0.0
2689,-0.04917442750136555,0.0
2690,-0.05392431926532462,0.0
2691,0.11247554839140902,0.0
2692,0.015162403219378026,0.0
2693,-0.08369919942397533,0.0
2694,-0.012345986781767225,0.0
2695,0.026938498062490143,0.0
2696,-0.0720365488282381,0.0
2697,-0.13895853723743654,0.0
2698,-0.02022232832007298,0.0
2699,-0.031048143042171777,0.0
2700,0.26196022914293093,0.0
2701,3.934987216279497,0.0
2702,6.62382734709647,0.0
2703,-0.9983893160026449,0.0
2704,-1.577251794845329,0.0
2705,1.471798719768888,0.0
2706,-0.894675480055962,0.0
2707,0.16198744924158684,0.0
2708,-0.06615736265221352,0.0
2709,-0.13665273861198868,0.0
2710,0.04098330083286374,0.0
2711,-0.02385622359725929,0.0
2712,-0.009757871451564627,0.0
2713,0.03628970833083995,0.0
2714,0.0362829242645827,0.0
2715,0.0005782321834531361,0.0
2716,-0.07594939053728693,0.0
2717,-0.015324902010488394,0.0
2718,-0.0809865772866347,0.0
2719,-0.04259813885105433,0.0
2720,0.4038640957496336,0.0
2721,3.80575878799194,0.0
2722,6.60179099436456,0.0
2723,-0.9757790244928317,0.0
2724,-1.5524308819940418,0.0
2725,1.3194458880235092,0.0
2726,-0.8478416004218687,0.0
2727,0.13178177780188222,0.0
2728,-0.06747684043181826,0.0
2729,-0.07903743835393252,0.0
2730,0.019154936819721313,0.0
2731,0.03543284716523375,0.0
2732,-0.015434126629364876,0.0
2733,-0.07230258516465574,0.0
2734,-0.019280391117199525,0.0
2735,-0.12575471432226226,0.0
2736,-0.05275971612472169,0.0
2737,0.028663200352361414,0.0
2738,-0.02239716317841776,0.0
2739,-0.08811909921158334,0.0
2740,0.4017471156930376,0.0
2741,4.000539176677965,0.0
2742,6.6387401257073915,0.0
2743,-1.0083562192033477,0.0
2744,-1.6052903070942182,0.0
2745,1.3626192690293188,0.0
2746,-0.7890500068721892,0.0
2747,0.18464007565945723,0.0
2748,-0.022869457343747054,0.0
2749,-0.06983098868640024,0.0
2750,0.013596307612797991,0.0
2751,-0.03271260819649107,0.0
2752,0.036388977025651,0.0
2753,-0.008067726967660045,0.0
2754,-0.023576575933064364,0.0
2755,-0.01610302806291175,0.0
2756,-0.06984472188962149,0.0
2757,-0.05871289145204535,0.0
2758,0.03207380152539278,0.0
2759,0.016346540018598903,0.0
2760,0.36437719794077084,0.0
2761,3.98696039981105,0.0
2762,6.625226414208965,0.0
2763,-1.0930251703718168,0.0
2764,-1.4837729812348237,0.0
2765,1.4307996728697059,0.0
2766,-0.8856492855492885,0.0
2767,0.2040586223474666,0.0
2768,0.02111882246472132,0.0
2769,0.015936857533068387,0.0
2770,0.14392611476663142,0.0
2771,0.0876920303192246,0.0
2772,-0.04008040916004756,0.0
2773,0.077056773428095,0.0
2774,0.06744327079367009,0.0
2775,-0.04581385079063002,0.0
2776,-0.028953776707156362,0.0
2777,0.04620573041873732,0.0
2778,0.06654465944946063,0.0
2779,0.06064398399621087,0.0
2780,0.4278578224724174,0.0
2781,4.023386173458343,0.0
2782,6.667594634318856,0.0
2783,-0.9680177036119555,0.0
2784,-1.4808319477051952,0.0
2785,1.4713266534549594,0.0
2786,-0.7532216632554765,0.0
2787,0.11509127590510347,0.0
2788,0.004350742066559141,0.0
2789,-0.021964032831697424,0.0
2790,-0.02471089602589435,0.0
2791,-0.0026399029709301787,0.0
2792,-0.054994958236542796,0.0
2793,-0.07949412053396301,0.0
2794,0.07832969428817678,0.0
2795,-0.0848168464640386,0.0
2796,-0.02409503810821384,0.0
2797,0.062453847139485416,0.0
2798,0.024105638918487802,0.0
2799,-0.0826215485098793,0.0
2800,0.3654612625323538,0.0
2801,4.0277645224731735,0.0
2802,6.616852094416321,0.0
2803,-0.9729582022048987,0.0
2804,-1.4504444216695151,0.0
2805,1.4658552148335044,0.0
2806,-0.7902035920819672,0.0
2807,0.12384728730228986,0.0
2808,0.007273482992455282,0.0
2809,-0.12930713091976545,0.0
2810,-0.04741219302475294,0.0
2811,-0.03583623888052012,0.0
2812,-0.008016045425981312,0.0
2813,0.028619977881030184,0.0
2814,0.030679869186868908,0.0
2815,-0.05516409017688422,0.0
2816,-0.10228412587992936,0.0
2817,0.02528688108138409,0.0
2818,-0.13728127188953104,0.0
2819,-0.07136461199845412,0.0
2820,0.3658419693794448,0.0
2821,3.979795483905417,0.0
2822,6.62033035824023,0.0
2823,-1.0388146645650569,0.0
2824,-1.4806771273160149,0.0
2825,1.3604893888728942,0.0
2826,-0.8482691428176599,0.0
2827,0.16612163003742167,0.0
2828,-0.016562961935158917,0.0
2829,-0.1094979689166687,0.0
2830,0.14571404020486142,0.0
2831,-0.027492149237280352,0.0
2832,-0.014318032832174617,0.0
2833,0.06673503272435381,0.0
2834,-0.028237764741044283,0.0
2835,0.09032989155206499,0.0
2836,0.05277490365521949,0.0
2837,-0.014151970050939534,0.0
2838,-0.025009368358427684,0.0
2839,-0.06421723718480339,0.0
2840,0.32626924494753545,0.0
2841,3.987749878829742,0.0
2842,6.478916290865152,0.0
2843,-1.03622600033962,0.0
2844,-1.5797873951059886,0.0
2845,1.3964012462234827,0.0
2846,-0.7970919490884991,0.0
2847,0.1575276958252994,0.0
2848,-0.03530498844406686,0.0
2849,-0.03751826933171549,0.0
2850,-0.030032433672704653,0.0
2851,-0.08160552581333717,0.0
2852,-0.0708385754298913,0.0
2853,0.02792538164094539,0.0
2854,0.15371062820448278,0.0
2855,0.08428207535501192,0.0
2856,-0.02460324239225066,0.0
2857,-0.02971041549479304,0.0
2858,-0.04450797499630632,0.0
2859,-0.02765233563615038,0.0
2860,0.274226938535787,0.0
2861,4.071694270457219,0.0
2862,6.729091835692318,0.0
2863,-1.0384017093657578,0.0
2864,-1.5418672275903704,0.0
2865,1.3808591295252162,0.0
2866,-0.7458004091003215,0.0
2867,0.3014738366380293,0.0
2868,-0.035288891571532345,0.0
2869,0.02689956708101157,0.0
2870,-0.05346161809436681,0.0
2871,-0.045762414648205574,0.0
2872,-0.07149855164216468,0.0
2873,-0.05686979573391457,0.0
2874,-0.038707162069361076,0.0
2875,-0.06014782595819977,0.0
2876,0.009440160328424013,0.0
2877,-0.05463979783044221,0.0
2878,-0.14190462669778978,0.0
2879,-0.06300244463340436,0.0
2880,0.3929392762684474,0.0
2881,4.033234511427449,0.0
2882,6.590654038938197,0.0
2883,-1.0452868777021644,0.0
2884,-1.4840496389718125,0.0
2885,1.4558327439365892,0.0
2886,-0.9400994951719606,0.0
2887,0.1472138686958035,0.0
2888,-0.010607142121039852,0.0
2889,-0.17821487086446505,0.0
2890,-0.05714887802307969,0.0
2891,-0.07575469846826918,0.0
2892,-0.03442391230444391,0.0
2893,-0.011309792708984193,0.0
2894,0.006972755114344691,0.0
2895,-0.0705278713200541,0.0
2896,-0.024880838232502256,0.0
2897,0.02895370859223615,0.0
2898,-0.07011234709855514,0.0
2899,-0.10463450125078536,0.0
2900,0.3318084031257663,0.0
2901,4.020343709258777,0.0
2902,6.658185478343836,0.0
2903,-1.0513487197805553,0.0
2904,-1.4868244736685634,0.0
2905,1.475634200858491,0.0
2906,-0.7921260859499074,0.0
2907,0.05410070460025343,0.0
2908,-0.05821018388198276,0.0
2909,-0.006241001075703828,0.0
2910,-0.00929976967753693,0.0
2911,-0.028060406064997115,0.0
2912,0.037948684541580194,0.0
2913,-0.10255144529913916,0.0
2914,0.03800047901287218,0.0
2915,-0.002149030854261963,0.0
2916,0.08343467041444122,0.0
2917,-0.04764230953322994,0.0
2918,0.011339812478676499,0.0
2919,-0.012352362231813217,0.0
2920,0.36134329442712965,0.0
2921,3.9907207458129,0.0
2922,6.582223634056291,0.0
2923,-0.9087724113037727,0.0
2924,-1.422020757226472,0.0
2925,1.4038464589609483,0.0
2926,-0.8297992904869461,0.0
2927,0.14614425052520782,0.0
2928,-0.012194703548911855,0.0
2929,-0.060563514498234855,0.0
2930,-0.09929607670905499,0.0
2931,-0.051276601195641446,0.0
2932,-0.03668219076462393,0.0
2933,0.01913804600975124,0.0
2934,-0.02866867422904526,0.0
2935,0.013751545476409707,0.0
2936,-0.12562323579650705,0.0
2937,-0.033946516939516155,0.0
2938,-0.06495614444703933,0.0
2939,-0.013601109285396934,0.0
2940,0.47796419328386264,0.0
2941,3.9616989585526703,0.0
2942,6.548205827043683,0.0
2943,-1.1291694298244606,0.0
2944,-1.486783798797828,0.0
2945,1.4007183001971082,0.0
2946,-0.9345546074765696,0.0
2947,0.10181542939836731,0.0
2948,-0.018420487448867654,0.0
2949,-0.13295641215087367,0.0
2950,0.0010169802783097258,0.0
2951,0.012365738697153041,0.0
2952,0.02424523231211374,0.0
2953,0.04813886031232696,0.0
2954,-0.11491082715317104,0.0
2955,0.11011864963321208,0.0
2956,-0.036625729763823694,0.0
2957,-0.024067160538573825,0.0
2958,0.034201072696925745,0.0
2959,0.009208941421474664,0.0
2960,0.32120382344179915,0.0
2961,4.056526736889142,0.0
2962,6.610185813844876,0.0
2963,-1.0147221493243659,0.0
2964,-1.5526873011708582,0.0
2965,1.4613334725983647,0.0
2966,-0.7212330494169026,0.0
2967,0.2939660853275545,0.0
2968,0.0059328633453576175,0.0
2969,-0.13286452524193046,0.0
2970,-0.03518859985605781,0.0
2971,-0.019605487796468903,0.0
2972,-0.050623107095830004,0.0
2973,0.03480075566512273,0.0
2974,-0.03173448123866403,0.0
2975,0.031035914559722363,0.0
2976,0.05405283595576066,0.0
2977,0.027209503688412157,0.0
2978,0.015151669639131348,0.0
2979,0.12175394873259487,0.0
2980,0.49626206604251955,0.0
2981,4.121942290796595,0.0
2982,6.722357341756094,0.0
2983,-0.9972036606806146,0.0
2984,-1.3668329089860527,0.0
2985,1.4674969573243575,0.0
2986,-0.7362984053294666,0.0
2987,0.1997285876137766,0.0
2988,0.038247591711614244,0.0
2989,-0.05173385132417686,0.0
2990,-0.07199817146191281,0.0
2991,0.029438668253229848,0.0
2992,0.005296558976285256,0.0
2993,-0.030375776057880836,0.0
2994,0.003712463462187069,0.0
2995,-0.013773791512964182,0.0
2996,0.03337349867434834,0.0
2997,-0.012067329177795256,0.0
2998,0.03892361347970817,0.0
2999,0.0679524741570111,0.0
3000,0.33023663787156904,0.0
3001,4.08886881165409,0.0
3002,6.62588980658449,0.0
3003,-1.0837488366470862,0.0
3004,-1.4794425717190667,0.0
3005,1.342520311712023,0.0
3006,-0.8651877671038377,0.0
3007,0.24682780272367172,0.0
3008,-0.05046262574957708,0.0
3009,0.004916361424179259,0.0
3010,0.0883462059203043,0.0
3011,0.06324258276081106,0.0
3012,0.057756326412463706,0.0
3013,0.03481380299706487,0.0
3014,-0.060826373462022076,0.0
3015,-0.053815822072633156,0.0
3016,-0.03255849120706808,0.0
3017,-0.04220035931247093,0.0
3018,0.08247466260382753,0.0
3019,-0.004533256176433023,0.0
3020,0.3645374856744837,0.0
3021,4.017400239443716,0.0
3022,6.522566715225966,0.0
3023,-0.9900215409610452,0.0
3024,-1.4112268379500517,0.0
3025,1.4031341717076216,0.0
3026,-0.772991689177869,0.0
3027,0.18141884684723986,0.0
3028,0.013553552031311287,0.0
3029,0.0017640194060301803,0.0
3030,0.042851871375571365,0.0
3031,-0.0177765129467315,0.0
3032,-0.03460604026462219,0.0
3033,-0.0058004312052908754,0.0
3034,0.0771300783782039,0.0
3035,0.0012192233265837468,0.0
3036,-0.03208361500530303,0.0
3037,0.050834385261062216,0.0
3038,0.007690579849455964,0.0
3039,-0.030942770857848485,0.0
3040,0.3741078848843035,0.0
3041,4.0054369067207025,0.0
3042,6.674818438171264,0.0
3043,-1.0773698346783207,0.0
3044,-1.5004220137821265,0.0
3045,1.4959611709542835,0.0
3046,-0.8590395559357771,0.0
3047,0.27900541559939107,0.0
3048,-0.06367896835516626,0.0
3049,0.05477009035544571,0.0
3050,-0.02604593553558221,0.0
3051,-0.11934017193528665,0.0
3052,0.04581364126461106,0.0
3053,-0.0347212897403069,0.0
3054,-0.06590131493197032,0.0
3055,0.0497544086370406,0.0
3056,-0.03552152941805365,0.0
3057,-0.023144065154335133,0.0
3058,-0.01375422679115795,0.0
3059,-0.05013185703156832,0.0
3060,0.4273082789769259,0.0
3061,3.944496921535596,0.0
3062,6.546251195432658,0.0
3063,-1.1323450200413807,0.0
3064,-1.5478856328149133,0.0
3065,1.3453838540049583,0.0
3066,-0.8724700222498494,0.0
3067,0.10216461214835523,0.0
3068,-0.04177583115369132,0.0
3069,-0.1534851028134589,0.0
3070,-0.12496601304074112,0.0
3071,-0.006073246838856794,0.0
3072,-0.14804957089172424,0.0
3073,-0.008597139636893888,0.0
3074,-0.02756962724524222,0.0
3075,-0.13320931104906625,0.0
3076,-0.010491544836815393,0.0
3077,-0.048228036549454394,0.0
3078,-0.09447428480345557,0.0
3079,0.008286150569872152,0.0
3080,0.3229524477785066,0.0
3081,4.087103350274603,0.0
3082,6.637767143540061,0.0
3083,-1.0342996399942501,0.0
3084,-1.4646653900231015,0.0
3085,1.5430212468585993,0.0
3086,-0.799528354914664,0.0
3087,0.169933345265028,0.0
3088,-0.04236146389250252,0.0
3089,-0.058953660534122175,0.0
3090,0.02139478600265672,0.0
3091,-0.14661257591055588,0.0
3092,-0.13504927789206833,0.0
3093,-0.04000196218271542,0.0
3094,-0.011014069192934281,0.0
3095,-0.1556545758163176,0.0
3096,-0.10568193668831703,0.0
3097,-0.09149318616591597,0.0
3098,-0.02419393192046558,0.0
3099,-0.10303694123880486,0.0
3100,0.38858585221914516,0.0
3101,3.8838325254253387,0.0
3102,6.477840707616971,0.0
3103,-1.1009579348961038,0.0
3104,-1.5377102163125316,0.0
3105,1.3902736810507548,0.0
3106,-0.8444571152069601,0.0
3107,0.20658621566934357,0.0
3108,-0.029346830333158457,0.0
3109,-0.15799432404219946,0.0
3110,-0.1497155228639944,0.0
3111,-0.16515234503863346,0.0
3112,-0.10399676428412906,0.0
3113,-0.10281886621143581,0.0
3114,-0.1111335104364481,0.0
3115,-0.07888957709496983,0.0
3116,-0.11166423582993798,0.0
3117,-0.14487425904933643,0.0
3118,-0.056517832825438534,0.0
3119,-0.05098643415660544,0.0
3120,0.25254703288155894,0.0
3121,3.9306220411777923,0.0
3122,6.380953294721105,0.0
3123,-1.2139603576945595,0.0
3124,-1.635395178919986,0.0
3125,1.2513636708685147,0.0
3126,-0.9428271611420699,0.0
3127,0.11899170078189512,0.0
3128,-0.15849783989874078,0.0
3129,-0.11576839136828079,0.0
3130,-0.08910440843192499,0.0
3131,-0.15053342333958428,0.0
3132,-0.1548104893815604,0.0
3133,-0.18609507907126693,0.0
3134,-0.20313777686515494,0.0
3135,-0.07491992147935286,0.0
3136,-0.0817396081047668,0.0
3137,-0.10319273758512487,0.0
3138,-0.11484034649529774,0.0
3139,-0.13760674141958631,0.0
3140,0.3575319619580239,0.0
3141,4.028287025129466,0.0
3142,6.5434443193854674,0.0
3143,-1.2132414698142233,0.0
3144,-1.5211724021097275,0.0
3145,1.425794384737045,0.0
3146,-0.8853317865952967,0.0
3147,0.1922583565550242,0.0
3148,-0.10008230667668074,0.0
3149,-0.06937254512533104,0.0
3150,-0.12314132223801397,0.0
3151,-0.1383120988308887,0.0
3152,0.0068385539695483555,0.0
3153,0.0443064278671018,0.0
3154,-0.037574663317874825,0.0
3155,-0.0396784398749865,0.0
3156,0.003493178636220687,0.0
3157,-0.04484035675522416,0.0
3158,-0.02838513432080382,0.0
3159,-0.12508279583355714,0.0
3160,0.34302532227917387,0.0
3161,3.8975729445348772,0.0
3162,6.534999849948134,0.0
3163,-1.0915240433063413,0.0
3164,-1.4642998183587919,0.0
3165,1.4304732691883009,0.0
3166,-0.7780045104425733,0.0
3167,0.2184448208110008,0.0
3168,-0.04612899708727189,0.0
3169,-0.09351651128131813,0.0
3170,-0.06921211098293933,0.0
3171,-0.025954748790861192,0.0
3172,-0.020544276629785987,0.0
3173,0.012422727038494591,0.0
3174,-0.032087614072985944,0.0
3175,-0.07617960747127506,0.0
3176,-0.048076512420646825,0.0
3177,-0.06471819769644843,0.0
3178,0.012290723563351556,0.0
3179,-0.01260050090969279,0.0
3180,0.3782969897396697,0.0
3181,4.085315990900934,0.0
3182,6.571794194469129,0.0
3183,-1.120977389177742,0.0
3184,-1.5407938032071848,0.0
3185,1.3581999546574925,0.0
3186,-0.8555280019126915,0.0
3187,0.2632120017192977,0.0
3188,-0.01405727989325322,0.0
3189,0.05264318981329219,0.0
3190,0.041773164750793394,0.0
3191,-0.05374344315324016,0.0
3192,-0.012509635942082277,0.0
3193,0.021829616832127086,0.0
3194,0.09765520120814578,0.0
3195,0.05304759162599025,0.0
3196,-0.04066039943330163,0.0
3197,-0.027345894151443922,0.0
3198,0.01146843803432317,0.0
3199,0.08129256195654232,0.0
3200,0.4263155385048197,0.0
3201,4.065826826424936,0.0
3202,6.671489666356589,0.0
3203,-1.2199637568085222,0.0
3204,-1.476176925451275,0.0
3205,1.43009861817156,0.0
3206,-0.751623814140648,0.0
3207,0.24898641595198767,0.0
3208,0.03427921673824691,0.0
3209,-0.032661238450722566,0.0
3210,0.1324167828840102,0.0
3211,-0.003000376279413495,0.0
3212,0.03804866322735071,0.0
3213,0.06738937571877598,0.0
3214,0.061404287314521924,0.0
3215,0.08632205370007248,0.0
3216,0.0193637542940968,0.0
3217,0.06296437233377958,0.0
3218,0.08210000008314168,0.0
3219,0.010796614708866191,0.0
3220,0.3416316220444406,0.0
3221,4.08701946819068,0.0
3222,6.6885163064051145,0.0
3223,-1.0417070996098228,0.0
3224,-1.396842503076632,0.0
3225,1.463756587165565,0.0
3226,-0.7061910702453322,0.0
3227,0.2378953482512574,0.0
3228,0.0673726222798989,0.0
3229,-0.0390432373707279,0.0
3230,0.03914116020913733,0.0
3231,0.022112259928698186,0.0
3232,0.0026514208021691486,0.0
3233,-0.019958666048652984,0.0
3234,0.02140403724779128,0.0
3235,0.05192489352563033,0.0
3236,-0.003484710747396546,0.0
3237,-0.12044167421741858,0.0
3238,-0.011208284913693797,0.0
3239,0.02911164973671214,0.0
3240,0.42994621270890004,0.0
3241,4.166436363141357,0.0
3242,6.527978238912333,0.0
3243,-1.0843684095161386,0.0
3244,-1.325266620945821,0.0
3245,1.4962064858139796,0.0
3246,-0.851930192701384,0.0
3247,0.16128259246088775,0.0
3248,0.00830779848466108,0.0
3249,-0.017930169961598456,0.0
3250,0.043119902429582455,0.0
3251,-0.041169783663089446,0.0
3252,0.10227073859613439,0.0
3253,-0.02970785733442157,0.0
3254,0.10871476545431366,0.0
3255,0.05015218014254064,0.0
3256,-0.04352875868029356,0.0
3257,0.10963522769148389,0.0
3258,0.04896225392888777,0.0
3259,0.07132270703923332,0.0
3260,0.44499090166030864,0.0
3261,4.192581818017613,0.0
3262,6.652301810531122,0.0
3263,-1.0425302347583167,0.0
3264,-1.3915544933732065,0.0
3265,1.4292200673750457,0.0
3266,-0.8198806348335373,0.0
3267,0.22055056714371202,0.0
3268,-0.02353017248447317,0.0
3269,0.017167324398353837,0.0
3270,0.10984222761921238,0.0
3271,0.023804906628838718,0.0
3272,0.017438295963298444,0.0
3273,0.03766738736999831,0.0
3274,-0.025593747588916336,0.0
3275,0.03433278535045523,0.0
3276,-0.08700835967619029,0.0
3277,-0.06177595203244264,0.0
3278,-0.06920411650139732,0.0
3279,0.04612761088412861,0.0
3280,0.3893014001333255,0.0
3281,4.085453395963131,0.0
3282,6.519614678142279,0.0
3283,-1.1647769757462973,0.0
3284,-1.465206987775754,0.0
3285,1.3965137043175062,0.0
3286,-0.7476629717591011,0.0
3287,0.1247718324118592,0.0
3288,0.012819810326005383,0.0
3289,0.037099443370502465,0.0
3290,0.06567005864306563,0.0
3291,0.05995148379184416,0.0
3292,-0.01859924512477251,0.0
3293,-0.08675148363207336,0.0
3294,0.0704391515341077,0.0
3295,0.09162143088605473,0.0
3296,0.04003118555361913,0.0
3297,0.062226863518415526,0.0
3298,0.05133471938588363,0.0
3299,-0.03728455754924772,0.0
3300,0.42337741721342903,0.0
3301,3.9687545126051846,0.0
3302,6.566200587925686,0.0
3303,-1.247391196507445,0.0
3304,-1.4393622101543118,0.0
3305,1.3520218261130303,0.0
3306,-0.8265000867684567,0.0
3307,0.2242174655441623,0.0
3308,-0.10671548579166398,0.0
3309,-0.05714001314640122,0.0
3310,-0.031899967254974,0.0
3311,-0.07975558578233606,0.0
3312,-0.066986415561343,0.0
3313,-0.03806061851961287,0.0
3314,-0.09379642245313718,0.0
3315,0.02084493527870846,0.0
3316,0.06021609615650118,0.0
3317,-0.0635190361438748,0.0
3318,-0.014948181753226951,0.0
3319,-0.002190991637152466,0.0
3320,0.42569282208897125,0.0
3321,4.095365752793483,0.0
3322,6.688324966200345,0.0
3323,-1.2581592534074315,0.0
3324,-1.3678863515922721,0.0
3325,1.3324988434256095,0.0
3326,-0.8267284298892146,0.0
3327,0.20253491771988857,0.0
3328,-0.04787019087550474,0.0
3329,-0.04188166908094233,0.0
3330,0.040148032115789586,0.0
3331,0.04929304044742156,0.0
3332,-0.10000875490252906,0.0
3333,-0.049203868578925045,0.0
3334,-0.013478266073832148,0.0
3335,-0.09893547301750691,0.0
3336,-0.002404988652178671,0.0
3337,-0.005528670783926839,0.0
3338,-0.015872193741138345,0.0
3339,0.026289666955557893,0.0
3340,0.4107179501321949,0.0
3341,4.139416658847537,0.0
3342,6.612297430571621,0.0
3343,-1.1340756864063188,0.0
3344,-1.3825303991236306,0.0
3345,1.4840296497402685,0.0
3346,-0.7766495510526151,0.0
3347,0.29945221984495146,0.0
3348,0.04118065820528067,0.0
3349,-0.024469839433093495,0.0
3350,0.08166577922290971,0.0
3351,-0.09248857480687243,0.0
3352,-0.04928781612259092,0.0
3353,-0.08272595165415378,0.0
3354,0.049672286849799685,0.0
3355,-0.04099232713282322,0.0
3356,-0.0427180981788306,0.0
3357,-0.05948210511151482,0.0
3358,-0.0748889691103298,0.0
3359,-0.061878542885944576,0.0
3360,0.3666193913880047,0.0
3361,4.158888355235756,0.0
3362,6.63608920452551,0.0
3363,-1.230340039253394,0.0
3364,-1.3959559112379865,0.0
3365,1.4023208665760953,0.0
3366,-0.7394181906760937,0.0
3367,0.15514934385746515,0.0
3368,-0.024279200737814317,0.0
3369,-0.09419009459664379,0.0
3370,-0.04722387278500462,0.0
3371,-0.12474812792457837,0.0
3372,-0.10743515713161278,0.0
3373,0.008250762898803804,0.0
3374,-0.06463637026118312,0.0
3375,0.04778528904272583,0.0
3376,-0.10483108926075527,0.0
3377,-0.027133914421775686,0.0
3378,0.03668859045581136,0.0
3379,-0.09475755974426059,0.0
3380,0.39772150087502145,0.0
3381,3.9710580832943054,0.0
3382,6.666565929942455,0.0
3383,-1.2461077655129154,0.0
3384,-1.4917447815914244,0.0
3385,1.4226588257030002,0.0
3386,-0.9400229080738652,0.0
3387,0.14592078501963107,0.0
3388,-0.028452861001285214,0.0
3389,-0.016568229269028206,0.0
3390,-0.052443034305337075,0.0
3391,0.017039817982327177,0.0
3392,-0.02776486914006869,0.0
3393,-0.018447160850921324,0.0
3394,-0.06957642666410269,0.0
3395,-0.03821998783793843,0.0
3396,0.02750863845839045,0.0
3397,-0.06479263021741795,0.0
3398,0.046418232306726016,0.0
3399,-0.026118771991432366,0.0
3400,0.37837580749114097,0.0
3401,4.080885821797443,0.0
3402,6.567670622384374,0.0
3403,-1.1485584855606719,0.0
3404,-1.4024361525285258,0.0
3405,1.4792112499920065,0.0
3406,-0.7827287644383417,0.0
3407,0.32949796395404685,0.0
3408,-0.03148131120962317,0.0
3409,0.019573016822850495,0.0
3410,-0.02014279003716376,0.0
3411,0.08445717650191881,0.0
3412,0.125062454481436,0.0
3413,0.022858040281227822,0.0
3414,-0.03837675569932496,0.0
3415,0.13529479348911394,0.0
3416,0.15397105955281595,0.0
3417,0.03479864363682704,0.0
3418,0.09539920445314252,0.0
3419,0.08220504973167186,0.0
3420,0.5388650886608681,0.0
3421,4.1901605932881925,0.0
3422,6.5443165082384045,0.0
3423,-1.0775221223686777,0.0
3424,-1.3130714955521992,0.0
3425,1.433264456507406,0.0
3426,-0.7865768921036195,0.0
3427,0.30169115138135544,0.0
3428,-0.044687076261270275,0.0
3429,0.031175150065972528,0.0
3430,0.056103698027523775,0.0
3431,0.04792384378858479,0.0
3432,-0.0397710335384549,0.0
3433,-0.06434703088201149,0.0
3434,0.011697958253457204,0.0
3435,-0.027313974504409113,0.0
3436,-0.003456079458548325,0.0
3437,0.02305133447781353,0.0
3438,0.029317681116117895,0.0
3439,0.05345662211552757,0.0
3440,0.5242001465550821,0.0
3441,4.177501521165778,0.0
3442,6.576173207567168,0.0
3443,-1.0786111548646735,0.0
3444,-1.362470642921193,0.0
3445,1.44274330616567,0.0
3446,-0.729228457901546,0.0
3447,0.25501476708390824,0.0
3448,0.04100492765854822,0.0
3449,-0.01656734835551152,0.0
3450,0.10635062996131642,0.0
3451,0.10151070184979058,0.0
3452,0.09113169298307633,0.0
3453,0.07511062343697136,0.0
3454,0.10634848060762173,0.0
3455,0.04276534854862092,0.0
3456,0.08590491330791326,0.0
3457,0.16701197304072282,0.0
3458,0.06633330271258807,0.0
3459,0.04841717983423879,0.0
3460,0.46535219505828,0.0
3461,4.1796509733372025,0.0
3462,6.573775024767564,0.0
3463,-1.175948497202967,0.0
3464,-1.4408173718300137,0.0
3465,1.4497547692698705,0.0
3466,-0.7189997851737657,0.0
3467,0.2249795444179238,0.0
3468,0.030858816893939097,0.0
3469,-0.0019203508310981533,0.0
3470,0.06559002077246978,0.0
3471,-0.021284140448529425,0.0
3472,-0.0809639456215763,0.0
3473,0.025821154735604035,0.0
3474,-0.04823137133069935,0.0
3475,0.02572952582391115,0.0
3476,-0.01838664008283395,0.0
3477,0.03466367320195089,0.0
3478,0.06698939157756621,0.0
3479,0.0493335040402943,0.0
3480,0.5161465723513141,0.0
3481,4.198904277622414,0.0
3482,6.667635423993026,0.0
3483,-1.1957431681847153,0.0
3484,-1.3008301104674393,0.0
3485,1.4776560918243973,0.0
3486,-0.654220380202948,0.0
3487,0.3972853764417048,0.0
3488,0.03177441601850184,0.0
3489,0.035693202972242356,0.0
3490,0.011967262501096004,0.0
3491,0.08457048908634807,0.0
3492,-0.05347485030914124,0.0
3493,0.06232133954636689,0.0
3494,0.07616927300188286,0.0
3495,0.06740997360299666,0.0
3496,0.09693590042677039,0.0
3497,0.11429655083918094,0.0
3498,0.047204160690080016,0.0
3499,0.13861193668355998,0.0
3500,0.5250744249112221,0.0
3501,4.197909732885948,0.0
3502,6.709442551759228,0.0
3503,-1.0708855049637511,0.0
3504,-1.2502851791132656,0.0
3505,1.5851839541834634,0.0
3506,-0.6971656765670537,0.0
3507,0.3227870630554076,0.0
3508,0.0353171619172903,0.0
3509,-0.0352549234774234,0.0
3510,0.057597742391528206,0.0
3511,0.04960347859468996,0.0
3512,0.13667871163988837,0.0
3513,0.12926399189566096,0.0
3514,0.05213909763057961,0.0
3515,0.03642430793925385,0.0
3516,0.062259355344378695,0.0
3517,0.05146852468075361,0.0
3518,0.005008178660355064,0.0
3519,0.11773470415690962,0.0
3520,0.5300715623130059,0.0
3521,4.111153709404248,0.0
3522,6.626730788695782,0.0
3523,-1.0463421833772455,0.0
3524,-1.3158662707373403,0.0
3525,1.5184073683393886,0.0
3526,-0.6864025063403856,0.0
3527,0.27900235850655025,0.0
3528,0.041555597225450824,0.0
3529,0.08794033420830757,0.0
3530,0.07174149474600006,0.0
3531,0.1324786355393496,0.0
3532,0.1839068873335204,0.0
3533,0.12424198280481383,0.0
3534,0.10269660342783364,0.0
3535,0.10752187684269461,0.0
3536,0.1554302590302205,0.0
3537,0.1852676841500725,0.0
3538,0.08815210759601248,0.0
3539,0.1127907909927414,0.0
3540,0.47017298661697454,0.0
3541,4.281232736743236,0.0
3542,6.799221081284677,0.0
3543,-1.0703778837339444,0.0
3544,-1.309144846574208,0.0
3545,1.491891558865945,0.0
3546,-0.7341097089601376,0.0
3547,0.30445173096679823,0.0
3548,0.11598295242715431,0.0
3549,0.11881901864066019,0.0
3550,0.030632864267343872,0.0
3551,-0.01203238859149551,0.0
3552,0.003130349684282066,0.0
3553,-0.0031749328173309374,0.0
3554,0.010871204244819313,0.0
3555,0.024228871934543247,0.0
3556,0.05625337899547703,0.0
3557,0.13446250088043077,0.0
3558,0.1191008991524764,0.0
3559,0.05988112647892439,0.0
3560,0.46554918375318677,0.0
3561,4.226204729350145,0.0
3562,6.592259739992168,0.0
3563,-1.0953409462871933,0.0
3564,-1.2597144631495714,0.0
3565,1.4546658612623091,0.0
3566,-0.6914671528492274,0.0
3567,0.31415501652783046,0.0
3568,0.0865030535362064,0.0
3569,0.10302573742362059,0.0
3570,0.10310451757884778,0.0
3571,0.07753442050059008,0.0
3572,-0.013760379992115226,0.0
3573,0.09540568877517622,0.0
3574,0.0075225221549124754,0.0
3575,0.14119957534214786,0.0
3576,0.12325919233999545,0.0
3577,0.028935072520231656,0.0
3578,0.03911954280476085,0.0
3579,0.05390436806264457,0.0
3580,0.3805271480408466,0.0
3581,4.297215064637311,0.0
3582,6.505108846459084,0.0
3583,-1.091180896544498,0.0
3584,-1.2963907910584356,0.0
3585,1.5959208830951266,0.0
3586,-0.778598640042856,0.0
3587,0.2915002884447091,0.0
3588,0.05024460077206827,0.0
3589,0.0645367297098188,0.0
3590,0.09885852834080693,0.0
3591,0.10310725147679325,0.0
3592,0.06565412848691558,0.0
3593,0.06794485141499837,0.0
3594,0.06960489285096769,0.0
3595,0.08941880939637731,0.0
3596,0.09783831456403133,0.0
3597,-0.04208607712155992,0.0
3598,-0.005376383368497703,0.0
3599,0.03273074886283077,0.0
3600,0.4185129712916609,0.0
3601,4.130325740180745,0.0
3602,6.672768089269943,0.0
3603,-1.183369377656047,0.0
3604,-1.3079064460669299,0.0
3605,1.4672917029041133,0.0
3606,-0.666626532590749,0.0
3607,0.21241567328771352,0.0
3608,-0.012123117656980698,0.0
3609,-0.04050944466705134,0.0
3610,0.028539027046250644,0.0
3611,0.0508623546661024,0.0
3612,0.08650754344635347,0.0
3613,0.10285307057523102,0.0
3614,0.02831410579943463,0.0
3615,0.09492017550081695,0.0
3616,0.10132658869604147,0.0
3617,0.06907148579511721,0.0
3618,-0.000514360847490597,0.0
3619,-0.01657903386966287,0.0
3620,0.4245846623787867,0.0
3621,4.080219987573896,0.0
3622,6.570496555657526,0.0
3623,-1.1739473152435782,0.0
3624,-1.2899175724587588,0.0
3625,1.4174803618991385,0.0
3626,-0.7683448434185233,0.0
3627,0.2900651451349392,0.0
3628,0.06496618723209238,0.0
3629,0.03671492837052171,0.0
3630,0.13410250728175235,0.0
3631,-0.0020438165220667756,0.0
3632,-0.025538464420867733,0.0
3633,0.0031021653051580937,0.0
3634,0.09261699540455726,0.0
3635,-0.044962487484416634,0.0
3636,0.05442039877986046,0.0
3637,0.0006664964049685404,0.0
3638,0.060614307115008786,0.0
3639,0.04627839639489051,0.0
3640,0.5039234586297623,0.0
3641,4.173867615091796,0.0
3642,6.623258711001991,0.0
3643,-1.217264489309291,0.0
3644,-1.2956108371851505,0.0
3645,1.4621707854511576,0.0
3646,-0.7457184531266036,0.0
3647,0.2200412329309496,0.0
3648,0.08491011086391954,0.0
3649,-0.08857977939196543,0.0
3650,0.07451123072321642,0.0
3651,0.022410060879446206,0.0
3652,0.12362670915321117,0.0
3653,0.03622077854630432,0.0
3654,0.06738982496760347,0.0
3655,0.02222338809416708,0.0
3656,-0.003857160884355025,0.0
3657,0.039228501733382805,0.0
3658,0.08537801452202895,0.0
3659,0.021295864779922194,0.0
3660,0.425415324502964,0.0
3661,4.2021790935959435,0.0
3662,6.616226388189866,0.0
3663,-1.2266765027099893,0.0
3664,-1.3401433411798254,0.0
3665,1.3871446769863383,0.0
3666,-0.7730678078301214,0.0
3667,0.2659049322482764,0.0
3668,-0.029226147881287065,0.0
3669,0.009764243962234423,0.0
3670,-0.07570421800330789,0.0
3671,-0.16409117008534624,0.0
3672,0.005600186692492298,0.0
3673,-0.02015546432645625,0.0
3674,-0.005974434788918315,0.0
3675,0.06441567176969229,0.0
3676,0.020035413842148842,0.0
3677,0.050892695193109225,0.0
3678,0.014318571978532897,0.0
3679,0.08691047469148039,0.0
3680,0.4650158335333058,0.0
3681,4.251136095367725,0.0
3682,6.626347621149366,0.0
3683,-1.2239307386743525,0.0
3684,-1.2965454927243067,0.0
3685,1.3355223583996256,0.0
3686,-0.7912630696344671,0.0
3687,0.37353055391665363,0.0
3688,0.04510842940966443,0.0
3689,-0.07907063713783945,0.0
3690,0.10172975431868868,0.0
3691,0.07815053877974472,0.0
3692,0.08539393791687061,0.0
3693,0.06498728512980448,0.0
3694,0.058720235649265935,0.0
3695,0.1014685223553329,0.0
3696,0.015319827504630363,0.0
3697,-0.002263505705686902,0.0
3698,0.07797675529584543,0.0
3699,0.018795560108408136,0.0
3700,0.427723959373117,0.0
3701,4.281853246116687,0.0
3702,6.586954912463129,0.0
3703,-1.262011529549443,0.0
3704,-1.3078536197283812,0.0
3705,1.4214888601283031,0.0
3706,-0.8686780606493922,0.0
3707,0.1989373601361925,0.0
3708,-0.12926329296590577,0.0
3709,-0.055540433045399094,0.0
3710,0.009197477943802946,0.0
3711,-0.019867289291291723,0.0
3712,-0.05794617101089991,0.0
3713,-0.026454203925982876,0.0
3714,-0.06703279371639122,0.0
3715,-0.05153231434231829,0.0
3716,-0.02501753718678859,0.0
3717,0.028523680173473016,0.0
3718,-0.02634070672867393,0.0
3719,0.07804102336713753,0.0
3720,0.3720748968257055,0.0
3721,4.11182518584292,0.0
3722,6.58010123653307,0.0
3723,-1.232365480398369,0.0
3724,-1.3074509938330192,0.0
3725,1.3592631156846307,0.0
3726,-0.7320957821923256,0.0
3727,0.2604108930692559,0.0
3728,0.04502362037420088,0.0
3729,0.04991148878122676,0.0
3730,0.014331562263960944,0.0
3731,-0.05056162988731068,0.0
3732,0.05655096364152725,0.0
3733,-0.06818130015023471,0.0
3734,0.021316723205134364,0.0
3735,-0.0279740105031221,0.0
3736,-0.007965604507553792,0.0
3737,0.04607238949652577,0.0
3738,-0.04984695563658549,0.0
3739,-0.026252047191734636,0.0
3740,0.48663173672318494,0.0
3741,4.187420972625987,0.0
3742,6.4457559046751465,0.0
3743,-1.3704434011147528,0.0
3744,-1.338426305204231,0.0
3745,1.4379320134684783,0.0
3746,-0.8331379913778931,0.0
3747,0.24014339264299733,0.0
3748,-0.05559140884713723,0.0
3749,-0.07404963738706305,0.0
3750,-0.004303714299324965,0.0
3751,-0.053240133922179536,0.0
3752,0.010406712112558652,0.0
3753,-0.0383901148866983,0.0
3754,0.08131323939843485,0.0
3755,-0.06420182722024745,0.0
3756,-0.0072304130829815225,0.0
3757,0.004912248348435648,0.0
3758,-0.10654793259162369,0.0
3759,-0.05303280242871761,0.0
3760,0.45374618442193376,0.0
3761,4.170210195885876,0.0
3762,6.449508216601546,0.0
3763,-1.14142117304871,0.0
3764,-1.339071335998046,0.0
3765,1.3876426529791892,0.0
3766,-0.7684179832571361,0.0
3767,0.19746352980604687,0.0
3768,0.007378733807135053,0.0
3769,-0.10050438316049395,0.0
3770,-0.07557914455429605,0.0
3771,0.014615724171745361,0.0
3772,0.038633871800807185,0.0
3773,0.03514876586204763,0.0
3774,0.04509243274129373,0.0
3775,0.13022976673630746,0.0
3776,0.059881758011030795,0.0
3777,-0.014552468089438688,0.0
3778,0.13047036063948925,0.0
3779,0.013552623699064273,0.0
3780,0.4420523749977829,0.0
3781,4.151883946993616,0.0
3782,6.4925980533128635,0.0
3783,-1.3138792306360456,0.0
3784,-1.3362379251475265,0.0
3785,1.4454051284175167,0.0
3786,-0.8528796140505873,0.0
3787,0.12148769347054661,0.0
3788,0.0063559576999212275,0.0
3789,-0.03511001727073878,0.0
3790,-0.0041883020958290735,0.0
3791,-0.054826708402309465,0.0
3792,0.012464038298809762,0.0
3793,-0.12516581151851486,0.0
3794,-0.009470485511478853,0.0
3795,-0.012319306562668155,0.0
3796,-0.03369022617811265,0.0
3797,0.0026264774648878456,0.0
3798,-0.004580165633545158,0.0
3799,0.06110081618760366,0.0
3800,0.3492395095678846,0.0
3801,4.240053591403104,0.0
3802,6.498915132542012,0.0
3803,-1.2326132959316114,0.0
3804,-1.3133520215848777,0.0
3805,1.3290393398698175,0.0
3806,-0.8651746725292957,0.0
3807,0.18555515430725653,0.0
3808,-0.15227492330309428,0.0
3809,-0.06286592675773178,0.0
3810,-0.09672807377667002,0.0
3811,-0.0718368706619363,0.0
3812,-0.09173900621340123,0.0
3813,-0.07927663280685857,0.0
3814,-0.11748736296149126,0.0
3815,-0.08574714278407637,0.0
3816,-0.027056571765591418,0.0
3817,-0.1230149787493286,0.0
3818,-0.10442348423501607,0.0
3819,-0.0805259373279561,0.0
3820,0.40379704784432013,0.0
3821,4.133394124883502,0.0
3822,6.476977397262161,0.0
3823,-1.3565090522485859,0.0
3824,-1.3998860763855796,0.0
3825,1.3251013687745776,0.0
3826,-0.9450548440886035,0.0
3827,0.11368462644099378,0.0
3828,-0.16771518521083165,0.0
3829,-0.08917165421948854,0.0
3830,-0.04980802699943654,0.0
3831,-0.0440275560386633,0.0
3832,0.021648488395055124,0.0
3833,-0.07844321696324523,0.0
3834,-0.0802305483655717,0.0
3835,-0.03917851673964293,0.0
3836,-0.031182320649223338,0.0
3837,0.006181740604433772,0.0
3838,-0.0020727527705977217,0.0
3839,-0.1351813863074983,0.0
3840,0.39147660229738196,0.0
3841,4.183720115168915,0.0
3842,6.458858072790822,0.0
3843,-1.3015513353933508,0.0
3844,-1.3751948172541544,0.0
3845,1.3989284369771597,0.0
3846,-0.8970251520499133,0.0
3847,0.234827837081448,0.0
3848,-0.1188211991047142,0.0
3849,-0.07873576305956695,0.0
3850,0.05710452537623174,0.0
3851,-0.1397908556249932,0.0
3852,-0.0399763805386512,0.0
3853,-0.009641408125398127,0.0
3854,-0.025598671826397218,0.0
3855,0.017269631542326372,0.0
3856,-0.0313141809393925,0.0
3857,-0.10728987970651697,0.0
3858,-0.026215337009871123,0.0
3859,0.012714901856973021,0.0
3860,0.4278906120718664,0.0
3861,4.127915280333544,0.0
3862,6.4807756924937445,0.0
3863,-1.3545121153514863,0.0
3864,-1.2864640904005504,0.0
3865,1.4062180998484552,0.0
3866,-0.8264226676953572,0.0
3867,0.1720534610596131,0.0
3868,0.0016015435969514644,0.0
3869,0.04139656666033431,0.0
3870,-0.05910061307330507,0.0
3871,0.03592270561129951,0.0
3872,0.010225597786687385,0.0
3873,-0.04664272369357521,0.0
3874,-0.007342235526424337,0.0
3875,-0.0213086857232251,0.0
3876,-0.04090257341175667,0.0
3877,0.012071567021214515,0.0
3878,-0.07797556630126723,0.0
3879,-0.06884213709452507,0.0
3880,0.5496463330320864,0.0
3881,4.2930977955637974,0.0
3882,6.501434619618086,0.0
3883,-1.3382377670699432,0.0
3884,-1.3049700317664725,0.0
3885,1.3656848872934007,0.0
3886,-0.9107399977151929,0.0
3887,0.23050805207205494,0.0
3888,-0.043294619468862754,0.0
3889,-0.09688863405347747,0.0
3890,-0.06500998585320386,0.0
3891,-0.04043504036439043,0.0
3892,-0.12288338287741596,0.0
3893,-0.03959915640312442,0.0
3894,-0.025386873274996988,0.0
3895,-0.017588965723042357,0.0
3896,-0.01455450772839166,0.0
3897,-0.009861160760592742,0.0
3898,0.09481988163930286,0.0
3899,-0.05638593219951525,0.0
3900,0.43292171465793805,0.0
3901,4.115394058682546,0.0
3902,6.414452472190561,0.0
3903,-1.2754976262769906,0.0
3904,-1.2954689299973443,0.0
3905,1.4082132185089051,0.0
3906,-0.8110761815189775,0.0
3907,0.24260579418389389,0.0
3908,-0.09349138013418888,0.0
3909,-0.06086467592461823,0.0
3910,0.10607449259783491,0.0
3911,-0.03132601727325267,0.0
3912,-0.03912911126233583,0.0
3913,0.03127993426033284,0.0
3914,-0.013719038452149451,0.0
3915,-0.07929870461597623,0.0
3916,-0.015120156881447066,0.0
3917,-0.0722306895276496,0.0
3918,-0.06991482383580672,0.0
3919,0.026044135020261074,0.0
3920,0.4248542718594951,0.0
3921,4.163673911790616,0.0
3922,6.462430143467965,0.0
3923,-1.2927901184603816,0.0
3924,-1.391634588989386,0.0
3925,1.3950581457398796,0.0
3926,-0.7944808348381127,0.0
3927,0.1663842842571063,0.0
3928,-0.0849700146497642,0.0
3929,-0.09193297448034134,0.0
3930,0.02872001441335323,0.0
3931,-0.05942040134223399,0.0
3932,-0.007409619956889983,0.0
3933,-0.10483195446796122,0.0
3934,0.008500437610952205,0.0
3935,-0.10600315808796737,0.0
3936,-0.03253411739519119,0.0
3937,-0.025654110905639627,0.0
3938,-0.08089005893798452,0.0
3939,-0.09064708489936578,0.0
3940,0.36597386654239905,0.0
3941,4.0896548712843455,0.0
3942,6.35629940692114,0.0
3943,-1.4423699548298976,0.0
3944,-1.3870273452404276,0.0
3945,1.2101570539008661,0.0
3946,-0.8925319274899998,0.0
3947,0.14529633834542036,0.0
3948,-0.10986190607890514,0.0
3949,-0.14569656403074321,0.0
3950,-0.09002406004152298,0.0
3951,-0.0880646854924403,0.0
3952,0.034118001473925,0.0
3953,-0.07405906912544975,0.0
3954,-0.02603890969289449,0.0
3955,-0.0073769791063919565,0.0
3956,-0.02966766746158247,0.0
3957,-0.020358159500492218,0.0
3958,0.010307509438627793,0.0
3959,-0.020520010567293457,0.0
3960,0.3027247312551367,0.0
3961,4.180927902027407,0.0
3962,6.558568147681168,0.0
3963,-1.4257442656605552,0.0
3964,-1.3634455307834092,0.0
3965,1.4227237202364311,0.0
3966,-0.804966353727375,0.0
3967,0.2377942634892881,0.0
3968,-0.1274843245348607,0.0
3969,-0.05124100128118583,0.0
3970,-0.008479894152445433,0.0
3971,-0.07977896640319694,0.0
3972,-0.02662881817204618,0.0
3973,-0.06463765084681854,0.0
3974,-0.09391835864511347,0.0
3975,-0.018612984734824495,0.0
3976,-0.037547370430699264,0.0
3977,-0.017062485674697453,0.0
3978,0.020143853876619235,0.0
3979,-0.038719667377652575,0.0
3980,0.4027813316861928,0.0
3981,4.150359634876218,0.0
3982,6.567826097324828,0.0
3983,-1.2942593372378044,0.0
3984,-1.2788070856213252,0.0
3985,1.4302048993408696,0.0
3986,-0.7850927550403866,0.0
3987,0.22660700228201314,0.0
3988,0.012413728594972685,0.0
3989,0.009938041192350696,0.0
3990,0.03802246421066305,0.0
3991,-0.08367788507730524,0.0
3992,0.0756836846649801,0.0
3993,-0.04351699683638979,0.0
3994,-0.028158720142810796,0.0
3995,-0.08863777130852822,0.0
3996,-0.02169671526227569,0.0
3997,-0.02349668468765592,0.0
3998,-0.09109210702312424,0.0
3999,-0.054402975874364316,0.0
4000,0.3768807030716066,0.0
4001,4.189731877573264,0.0
4002,6.43562933456335,0.0
4003,-1.498912988808558,0.0
4004,-1.3057210434784816,0.0
4005,1.311434483961223,0.0
4006,-0.8222769928700498,0.0
4007,0.17574431916953323,0.0
4008,-0.08259286341634499,0.0
4009,-0.08989437845710888,0.0
4010,-0.010326237647747694,0.0
4011,0.024087730979895257,0.0
4012,-0.08961874721851334,0.0
4013,-0.10230205812965008,0.0
4014,-0.056394423405141364,0.0
4015,-0.05255788098445222,0.0
4016,-0.07411644059724762,0.0
4017,-0.06838440392869187,0.0
4018,-0.11581449658058457,0.0
4019,-0.10896386630917423,0.0
4020,0.4911426160667422,0.0
4021,4.055008945600491,0.0
4022,6.404519637366188,0.0
4023,-1.4248868532540342,0.0
4024,-1.3094294414725278,0.0
4025,1.3711065875895299,0.0
4026,-0.7334519585505639,0.0
4027,0.2008648436543665,0.0
4028,-0.1362406046614182,0.0
4029,-0.11007669955915259,0.0
4030,-0.02118780732006159,0.0
4031,-0.09844403842099098,0.0
4032,-0.06144284547908154,0.0
4033,-0.07747924443389634,0.0
4034,-0.10942673738052622,0.0
4035,-0.12179953224282207,0.0
4036,-0.18958247020024846,0.0
4037,-0.02932625370373499,0.0
4038,-0.19076374315353697,0.0
4039,0.036228982995188064,0.0
4040,0.4606582656125041,0.0
4041,4.203224051100988,0.0
4042,6.463410666834565,0.0
4043,-1.3281112931742682,0.0
4044,-1.330536058405455,0.0
4045,1.2488688871532887,0.0
4046,-0.8783706372657443,0.0
4047,0.08355164995781708,0.0
4048,-0.1824185160679403,0.0
4049,-0.14433069123154657,0.0
4050,-0.006051095752960686,0.0
4051,-0.0758770978787496,0.0
4052,-0.08013225362735135,0.0
4053,-0.046574713086181975,0.0
4054,-0.0105269561191004,0.0
4055,-0.07377407468741634,0.0
4056,-0.10918550146762436,0.0
4057,-0.08923500636345538,0.0
4058,-0.048196965407258034,0.0
4059,-0.04457854297560862,0.0
4060,0.40639760785601897,0.0
4061,4.1068841880365925,0.0
4062,6.373771894643883,0.0
4063,-1.5010615756372518,0.0
4064,-1.4533849310672182,0.0
4065,1.2457652215716588,0.0
4066,-0.8511618867778348,0.0
4067,0.10459364102944055,0.0
4068,-0.04400836446033511,0.0
4069,-0.18039281233597987,0.0
4070,-0.15784943650681826,0.0
4071,-0.07534583208178183,0.0
4072,-0.13481628625833875,0.0
4073,-0.03254669236877118,0.0
4074,-0.01407457574220776,0.0
4075,-0.1489062392021811,0.0
4076,-0.13287690576119493,0.0
4077,-0.1572455468265743,0.0
4078,-0.10420981641335558,0.0
4079,-0.1354800934349878,0.0
4080,0.23002078810007398,0.0
4081,4.107820807818654,0.0
4082,6.430928037120603,0.0
4083,-1.450256916108016,0.0
4084,-1.3918309163145193,0.0
4085,1.2443345151484702,0.0
4086,-0.970005822614255,0.0
4087,0.06008909104348176,0.0
4088,-0.1538832054389271,0.0
4089,-0.19595202094619799,0.0
4090,-0.06154193910032665,0.0
4091,-0.046359857666076476,0.0
4092,-0.040904607554187476,0.0
4093,0.004481596042470518,0.0
4094,-0.006638458575956199,0.0
4095,-0.0097082333203109,0.0
4096,-0.13522983210428846,0.0
4097,-0.08682805478647773,0.0
4098,-0.09667862984878209,0.0
4099,-0.0644076675213106,0.0
4100,0.4119838828542522,0.0
4101,4.117812999035532,0.0
4102,6.395160261533532,0.0
4103,-1.2702959099465763,0.0
4104,-1.361735462330313,0.0
4105,1.330894613816898,0.0
4106,-0.9014769377191498,0.0
4107,0.17817114056873673,0.0
4108,-0.062279359922784716,0.0
4109,-0.0007838081110321804,0.0
4110,0.0008499171922082896,0.0
4111,-0.05465004281341315,0.0
4112,-0.02698044959097499,0.0
4113,-0.08179853923663667,0.0
4114,-0.06120140632993951,0.0
4115,-0.09006303995332327,0.0
4116,-0.10193314706315726,0.0
4117,-0.02985614995077923,0.0
4118,-0.03389209196928033,0.0
4119,-0.07649484877743402,0.0
4120,0.3798910148766499,0.0
4121,4.125112784777469,0.0
4122,6.392071390674265,0.0
4123,-1.457794250039073,0.0
4124,-1.3241104227182647,0.0
4125,1.3845075866453387,0.0
4126,-0.8424980037529867,0.0
4127,0.14817621358305705,0.0
4128,-0.10408531413709782,0.0
4129,-0.14852136040677819,0.0
4130,-0.0382112911434999,0.0
4131,-0.06915198220822204,0.0
4132,-0.027611705624321893,0.0
4133,0.004376672901347675,0.0
4134,-0.053935424980204184,0.0
4135,-0.011890981716907445,0.0
4136,-0.11503460263119289,0.0
4137,-0.08428360477106397,0.0
4138,-0.09692192871124294,0.0
4139,0.00955276471166882,0.0
4140,0.41018628811946567,0.0
4141,4.135941433283262,0.0
