timestamp,value-0,is_anomaly
0,0.27764695678554924,0
1,3.4835243031973753,0
2,6.8742784379173445,0
3,-0.2513543975784884,0
4,-1.9587851732748607,0
5,1.5271118322317851,0
6,-0.6956579525536504,0
7,0.03151170119393021,0
8,-0.02614887127249496,0
9,-0.05882005600243619,0
10,0.08534938456640988,0
11,-0.03261449017274723,0
12,0.01575270559847362,0
13,0.07012563625946469,0
14,0.10176306060681484,0
15,0.08015635764970455,0
16,0.06183964688698484,0
17,-0.0031989143315116694,0
18,-0.030385199079748505,0
19,0.10262263214798471,0
20,0.2701308153844454,0
21,3.474256045550274,0
22,6.855562438635499,0
23,-0.22534974646262235,0
24,-1.9472238269625857,0
25,1.5862421193835976,0
26,-0.7362082393296445,0
27,0.11118800362133638,0
28,0.003963102001770719,0
29,-0.05664315353262234,0
30,0.025086043048700074,0
31,0.06911602718836868,0
32,0.07509143626626869,0
33,-0.021229592730856128,0
34,0.03433110375693258,0
35,0.008382367041230304,0
36,-0.03779131193702805,0
37,-0.0020816469464437094,0
38,-0.06577814079437386,0
39,0.06351491276298735,0
40,0.24419392244452554,0
41,3.460918309042395,0
42,6.826767632799911,0
43,-0.3855536655751007,0
44,-1.9134580668863366,0
45,1.600403015844084,0
46,-0.6517779871346188,0
47,0.1164893496486919,0
48,-0.035409208757896785,0
49,-0.062228889993496427,0
50,0.045679550665365366,0
51,-0.07121732883351281,0
52,-0.06154537013837294,0
53,0.046851775835432076,0
54,0.0382850242914737,0
55,0.0032035562451129575,0
56,-0.03189501404025941,0
57,-0.06056774187914961,0
58,0.021468142114827116,0
59,-0.025785389268336248,0
60,0.24460439652601187,0
61,3.4836692743242175,0
62,6.8133681490853455,0
63,-0.2417324869295504,0
64,-1.9486273455097876,0
65,1.5908440566197493,0
66,-0.7263173677785915,0
67,0.14923478454023367,0
68,0.0727407491598096,0
69,-0.03254362262903755,0
70,0.028154280235557213,0
71,-0.04115051448489171,0
72,0.07460527895560826,0
73,-0.04219421429669103,0
74,-0.04139181867398762,0
75,0.09794805086698026,0
76,-0.03303444686622276,0
77,0.0040260806184147235,0
78,0.05173275281616994,0
79,0.041035165499126815,0
80,0.3331025966138176,0
81,3.5260607690374197,0
82,6.8976399258138335,0
83,-0.18980517331203633,0
84,-1.9377156119917351,0
85,1.6080780852057333,0
86,-0.6640689027177779,0
87,0.06440705389006678,0
88,0.002101846752705529,0
89,-0.12152145744690052,0
90,0.05048921127510807,0
91,-0.046089964079631084,0
92,0.03548990539458041,0
93,-0.0036691814237381024,0
94,-0.02786717812953285,0
95,-0.06261696253410179,0
96,-0.02549878808194058,0
97,0.04782733664839563,0
98,0.03227001891876201,0
99,-0.043307463689302717,0
100,0.20316540661138976,0
101,3.5117113366399697,0
102,6.887653559843839,0
103,-0.19858542924035005,0
104,-1.9014020745584597,0
105,1.5336748513816376,0
106,-0.7418974661331786,0
107,0.2293417666398296,0
108,0.11937363915843877,0
109,-0.07619916371759737,0
110,0.11817330221908681,0
111,-0.05391846822429207,0
112,-0.047837476937257026,0
113,0.0383996000819679,0
114,-0.05352203595810305,0
115,0.02207475565399338,0
116,-0.0016093539531846935,0
117,0.055062326568343006,0
118,-0.03489185001772836,0
119,-0.019042152641881988,0
120,0.19310013734309434,0
121,3.501869469612863,0
122,6.922363347568882,0
123,-0.22651857277638082,0
124,-1.9877433023585944,0
125,1.5757090650214007,0
126,-0.7123863103525706,0
127,0.1830767039388375,0
128,0.053772608720159105,0
129,-0.005857660930764411,0
130,0.01947271458888622,0
131,-0.04307005000791446,0
132,0.025865979973110687,0
133,-0.046556475406758044,0
134,-0.04049776278794281,0
135,0.005497493441511108,0
136,-0.07794362583485615,0
137,0.009635869749908375,0
138,0.08590821160467042,0
139,0.06906747037266546,0
140,0.2819349146160056,0
141,3.507230522076116,0
142,6.904915685562211,0
143,-0.22737703445306984,0
144,-1.9415295350579198,0
145,1.3898156616842046,0
146,-0.7381227542157556,0
147,0.1298574420444508,0
148,0.07177864168624004,0
149,-0.06416086808601683,0
150,-0.06878119669117552,0
151,-0.007376019200518608,0
152,-0.01016901043366723,0
153,-0.01054782412177632,0
154,0.058261217742948124,0
155,-0.041647499829368204,0
156,-0.012209046504796294,0
157,0.04653899299426134,0
158,-0.06654005123602652,0
159,-0.09781193424705473,0
160,0.29242050568668454,0
161,3.559203223801548,0
162,6.888631565088516,0
163,-0.25069734011721273,0
164,-1.9829765949625529,0
165,1.5035998231137342,0
166,-0.7175326535509912,0
167,0.0372506905808123,0
168,-0.05431267372982422,0
169,-0.14679282976725844,0
170,-0.01634678463814796,0
171,-0.06891915200498887,0
172,-0.06113965034897143,0
173,0.006466239250817123,0
174,-0.10007181776823648,0
175,-0.0732694868384118,0
176,-0.09865586771672663,0
177,-0.17570104094065042,0
178,0.028513906715961934,0
179,-0.03212853330674151,0
180,0.2925072391881719,0
181,3.5418288269218516,0
182,6.897186310076776,0
183,-0.2903892468113896,0
184,-1.8956993209955322,0
185,1.5676941329603855,0
186,-0.7478506031744406,0
187,0.20772478142656517,0
188,-0.02477779173219617,0
189,-0.028764995289296984,0
190,-0.047832253362732335,0
191,-0.04132319904597373,0
192,-0.03553294335676409,0
193,0.031834320506659644,0
194,-0.06302876200841909,0
195,-0.047156666864051,0
196,0.07576782395107726,0
197,-0.024750250715078546,0
198,0.049662187295914345,0
199,-0.05339070203971423,0
200,0.2534750978742357,0
201,3.517195821413896,0
202,6.905919043639202,0
203,-0.285905172473522,0
204,-1.853386291743328,0
205,1.5124245938406353,0
206,-0.7214997657763202,0
207,0.1317902520046271,0
208,-0.0011165066921816004,0
209,-0.10248408683763802,0
210,-0.05863414723956472,0
211,0.046601612982178485,0
212,-0.07485350927412292,0
213,-0.03510477606470602,0
214,-0.08479138635920827,0
215,-0.0534366579025988,0
216,-0.06789395466595213,0
217,-0.027802332346927014,0
218,0.03056764526670764,0
219,0.020007659157031614,0
220,0.2852197044374854,0
221,3.6120827490035445,0
222,6.854608863458973,0
223,-0.35379201058378423,0
224,-1.8564944061345339,0
225,1.554026962192098,0
226,-0.7923253232533196,0
227,0.12875473151944974,0
228,0.014031069355794425,0
229,-0.08426815006193353,0
230,-0.09395816333323502,0
231,-0.06572452885054297,0
232,-0.0793298898279051,0
233,-0.03261101339821468,0
234,-0.015797283116078004,0
235,0.04429260397639016,0
236,0.0015873844992300434,0
237,-0.07301726806243647,0
238,-0.007096904970044093,0
239,0.05600923901828521,0
240,0.24230551218964977,0
241,3.5368186532532624,0
242,6.882870964688572,0
243,-0.2972018552861055,0
244,-1.9463123412998231,0
245,1.5535312388812517,0
246,-0.7345703278687817,0
247,0.19048919598468173,0
248,0.13232482933421688,0
249,-0.07366055224248849,0
250,0.05161671938174399,0
251,-0.024131804210107376,0
252,0.055710823249053874,0
253,0.03749478848395934,0
254,-0.04731809956949614,0
255,-0.015925865091716465,0
256,-0.019004387535086556,0
257,-0.027895113991604933,0
258,0.05351666754765228,0
259,-0.008478540698817663,0
260,0.21634078457462236,0
261,3.433732032426584,0
262,6.872456906622034,0
263,-0.38139939221596897,0
264,-1.90917707930003,0
265,1.5378548847214724,0
266,-0.7614064120271824,0
267,0.1037463965554058,0
268,0.012219616269486974,0
269,-0.019329143752673465,0
270,0.011498525147027776,0
271,-0.03797113559327041,0
272,-0.0018782905150694536,0
273,-0.025651400267880622,0
274,0.09137442424317747,0
275,0.00717598131537011,0
276,0.0032021598480565794,0
277,0.012736263009083173,0
278,0.020078462306777276,0
279,0.008583412239270366,0
280,0.2703960174163834,0
281,3.462743738405172,0
282,6.903444764524883,0
283,-0.22085144850141636,0
284,-1.8988935770963595,0
285,1.6385824346530435,0
286,-0.7233192823176148,0
287,0.1801452484101274,0
288,-0.0530372756932731,0
289,-0.06677392764895487,0
290,0.06945186422149924,0
291,-0.04597530743094736,0
292,-0.036497241204100125,0
293,0.036877531240081945,0
294,0.06038498893427167,0
295,-0.05989163163413523,0
296,-0.05718071960720157,0
297,0.028588207177292223,0
298,-0.06983292376455054,0
299,0.05785577994268458,0
300,0.37948389249266196,0
301,3.5543194313218236,0
302,6.887635878550812,0
303,-0.3268602382213531,0
304,-1.9299694717826446,0
305,1.5886503795703506,0
306,-0.6963498959445599,0
307,0.16095447413020963,0
308,0.04579603537708878,0
309,0.011438636320433744,0
310,0.03959258794138218,0
311,0.09361813454234957,0
312,0.034098860231101674,0
313,0.031028302712481897,0
314,0.0225325240859948,0
315,0.010487980259447388,0
316,0.05138234905510712,0
317,-0.03236089095789499,0
318,-0.062366627944613756,0
319,0.08022779010181752,0
320,0.33925332945369346,0
321,3.4729711695284244,0
322,6.93065307555923,0
323,-0.30588791065564125,0
324,-1.8973774676148594,0
325,1.5802654118965458,0
326,-0.6933569391845479,0
327,0.19188127611819536,0
328,0.1346396713756669,0
329,-0.1747363921033671,0
330,0.032922937901166315,0
331,0.0509984215152815,0
332,-0.025291569161394304,0
333,-0.036138668697081926,0
334,0.0057074565944821645,0
335,0.07163459161249504,0
336,0.09541372379330969,0
337,-0.0012023539491265059,0
338,-0.08044015553983093,0
339,0.03773434821783679,0
340,0.2645213195629435,0
341,3.4601983432883676,0
342,6.773858810118153,0
343,-0.39300536272897224,0
344,-1.8896417293708863,0
345,1.5149299261487053,0
346,-0.7337684068801186,0
347,0.03493550641804655,0
348,-0.0548845794326628,0
349,-0.08729802080096702,0
350,-0.07279612526400073,0
351,0.005389686878674166,0
352,-0.005915357815055734,0
353,0.006096445593060135,0
354,-0.00016969551126571128,0
355,-0.03395790482300548,0
356,0.03577537958901541,0
357,0.0019385084248221334,0
358,0.060523366854707786,0
359,0.04293609752497688,0
360,0.314514615077645,0
361,3.5649878277577978,0
362,6.880189699642996,0
363,-0.32726265361254353,0
364,-1.9948107866262053,0
365,1.5125589752819601,0
366,-0.6709579776870608,0
367,0.06533985020099144,0
368,-0.05968429957852915,0
369,-0.08270545778741419,0
370,-0.009132309431831557,0
371,0.013728173487058404,0
372,0.019719185655266216,0
373,0.013081071009885946,0
374,-0.06250548221635743,0
375,-0.041521936265933646,0
376,-0.057108836753213564,0
377,-0.07198463628066394,0
378,0.0322773059756979,0
379,-0.06080608802560817,0
380,0.24505390192738705,0
381,3.509015455773632,0
382,6.838322053918349,0
383,-0.4151036857292102,0
384,-1.8999742848642271,0
385,1.5307598490801178,0
386,-0.7042151602420343,0
387,0.03556058218107235,0
388,0.015456374280398581,0
389,-0.17712120547344323,0
390,-0.0829095391058352,0
391,-0.02949582969355701,0
392,-0.13371581935904,0
393,-0.021225514690748796,0
394,0.018951420187226266,0
395,-0.06010349886953144,0
396,-0.032306454353812304,0
397,-0.03804113107516673,0
398,-0.12255305256078333,0
399,-0.05198244230474369,0
400,0.19099527285212492,0
401,3.5024223213541714,0
402,6.82195795400449,0
403,-0.3764994454689566,0
404,-1.9304594879960746,0
405,1.5122743806853565,0
406,-0.7847264080328585,0
407,0.0905664095300284,0
408,-0.044220593387614276,0
409,-0.09331716135079011,0
410,-0.11279161672621393,0
411,-0.06777149101163088,0
412,-0.10622737384664438,0
413,-0.01623751562143317,0
414,-0.08084014371289322,0
415,-0.08211655685810215,0
416,-0.01650195568220697,0
417,-0.08917952743486332,0
418,-0.12198152061562934,0
419,-0.04332997326649295,0
420,0.23598097647893695,0
421,3.5337093155384816,0
422,6.882245014583999,0
423,-0.3801637297844357,0
424,-1.9829626116298529,0
425,1.5223785814435746,0
426,-0.7541953326754435,0
427,0.12888708037527455,0
428,0.09304871872554839,0
429,-0.0812655054797792,0
430,0.06562583064657035,0
431,-0.035813439058388574,0
432,-0.06870596406935935,0
433,-0.10129058671531088,0
434,0.050764913186353844,0
435,-0.017391148065500378,0
436,-0.060162437321892526,0
437,0.08165113515573265,0
438,-0.0020041577466158207,0
439,-0.03585246943643093,0
440,0.26799451476445496,0
441,3.6337935342872436,0
442,6.8578548195020135,0
443,-0.4098501083683652,0
444,-1.880265119886775,0
445,1.5356640820940775,0
446,-0.7554011274809647,0
447,0.05551872942255627,0
448,0.0023432480589368476,0
449,0.014456965455931309,0
450,-0.0008648170526622742,0
451,0.036832188026673256,0
452,0.038415023401585244,0
453,0.04866696039623429,0
454,-0.0005729576636054872,0
455,-0.0028370072811036845,0
456,0.0743343825753571,0
457,0.009293812441585166,0
458,0.01717666164856664,0
459,0.01321066427100975,0
460,0.31494754855758805,0
461,3.6276910927571206,0
462,6.851463612597098,0
463,-0.3799126680141748,0
464,-1.8749768483546305,0
465,1.5137185826710802,0
466,-0.7315027122536059,0
467,0.08276979760285251,0
468,0.008366960721419375,0
469,0.0018289450230232207,0
470,-0.06617767259012207,0
471,-0.08717431044269715,0
472,-0.08902728622603126,0
473,-0.09091625129800218,0
474,-0.09381273257172255,0
475,-0.13317630162633498,0
476,-0.005478085362924684,0
477,-0.05403384041156788,0
478,-0.10386004484517414,0
479,-0.0897994854449705,0
480,0.2169951253527227,0
481,3.543891390661297,0
482,6.761988922225405,0
483,-0.40566188356035077,0
484,-1.9256946014686633,0
485,1.4935994846418759,0
486,-0.7763967933079194,0
487,0.15720660183512303,0
488,0.03941936044694222,0
489,0.002205878311813375,0
490,-0.021287045611820977,0
491,-0.05487930241530639,0
492,-0.06861390815088933,0
493,-0.04308821099708231,0
494,-0.045136288609601054,0
495,0.0032028736462668544,0
496,-0.012565280439426271,0
497,-0.10219719499988142,0
498,-0.032420212879764265,0
499,-0.05669292448668699,0
500,0.23364024427637972,0
501,3.636250330425842,0
502,6.86213154372806,0
503,-0.35988803368813754,0
504,-1.8814403400640134,0
505,1.5792726396909738,0
506,-0.777792451547161,0
507,0.11787949212804232,0
508,0.030933124258061773,0
509,-0.050707896959158706,0
510,-0.03160242416130617,0
511,0.023362733223554956,0
512,0.058415030134958634,0
513,0.011644716060190142,0
514,0.07787297776241825,0
515,0.04609301214819382,0
516,0.0532553844504362,0
517,-0.018234875129835418,0
518,-0.030634196499129192,0
519,-0.002596208753800305,0
520,0.325467957859079,0
521,3.556878833505185,0
522,6.885835134089846,0
523,-0.3689835672258333,0
524,-1.8958683200015412,0
525,1.649656464207461,0
526,-0.7616895666740482,0
527,0.17787959807287576,0
528,0.0402167775852212,0
529,0.02023429893647414,0
530,0.23259342641203196,0
531,0.04424251307965096,0
532,0.01299151587066718,0
533,0.0891301537392983,0
534,-0.06465159190817246,0
535,-0.010680057835795589,0
536,0.00386457809231067,0
537,0.023412623006199163,0
538,0.015686010654912437,0
539,0.05042329102935364,0
540,0.22906704256191096,0
541,3.646535996768158,0
542,6.80195506028303,0
543,-0.3699061612601535,0
544,-1.9193116801940475,0
545,1.5814844006558686,0
546,-0.7118924913242856,0
547,0.1926402429083049,0
548,-0.024864388818607454,0
549,0.04143629477756036,0
550,-0.06686606436474431,0
551,-0.043219050378381085,0
552,0.060414608287616106,0
553,-0.033112668419872524,0
554,-0.11171471331321463,0
555,-0.06349928626584635,0
556,-0.03924075286087796,0
557,0.019391451707610655,0
558,-0.024071643363967686,0
559,-0.1133367269355278,0
560,0.2275183736683742,0
561,3.558772464175097,0
562,6.788107571659466,0
563,-0.45342696921635434,0
564,-1.9494870242275002,0
565,1.5368804892647603,0
566,-0.7981539255402691,0
567,0.016945507466117338,0
568,-0.04276128382475992,0
569,-0.045118956579580594,0
570,-0.02977860975757334,0
571,-0.041603050464974964,0
572,0.018051571453177834,0
573,-0.04334307661664821,0
574,0.01230013813916266,0
575,-0.02133485659426039,0
576,-0.002494347833520559,0
577,-0.0039149154824006625,0
578,0.011002057699629409,0
579,0.03417715224875657,0
580,0.3208728385709937,0
581,3.5845597962995552,0
582,6.754716797381638,0
583,-0.3959744814530659,0
584,-1.850113575107849,0
585,1.5263308462455936,0
586,-0.6976496953031078,0
587,0.05989784147063887,0
588,0.058841458477715006,0
589,-0.062425482694391535,0
590,0.05274401324326662,0
591,0.008343404386430393,0
592,-0.022214258969479445,0
593,-0.05979901095503749,0
594,-0.009737171709732088,0
595,-0.04705684293449393,0
596,0.03630656441566735,0
597,-0.0305754806629937,0
598,0.02151796327497211,0
599,-0.10016146865575694,0
600,0.3683230820978835,0
601,3.608896684423446,0
602,6.884059820815254,0
603,-0.430452179427019,0
604,-1.8864627098987292,0
605,1.5305382562719847,0
606,-0.7726485814742998,0
607,0.1338181434956917,0
608,0.12079382316762059,0
609,-0.009409761434505705,0
610,0.07825363624153348,0
611,0.006950469853857486,0
612,0.03731429613873901,0
613,0.045275730281499574,0
614,0.015608014791443987,0
615,0.07337894767695621,0
616,-0.004795548834894154,0
617,0.12573735618509344,0
618,0.002898026711179221,0
619,0.09362156689807219,0
620,0.29315107537700735,0
621,3.662898913750681,0
622,6.866247430753865,0
623,-0.35119135853413674,0
624,-1.7870150030395098,0
625,1.567863049611099,0
626,-0.7578273914693754,0
627,0.2040748628613724,0
628,0.055469051527066535,0
629,-0.05534300544846357,0
630,0.01030886436211187,0
631,-0.05581906064303248,0
632,0.034224928825923026,0
633,-0.020647256431501955,0
634,0.025740817184560498,0
635,0.048579667107796314,0
636,0.030371902588483282,0
637,-0.09217642028233539,0
638,0.03313446999156171,0
639,0.053224399455789634,0
640,0.23208539516158372,0
641,3.6057488715569703,0
642,6.68447232907534,0
643,-0.4291389691094939,0
644,-1.8653207351274654,0
645,1.513935895572968,0
646,-0.7418568350164588,0
647,0.13755128169665537,0
648,0.00715625727974299,0
649,0.014051148701935176,0
650,0.05595209993216563,0
651,0.09133585958212659,0
652,0.03309358404337829,0
653,0.006566833704986655,0
654,0.07679559578326109,0
655,0.03434573421731344,0
656,0.05460772721202098,0
657,0.08588763711168351,0
658,0.05347299208466094,0
659,0.06928289377465698,0
660,0.3426445028382812,0
661,3.5173407688613487,0
662,6.816185967820736,0
663,-0.4827030998990226,0
664,-1.864436810920415,0
665,1.6059416319981696,0
666,-0.7623841161709941,0
667,0.1549874952067254,0
668,-0.0011584677205486848,0
669,-0.11511709391771877,0
670,0.04701164177223176,0
671,-0.0005364406305771799,0
672,0.011766380968636416,0
673,-0.05130973463778877,0
674,0.047811072597484856,0
675,0.08568244594062659,0
676,0.015797424013311204,0
677,0.09277552617771867,0
678,0.008175677155071007,0
679,-0.0018878113502676722,0
680,0.34907022293691553,0
681,3.6587039255466016,0
682,6.891969262238318,0
683,-0.5256577254731482,0
684,-1.899269629289925,0
685,1.6191233102721219,0
686,-0.7049234718093071,0
687,0.1491994806534787,0
688,0.03425356036912603,0
689,-0.05297951329262625,0
690,-0.019934576493584544,0
691,-0.11284814185770742,0
692,-0.02207325690843879,0
693,0.01891620595258381,0
694,-0.06177560043977417,0
695,0.16082793185741562,0
696,0.016369563662442858,0
697,0.01948640755048637,0
698,0.028276005336406097,0
699,-0.03629724520472546,0
700,0.27730409143288715,0
701,3.6687047883832933,0
702,6.8551105360849975,0
703,-0.4828186689666969,0
704,-1.9171350035792647,0
705,1.4425415883889738,0
706,-0.762168165887799,0
707,0.0778977025486874,0
708,0.04360381481048489,0
709,-0.03917135045773247,0
710,0.05761619100795766,0
711,-0.051788812813025865,0
712,-0.022439165025438527,0
713,0.03852099725894177,0
714,0.07350804564321736,0
715,0.04557779377175088,0
716,0.045137460742846636,0
717,0.0993405019853564,0
718,0.0020836573472928464,0
719,0.013778405071481231,0
720,0.2715722558006745,0
721,3.606846459063264,0
722,6.867436000288612,0
723,-0.4152206896098347,0
724,-1.8633168436676217,0
725,1.5441633995067863,0
726,-0.7320774980097863,0
727,0.09264982875124358,0
728,0.10241631793135647,0
729,-0.05740927776946981,0
730,-0.04464065537141407,0
731,0.031224580650887054,0
732,-0.012580124745556906,0
733,-0.0018367757565181941,0
734,-0.015234312606926911,0
735,-0.0007673962459568001,0
736,0.009906946219602919,0
737,0.06146025720431692,0
738,-0.007376088174502658,0
739,0.08040511633492002,0
740,0.3126535719816638,0
741,3.685239983417793,0
742,6.826930359987066,0
743,-0.4196279897440588,0
744,-1.866484921763301,0
745,1.5779868205598806,0
746,-0.7113802655904647,0
747,0.15997007642342664,0
748,0.02986150542747495,0
749,-0.0009985980478463066,0
750,-0.10372738602565805,0
751,-0.09250381682588563,0
752,-0.06141217112835047,0
753,-0.012294816650126519,0
754,-0.02030263008873735,0
755,-0.03866355873972105,0
756,0.11905492084603536,0
757,-0.0041967564880771475,0
758,0.02480824510376238,0
759,-0.04666924079534608,0
760,0.24583392268338278,0
761,3.6103973399495737,0
762,6.827010452341584,0
763,-0.47937249739684495,0
764,-1.7829533006123761,0
765,1.5070574347631074,0
766,-0.7610002149797336,0
767,0.1632868703472828,0
768,-0.0006371555526809932,0
769,-0.11911205779843223,0
770,-0.09517835917758526,0
771,-0.040720881430025974,0
772,-0.030415067623739522,0
773,-0.03279553605916872,0
774,-0.008429502579082062,0
775,-0.02703022207602175,0
776,-0.06987003089917285,0
777,-0.09378146614430087,0
778,-0.05130464059479835,0
779,-0.10067340263317141,0
780,0.33814800080862406,0
781,3.578892647282133,0
782,6.887041095765463,0
783,-0.5053855431140688,0
784,-1.8101529713630267,0
785,1.5607891839832204,0
786,-0.7741278241260396,0
787,0.06681516827720196,0
788,0.06584110683230761,0
789,-0.0761234926225616,0
790,-0.0651574667208406,0
791,0.0011789988217775216,0
792,0.04984610044175472,0
793,-0.03440162553885622,0
794,-0.06164243073326456,0
795,-0.034138102254970146,0
796,-0.04903923086396378,0
797,0.10004484854866855,0
798,-0.05136738750962842,0
799,0.06510885230307129,0
800,0.249667621772623,0
801,3.5587489947748416,0
802,6.787182484409408,0
803,-0.4576237480736806,0
804,-1.8943840020077267,0
805,1.4802686325270227,0
806,-0.714670224755398,0
807,0.07543853980850435,0
808,-0.03182709772436669,0
809,-0.011021536049291472,0
810,-0.041295085755836056,0
811,0.0009720033397495886,0
812,0.004549014248027568,0
813,-0.0027681634732119945,0
814,0.021950003760907937,0
815,-0.13686716962697595,0
816,0.004847510739345303,0
817,-0.03490895709042674,0
818,-0.00410896370525737,0
819,0.00581899298828743,0
820,0.31042571914021194,0
821,3.714466888346716,0
822,6.863621237933714,0
823,-0.5030380656800357,0
824,-1.7850668213633505,0
825,1.5757997261009544,0
826,-0.6896523369593255,0
827,0.08633361027866807,0
828,-0.030075181078506905,0
829,-0.06883265361207166,0
830,0.039178779573382456,0
831,-0.056505119486604985,0
832,0.0277756429236478,0
833,-0.03125495280599065,0
834,-0.036000635420922134,0
835,-0.04625785356310905,0
836,-0.04945605219183287,0
837,-0.015500685531027287,0
838,-0.06150837198733548,0
839,-0.023711775779981546,0
840,0.371800081689625,0
841,3.6639963612413613,0
842,6.757960568474561,0
843,-0.531796918978919,0
844,-1.8308170855481634,0
845,1.5971192753012484,0
846,-0.6657852909646262,0
847,0.11340200215716661,0
848,0.01625760216565857,0
849,0.01547643651020296,0
850,-0.02654387726296326,0
851,0.04465673177812637,0
852,-0.05678225995649898,0
853,-0.0932854195845534,0
854,0.09519303231109728,0
855,0.10005901915264025,0
856,-0.036361236676937046,0
857,-0.019897474333014784,0
858,0.08385957266563418,0
859,0.0190374983681203,0
860,0.367873633078716,0
861,3.7517308906037745,0
862,6.8492581994808415,0
863,-0.5204573259083369,0
864,-1.872902366046184,0
865,1.5669013823255353,0
866,-0.6947963689112261,0
867,0.0636852685457826,0
868,0.007413953785257346,0
869,-0.09037164825947139,0
870,-0.0340602690312528,0
871,0.08094748613710548,0
872,-0.023240720170973457,0
873,-0.020943226365927405,0
874,0.046924742600628115,0
875,-0.01652458380927821,0
876,0.008764687344241174,0
877,0.0473618732951136,0
878,-0.03279205716138727,0
879,0.04648453076769782,0
880,0.25218225000698374,0
881,3.782429384859513,0
882,6.884535242185267,0
883,-0.44861967363202615,0
884,-1.8391543798594112,0
885,1.6161975550740695,0
886,-0.7777237769738308,0
887,0.16437967164836007,0
888,-0.043232894234867744,0
889,-0.05312229902246124,0
890,0.031055940343645012,0
891,0.06342116774478726,0
892,0.04489944849634207,0
893,-0.0252032947241436,0
894,0.012023934000980417,0
895,-0.0711800726891065,0
896,-0.005761865646750009,0
897,-0.08616680979094266,0
898,-0.06676412122028882,0
899,0.05600664865936415,0
900,0.21881950399041672,0
901,3.630082423623567,0
902,6.812439782935949,0
903,-0.3957532469852386,0
904,-1.857338220130857,0
905,1.4761065963158855,0
906,-0.7283303398499157,0
907,0.16123054089521988,0
908,0.03302522435556317,0
909,-0.06310690214205968,0
910,0.08569360819486775,0
911,-0.06949460145147479,0
912,0.027094021316454275,0
913,-0.006165065578919316,0
914,0.011325821159380167,0
915,0.04689904754710538,0
916,0.04711125133497055,0
917,-0.05851435043503877,0
918,-0.015659139883699796,0
919,-0.020060543819378975,0
920,0.2707020108223819,0
921,3.6759324087828076,0
922,6.807670047513174,0
923,-0.5194574226448101,0
924,-1.825015333862439,0
925,1.505378915936965,0
926,-0.70828687627994,0
927,0.13952297284011267,0
928,0.05440779000064662,0
929,-0.00872111637963699,0
930,0.042114409095288505,0
931,-0.0034121907779280517,0
932,-0.003727236189234594,0
933,0.04617221487281525,0
934,-0.020324258562074374,0
935,0.08752445908474751,0
936,0.027500330807635857,0
937,0.010883547463565402,0
938,-0.01378171048168348,0
939,0.040797811071341485,0
940,0.4033501660049613,0
941,3.7328146449631374,0
942,6.887262607971271,0
943,-0.4781674048602815,0
944,-1.7510214267157491,0
945,1.486752829953488,0
946,-0.7727441676478974,0
947,0.19694567556537956,0
948,0.029055112798572508,0
949,-0.025017317324900864,0
950,0.14709605772632678,0
951,0.07095029564797947,0
952,0.10719522694905351,0
953,-0.04657487437270605,0
954,0.02296899213586467,0
955,0.05134242094316604,0
956,0.09822243890817194,0
957,0.07420185720848423,0
958,-0.039219705263108674,0
959,0.012187297494547306,0
960,0.34831634514494114,0
961,3.688438919676835,0
962,6.824238771276583,0
963,-0.5104276346064343,0
964,-1.7262608550565222,0
965,1.6519960450903615,0
966,-0.713889653223571,0
967,0.21604848143363709,0
968,0.09095436900593641,0
969,0.02265790354840928,0
970,0.09503834078097376,0
971,0.1225972189690338,0
972,0.09386942691806598,0
973,0.10103463695816392,0
974,0.09613580835819018,0
975,0.04862224754218329,0
976,0.039949296584879626,0
977,0.07875448632267351,0
978,0.06062730247513189,0
979,0.13880367906963348,0
980,0.3894509681799303,0
981,3.7210580203861285,0
982,6.990666245592341,0
983,-0.49123859310362056,0
984,-1.832357574326497,0
985,1.6296306910316622,0
986,-0.6261947486146574,0
987,0.16104239015186123,0
988,0.03894028378933349,0
989,0.05151804192185887,0
990,0.11336829428847543,0
991,0.12723800917476558,0
992,0.014648050688969703,0
993,0.10121171872201207,0
994,0.01873336343674325,0
995,0.05229122614806602,0
996,0.07652180639787057,0
997,-0.008351581801765408,0
998,0.009110161165334295,0
999,0.07160898983791152,0
1000,0.25040046517242837,0
1001,3.666679514476983,0
1002,6.831768103520857,0
1003,-0.506415914093291,0
1004,-1.7350661418469475,0
1005,1.605020292018843,0
1006,-0.6320280858395619,0
1007,0.22985508219809392,0
1008,0.004675367705301081,0
1009,0.060185605717463106,0
1010,0.05649003871428411,0
1011,0.14460533672537945,0
1012,0.11118464537993518,0
1013,0.12960278610870557,0
1014,0.09252561731027223,0
1015,-0.01910790441464459,0
1016,0.15238127173101118,0
1017,0.007284625602848663,0
1018,0.0898757367859196,0
1019,0.135965079351169,0
1020,0.36763121659848014,0
1021,3.67564076769394,0
1022,6.833065592067723,0
1023,-0.4142278849352077,0
1024,-1.8086347679053028,0
1025,1.627430437965921,0
1026,-0.6539394814578164,0
1027,0.15661658246423416,0
1028,0.0039977880165436575,0
1029,-0.00024368542124595174,0
1030,-0.014322265764738766,0
1031,0.06413489111077908,0
1032,-0.05484852794199858,0
1033,-0.06590559104805925,0
1034,0.03730292315595653,0
1035,0.034869264176012854,0
1036,0.02323275238139556,0
1037,0.05476013191686858,0
1038,-0.08324607188853986,0
1039,-0.011719401908536115,0
1040,0.3365428003290457,0
1041,3.6128429439262395,0
1042,6.789337109017917,0
1043,-0.5331418164720295,0
1044,-1.7606163206771863,0
1045,1.553212903710192,0
1046,-0.6423964275121831,0
1047,0.0954718908401069,0
1048,0.13216262862174039,0
1049,0.03286284583308612,0
1050,0.06446047411740483,0
1051,0.07489739450456222,0
1052,0.11077976758291803,0
1053,0.009575225167919948,0
1054,0.025371193670794878,0
1055,0.16130026103934966,0
1056,0.07685035031095554,0
1057,0.10158034295072912,0
1058,0.043623049303705426,0
1059,0.03330212416561675,0
1060,0.2650504500105922,0
1061,3.6985982989268424,0
1062,6.780474691187368,0
1063,-0.48161395484887604,0
1064,-1.7060329729815016,0
1065,1.6316338217241322,0
1066,-0.6331848220512554,0
1067,0.22217586771848155,0
1068,0.12288876090197123,0
1069,-0.07853444879246821,0
1070,-0.010913729351993341,0
1071,-0.08037490521302057,0
1072,-0.04700826778701543,0
1073,-0.04943160112797888,0
1074,-0.05147948960256851,0
1075,-0.032841385140508966,0
1076,0.027950640724183663,0
1077,0.055199225014773264,0
1078,0.02335240802203514,0
1079,0.02339653326672275,0
1080,0.3979010333313887,0
1081,3.720395655163502,0
1082,6.8270382903315125,0
1083,-0.5271096558873347,0
1084,-1.8247778372196244,0
1085,1.4539693801151545,0
1086,-0.6827327118211131,0
1087,0.1938372134543216,0
1088,0.04038610221318559,0
1089,0.03867317280720543,0
1090,-0.012977551628491908,0
1091,-0.08065993207917423,0
1092,0.0037602662683699512,0
1093,0.09201329543534639,0
1094,-0.04510058297433413,0
1095,-0.053850778039870185,0
1096,-0.049990745996520425,0
1097,-0.006865724769162235,0
1098,0.03652878748223738,0
1099,0.014319421750824714,0
1100,0.3827929049782452,0
1101,3.7495179274359645,0
1102,6.810418519569306,0
1103,-0.6074619888836434,0
1104,-1.7659510991740899,0
1105,1.4945816788143937,0
1106,-0.7576035921719025,0
1107,0.24942588194566173,0
1108,0.02732595326724094,0
1109,-0.13587143689580614,0
1110,0.032851555058597624,0
1111,0.02215866142853947,0
1112,-0.1221743802462996,0
1113,0.035241799828033514,0
1114,0.09018239460733261,0
1115,0.05653469425139082,0
1116,0.05824207368995071,0
1117,-0.01764260235654223,0
1118,0.023320488399001152,0
1119,-0.028070808884066645,0
1120,0.4463747222913994,0
1121,3.7417704301913886,0
1122,6.7649071549979185,0
1123,-0.5697319739541362,0
1124,-1.7464908731969055,0
1125,1.4415205281506362,0
1126,-0.8018491433897441,0
1127,0.15244169251137032,0
1128,-0.026982901116577456,0
1129,-0.014822392254315718,0
1130,-0.013779537506676258,0
1131,-0.008462207889893587,0
1132,0.0008236267474834883,0
1133,-0.07538304173309318,0
1134,0.012324900289621542,0
1135,0.05596934399238834,0
1136,0.06534381353122487,0
1137,0.037554462459604976,0
1138,0.10303511834960141,0
1139,0.026205703081545618,0
1140,0.34242618337600006,0
1141,3.8105654846324515,0
1142,6.911938328443511,0
1143,-0.5058141328318104,0
1144,-1.7010613733764517,0
1145,1.61901530578999,0
1146,-0.6314417853128313,0
1147,0.30164207502661083,0
1148,0.029575388845435924,0
1149,-0.054375540743251,0
1150,0.02372469332097198,0
1151,0.0763181973215189,0
1152,0.0353586336569429,0
1153,0.043507378252089494,0
1154,0.11381497696735425,0
1155,0.026713688565331337,0
1156,-0.013931266516135805,0
1157,0.035675599111549175,0
1158,-0.09595442617503969,0
1159,0.10347068587870162,0
1160,0.3268575985797983,0
1161,3.7245630347176535,0
1162,6.954082011406985,0
1163,-0.49112548346959345,0
1164,-1.7371987378935387,0
1165,1.5612089224143713,0
1166,-0.7504216539308523,0
1167,0.10661751886273095,0
1168,0.04804063294626914,0
1169,-0.016291100683440154,0
1170,0.04391673748727622,0
1171,-0.05787929779235511,0
1172,0.07253481395707335,0
1173,-0.01636409950492286,0
1174,-0.049026090757896816,0
1175,0.008118469428331786,0
1176,0.02238910721071997,0
1177,-0.08669021317123357,0
1178,0.044914389877599166,0
1179,-0.033522264298946794,0
1180,0.32329698526793776,0
1181,3.7669094901557623,0
1182,6.784819680049978,0
1183,-0.5635565458050824,0
1184,-1.7624120913018297,0
1185,1.541327530008894,0
1186,-0.6244101346006021,0
1187,0.12589793320782788,0
1188,0.0320824107455389,0
1189,0.06238102549866385,0
1190,-0.018216106270151765,0
1191,-0.0015095046072819002,0
1192,0.052051855725519944,0
1193,-0.03579612301205098,0
1194,0.06290041196021895,0
1195,0.011161088548627147,0
1196,-0.004182340483434452,0
1197,0.11783819610970232,0
1198,0.066960294818036,0
1199,0.07516775605613907,0
1200,0.36436462294215394,0
1201,3.833992486331582,0
1202,6.884524985037215,0
1203,-0.43975260422121737,0
1204,-1.7928478683731504,0
1205,1.5067203655073365,0
1206,-0.7386050922323577,0
1207,0.21665128135060788,0
1208,0.014216852301518083,0
1209,-0.017168249480226962,0
1210,0.05166000542722523,0
1211,-0.02317021136864738,0
1212,0.019878397139817563,0
1213,0.042081975709841256,0
1214,-0.014067754809521278,0
1215,0.07277379715900767,0
1216,0.034557768027545344,0
1217,-0.06099235874687296,0
1218,0.023697671315584593,0
1219,-0.0828694211407296,0
1220,0.278080004786637,0
1221,3.7230002061645777,0
1222,6.7858373731524955,0
1223,-0.5553166321759953,0
1224,-1.7257749729099534,0
1225,1.5868732766265286,0
1226,-0.7563445003607615,0
1227,0.15889948170175996,0
1228,0.05300293667001815,0
1229,-0.06901016215834715,0
1230,0.03194849748888033,0
1231,0.10497159514750318,0
1232,-0.046180968134396184,0
1233,0.08957512127577724,0
1234,0.07092073226415384,0
1235,0.06202403063578919,0
1236,0.03799258577580232,0
1237,0.08847372801179662,0
1238,0.007490253971381082,0
1239,0.041538841679739785,0
1240,0.3968244828984383,0
1241,3.6858262091367755,0
1242,6.9214066185449195,0
1243,-0.5043315000751202,0
1244,-1.7886444532285568,0
1245,1.5040484362439543,0
1246,-0.7358782369642601,0
1247,0.15193508744786222,0
1248,0.03626433032507778,0
1249,0.008100831291972985,0
1250,0.051761888546847545,0
1251,0.03236153975542972,0
1252,0.09074589290570648,0
1253,0.010977745757871818,0
1254,0.06908835461522186,0
1255,0.006542569082592681,0
1256,0.1185748862628076,0
1257,0.06862168889214698,0
1258,0.03979485541365834,0
1259,-0.002306191207181167,0
1260,0.32621176332166,0
1261,3.692614276999844,0
1262,6.857449418888883,0
1263,-0.5702256349851618,0
1264,-1.6793014754674764,0
1265,1.526080083435033,0
1266,-0.616947707323889,0
1267,0.26754543802511777,0
1268,-0.05602941695961759,0
1269,0.04467713257159137,0
1270,-0.017787952393084908,0
1271,0.028434664634756135,0
1272,0.022423584181599468,0
1273,-0.028032034954606093,0
1274,-0.02188919410741437,0
1275,-0.05464783565331395,0
1276,0.07797917087737698,0
1277,0.06829474764197206,0
1278,0.029055503997889136,0
1279,-0.041652963689048535,0
1280,0.2573619642052969,0
1281,3.7406192833310237,0
1282,6.806040433617611,0
1283,-0.6187155466744039,0
1284,-1.8218532146270656,0
1285,1.608351334996412,0
1286,-0.653801734645382,0
1287,0.1895020119363206,0
1288,0.07996378894270341,0
1289,0.020753130281881013,0
1290,0.02491319809012562,0
1291,0.11596755677070784,0
1292,-0.04698897791422365,0
1293,-0.02459308031551223,0
1294,0.10594729676545743,0
1295,0.0647179201032809,0
1296,-0.00663719312355085,0
1297,0.09800096721860221,0
1298,-0.05551303654770052,0
1299,0.03118176654415622,0
1300,0.4026608554309111,0
1301,3.7864656651288757,0
1302,6.846161977502145,0
1303,-0.5690676545566444,0
1304,-1.643212443545527,0
1305,1.5367301381152645,0
1306,-0.7655072361649687,0
1307,0.17551162433896358,0
1308,0.040763511908386334,0
1309,-0.012647889333714246,0
1310,0.05881862200539725,0
1311,0.023617049124939584,0
1312,-0.02999538468566453,0
1313,-0.04061709323843789,0
1314,-0.008761910570486982,0
1315,0.13620395695577572,0
1316,0.0664528020585028,0
1317,0.003121838278905213,0
1318,0.056573216256341416,0
1319,0.10627775119433844,0
1320,0.3146330206350313,0
1321,3.799076829463787,0
1322,6.882700973757984,0
1323,-0.5299429188240816,0
1324,-1.5772143024090237,0
1325,1.591058795072376,0
1326,-0.6878141814247011,0
1327,0.21063770608691806,0
1328,0.04554658854771168,0
1329,0.026060112604152603,0
1330,0.09023549761671451,0
1331,-0.03257238603576607,0
1332,-0.04767255183318284,0
1333,0.00817268155792808,0
1334,-0.041458812975438866,0
1335,0.039617300426973534,0
1336,0.06725763384878719,0
1337,0.12068413268263156,0
1338,0.07928387557552947,0
1339,0.11600868704321926,0
1340,0.4001870244171039,0
1341,3.768577559255099,0
1342,6.813168895124255,0
1343,-0.5070274965766317,0
1344,-1.6630557100707573,0
1345,1.5692787127291858,0
1346,-0.6938924211024953,0
1347,0.2571997737925872,0
1348,0.025280852512291976,0
1349,-0.09547045304956259,0
1350,-0.010426284289265605,0
1351,-0.04459479958866214,0
1352,0.05177748398597164,0
1353,0.04898634099429815,0
1354,0.10324256933855572,0
1355,0.11150153217345742,0
1356,0.010884988920472904,0
1357,0.12607171938190428,0
1358,0.07319791164227334,0
1359,0.019495267637826087,0
1360,0.3232618070574319,0
1361,3.784597835684202,0
1362,6.806652981304378,0
1363,-0.5674736441299727,0
1364,-1.7087917549073044,0
1365,1.4950030381238424,0
1366,-0.7223556116743393,0
1367,0.18463589618861093,0
1368,0.02989218459154815,0
1369,-0.048519538523312915,0
1370,-0.028537904181239263,0
1371,0.007959514468095577,0
1372,0.13554400884486129,0
1373,-0.024975852530608224,0
1374,0.02931326488569774,0
1375,0.039846141956378055,0
1376,0.023440684780642783,0
1377,0.08535731937767063,0
1378,0.04025608347920697,0
1379,0.08504939470693226,0
1380,0.3176674780956923,0
1381,3.776711652224133,0
1382,6.768858997827962,0
1383,-0.6027977936730279,0
1384,-1.6842132906133553,0
1385,1.5061318746518935,0
1386,-0.7067424599050891,0
1387,0.18876097562750713,0
1388,0.047779286661145504,0
1389,-0.005616801256453025,0
1390,0.05867491541522939,0
1391,0.0351653000978241,0
1392,0.0913169007840781,0
1393,0.04716005359529034,0
1394,0.10211278672637263,0
1395,0.07470562073734908,0
1396,0.08303948468253422,0
1397,0.08288366986542509,0
1398,0.07313102901843044,0
1399,0.11818093383655995,0
1400,0.3502758382496887,0
1401,3.9021484143168057,0
1402,6.748528553275367,0
1403,-0.5554772603010049,0
1404,-1.6558819315002893,0
1405,1.590121244515024,0
1406,-0.7197972245622853,0
1407,0.18509274140691603,0
1408,0.11050351575340694,0
1409,-0.020320853806390246,0
1410,0.11419839219314898,0
1411,-0.041698810825140084,0
1412,-0.006217293654402496,0
1413,0.09735384479958831,0
1414,0.10397328786360323,0
1415,-0.02318082443612602,0
1416,0.028996522439082364,0
1417,0.10367809932627707,0
1418,0.07673368459862309,0
1419,0.048952172364735765,0
1420,0.4439955304473317,0
1421,3.859867385116157,0
1422,6.942724549980821,0
1423,-0.5468676723537959,0
1424,-1.5315184212057678,0
1425,1.7097094209594021,0
1426,-0.7425414961707191,0
1427,0.13607919736261825,0
1428,0.046410282603401666,0
1429,0.04855548547812945,0
1430,0.11584884595090983,0
1431,0.00619818179691646,0
1432,0.03598120501888613,0
1433,0.09304645646609591,0
1434,0.05928634984043342,0
1435,0.0597781183802607,0
1436,0.03420203637970386,0
1437,-0.032171435809785015,0
1438,-0.016552493033453783,0
1439,0.026649241702238622,0
1440,0.3693460550918012,0
1441,3.7914646081028773,0
1442,6.849105377428903,0
1443,-0.4782555909642364,0
1444,-1.7413817485610588,0
1445,1.4469554840658492,0
1446,-0.6559330357628972,0
1447,0.1575991884697728,0
1448,0.0171756547320436,0
1449,-0.014094353461378169,0
1450,-0.014845813166421404,0
1451,0.026998205217268683,0
1452,-0.004435201139315149,0
1453,0.11743839000283565,0
1454,-0.012836346982299462,0
1455,0.09133712376271076,0
1456,0.0910580297294454,0
1457,0.07757598895064338,0
1458,0.019952928671171953,0
1459,0.11417630211914427,0
1460,0.36335947508551725,0
1461,3.869928469288607,0
1462,6.789287753612424,0
1463,-0.5974166502730113,0
1464,-1.6760398348242416,0
1465,1.5341675898619354,0
1466,-0.798679597342195,0
1467,0.3059503746397606,0
1468,0.15372848571447867,0
1469,-0.03159476123492428,0
1470,0.029373985271470025,0
1471,0.1574162073785738,0
1472,0.11105676051372984,0
1473,0.0640067380814624,0
1474,0.022018237920138642,0
1475,0.09359748157290354,0
1476,0.13440250729696634,0
1477,0.005784793331884079,0
1478,0.040326715973986904,0
1479,0.11849301513838321,0
1480,0.34487511603513077,0
1481,3.765569154779467,0
1482,6.859263441137831,0
1483,-0.532932263116564,0
1484,-1.6946490714832054,0
1485,1.564538637361499,0
1486,-0.7940170620819077,0
1487,0.24540552792662623,0
1488,0.11745379630882422,0
1489,0.06947955961533736,0
1490,0.13775496302721532,0
1491,0.027752277372946964,0
1492,0.09296624199754615,0
1493,0.07001928373039533,0
1494,0.10627641171078278,0
1495,0.03742976019198399,0
1496,0.056130702781400275,0
1497,0.10610679910111137,0
1498,-0.0049871913224179,0
1499,0.036850442208513294,0
1500,0.41269312427670957,0
1501,3.875322075004573,0
1502,6.769935201582948,0
1503,-0.7115489835380382,0
1504,-1.716825935636751,0
1505,1.6347201204254995,0
1506,-0.7659488280499408,0
1507,0.09355044217584128,0
1508,0.02768109084136629,0
1509,-0.1446318940889934,0
1510,-0.02712123244754124,0
1511,0.09944726746063993,0
1512,-0.051836534285610046,0
1513,-0.02139536965080447,0
1514,0.008812999811978982,0
1515,-0.05636022265536819,0
1516,0.04628000490498753,0
1517,0.02334055777763074,0
1518,0.10045734303348272,0
1519,-0.007987407024363416,0
1520,0.40879494773739594,0
1521,3.7418688018968544,0
1522,6.893748907941337,0
1523,-0.6744974712068045,0
1524,-1.6855909902785746,0
1525,1.45712014798522,0
1526,-0.6441815121070307,0
1527,0.2083163311686723,0
1528,0.06914133571679214,0
1529,0.09583043196157648,0
1530,0.05200641626154519,0
1531,0.028835865546272696,0
1532,0.03717107059187599,0
1533,0.046439121804742016,0
1534,0.02304818162199702,0
1535,0.10151850401112897,0
1536,0.0960744143036527,0
1537,0.0849864837531629,0
1538,-0.06308875452740784,0
1539,0.03792694802446254,0
1540,0.4515308451798015,0
1541,3.8366864430717365,0
1542,6.676639549112157,0
1543,-0.698711874466081,0
1544,-1.6526585811290664,0
1545,1.5859863372557863,0
1546,-0.738323955331331,0
1547,0.25390152151146383,0
1548,0.046939707363823094,0
1549,0.04951134634867555,0
1550,0.008644616734144947,0
1551,0.03541706039506935,0
1552,0.049086390775422366,0
1553,-0.03540006195674107,0
1554,0.039815164143365375,0
1555,0.00120677809571796,0
1556,0.08633396981829974,0
1557,0.052480591151977944,0
1558,0.022039302136938683,0
1559,0.02254285339516395,0
1560,0.3825091796999501,0
1561,3.790702745748925,0
1562,6.771194834557562,0
1563,-0.6342375650696389,0
1564,-1.6404471155845846,0
1565,1.5673496887841905,0
1566,-0.7431129711174256,0
1567,0.330485972393456,0
1568,-0.08951103461529311,0
1569,-0.03418632307920115,0
1570,0.08254276622675054,0
1571,0.0912507589325467,0
1572,0.04788795506887136,0
1573,0.09962124486241078,0
1574,0.01691541749353038,0
1575,-0.01799003619755407,0
1576,0.039229228274704736,0
1577,0.16292381564438846,0
1578,-0.026232394070408116,0
1579,0.07203994840838389,0
1580,0.3714508318073551,0
1581,3.8696002488317522,0
1582,6.893944784152491,0
1583,-0.6875632078082632,0
1584,-1.7036088321029461,0
1585,1.5668594602959816,0
1586,-0.6691395007308595,0
1587,0.206693371061188,0
1588,0.09975089249378156,0
1589,-3.036754931620006e-05,0
1590,0.08726879735721092,0
1591,0.06684705596000849,0
1592,0.10179187694748842,0
1593,0.03664591444565535,0
1594,0.06862943009008145,0
1595,0.006834099410985964,0
1596,0.06869204977996402,0
1597,0.025848900969546625,0
1598,0.03768798137782851,0
1599,0.025998984528671512,0
1600,0.37004328262933756,0
1601,3.80660742181565,0
1602,6.797203668604099,0
1603,-0.6779261609023024,0
1604,-1.7295946990796482,0
1605,1.5414784041848297,0
1606,-0.6439114510281272,0
1607,0.21836482872283464,0
1608,0.061652285743548356,0
1609,-0.015064539699479185,0
1610,0.14224860151002605,0
1611,0.023984767145624575,0
1612,0.009928137278855269,0
1613,0.07770699054637878,0
1614,-0.025676216595814073,0
1615,0.03299725936114842,0
1616,0.08507641668103806,0
1617,0.03341975030933791,0
1618,-0.009117270829029703,0
1619,0.0656875293255531,0
1620,0.4109991083309267,0
1621,3.8183469368512784,0
1622,6.887518055351062,0
1623,-0.6429270711340029,0
1624,-1.5661328601719782,0
1625,1.543750548972959,0
1626,-0.7005880853577148,0
1627,0.26394862007243025,0
1628,0.025084173053858613,0
1629,0.0769433225798299,0
1630,0.006303474103378406,0
1631,0.07793332152044233,0
1632,0.08424687170265503,0
1633,0.10664280034248749,0
1634,0.037078989132955244,0
1635,0.002882461714774586,0
1636,0.00982141875203899,0
1637,-0.08386198550701492,0
1638,0.03244281334064076,0
1639,-0.05435012824880473,0
1640,0.31872009684263003,0
1641,3.767067555664266,0
1642,6.75746719519457,0
1643,-0.7284121980668941,0
1644,-1.7231680870614767,0
1645,1.5193907796516906,0
1646,-0.7327512096177524,0
1647,0.25202199565150424,0
1648,0.019606120982917828,0
1649,-0.12991781591486432,0
1650,0.03988471159011032,0
1651,0.035148832986911835,0
1652,-0.0048327935293852944,0
1653,0.10194733315017593,0
1654,0.05809981741906005,0
1655,-0.048000886889899556,0
1656,0.037163652738151774,0
1657,0.006711678241961477,0
1658,0.09914351166394648,0
1659,0.03186220147800256,0
1660,0.3450570333312822,0
1661,3.873452144996592,0
1662,6.847657646922827,0
1663,-0.6468364839167241,0
1664,-1.610481047300467,0
1665,1.4567832772404175,0
1666,-0.7306774037115508,0
1667,0.15152240332726902,0
1668,0.007783586500332787,0
1669,-0.03947059609936127,0
1670,0.0028954746178755236,0
1671,0.024021565246851156,0
1672,-0.00861850055182229,0
1673,-0.07790019725374421,0
1674,0.017272711907690558,0
1675,-0.03919164127657157,0
1676,-0.016603524112647244,0
1677,-0.07113083620119039,0
1678,-0.1371684284350724,0
1679,-0.021582157801153624,0
1680,0.39997992562948426,0
1681,3.713275883544914,0
1682,6.690677657431938,0
1683,-0.7045125940838215,0
1684,-1.651562441590254,0
1685,1.4692402422759243,0
1686,-0.7957090714870121,0
1687,0.06234240789046447,0
1688,-0.07887455981384323,0
1689,-0.14151865176844075,0
1690,-0.08197579769769098,0
1691,0.0012446863559218008,0
1692,-0.17502492532165498,0
1693,-0.06562106380786346,0
1694,-0.05568372640746272,0
1695,-0.026773891231793995,0
1696,-0.10301524226348645,0
1697,-0.035654394913798966,0
1698,-0.07920464204178194,0
1699,0.022832893221737857,0
1700,0.2793695077073629,0
1701,3.7648211930286104,0
1702,6.741983636136198,0
1703,-0.7187002142636607,0
1704,-1.7280568719668556,0
1705,1.443525816866876,0
1706,-0.7830163030833723,0
1707,0.14413213754157037,0
1708,-0.06497547404434974,0
1709,-0.04882787165694958,0
1710,-0.09138994958401005,0
1711,-0.06709591182962481,0
1712,-0.06082741007045528,0
1713,0.040668886750503744,0
1714,-0.1239039519112616,0
1715,0.03850096897453255,0
1716,0.025053762187701265,0
1717,0.05246234730354776,0
1718,-0.04346125423663066,0
1719,-0.08867468049423978,0
1720,0.32220139122053626,0
1721,3.774856938526154,0
1722,6.765639202648079,0
1723,-0.724966155932618,0
1724,-1.6582195499198829,0
1725,1.4603896716991636,0
1726,-0.7707244095297827,0
1727,0.19089176333538005,0
1728,-0.08021948662647577,0
1729,-0.05067133462457424,0
1730,-0.04686870482933658,0
1731,-0.05226617227861431,0
1732,-0.041007720857292304,0
1733,-0.0974889463209662,0
1734,-0.01367703318050248,0
1735,0.034985248367412784,0
1736,-0.04746705375303916,0
1737,-0.022855491665939573,0
1738,-0.023248047980325738,0
1739,-0.010043021625228889,0
1740,0.2658088342527838,0
1741,3.858024381215457,0
1742,6.760811479314138,0
1743,-0.7352258610352075,0
1744,-1.779852194229071,0
1745,1.570537330558406,0
1746,-0.8177188829786404,0
1747,0.18099796183065286,0
1748,-0.06004094109804392,0
1749,-0.12344504246795165,0
1750,-0.020509935459560005,0
1751,-0.12070144311823322,0
1752,-0.020702321665848858,0
1753,-0.021380352985078652,0
1754,-0.024220141724528094,0
1755,-0.1682464994256285,0
1756,-0.08080042219139795,0
1757,0.0022342220567316343,0
1758,0.03685874724549816,0
1759,-0.08838333752771822,0
1760,0.3711112486099546,0
1761,3.7422828645725805,0
1762,6.677307908229254,0
1763,-0.856853683567966,0
1764,-1.6415335826720785,0
1765,1.4800686042231932,0
1766,-0.7588787714997304,0
1767,0.1405001014055522,0
1768,-0.01019684494665873,0
1769,-0.11611118974557053,0
1770,-0.03883460495284379,0
1771,-0.10343570850030676,0
1772,-0.05417704297537779,0
1773,-0.09417120066800047,0
1774,-0.054319597921874206,0
1775,-0.0083884419254798,0
1776,-0.0989449968393632,0
1777,-0.14280699444329198,0
1778,-0.06829232482045364,0
1779,-0.07894554781933738,0
1780,0.26175532304375143,0
1781,3.7916384852528413,0
1782,6.777815859740175,0
1783,-0.7866180535520392,0
1784,-1.6887715120064748,0
1785,1.4143426810131936,0
1786,-0.8130499802558733,0
1787,0.1828383514348842,0
1788,-0.0008949702943375475,0
1789,-0.02656345443630706,0
1790,-0.008590306539033157,0
1791,0.032840999148505766,0
1792,-0.036929364553553376,0
1793,-0.016744250210640313,0
1794,-0.12221194140967483,0
1795,0.01509103263606313,0
1796,-0.03614490363321303,0
1797,0.018650474326379615,0
1798,-0.024641390705749427,0
1799,-0.030696322374710167,0
1800,0.2575026449012984,0
1801,3.892660114629356,0
1802,6.774909030067512,0
1803,-0.7417155941987617,0
1804,-1.7262036486489938,0
1805,1.4970317152223014,0
1806,-0.8115702895101429,0
1807,0.22960296816783923,0
1808,0.035447003565792244,0
1809,0.04648732113218642,0
1810,0.007925997307925741,0
1811,-0.050181874232384065,0
1812,-0.001990727406725928,0
1813,-0.08775166026880707,0
1814,-0.015087653481825669,0
1815,-0.06840495428073294,0
1816,-0.005932705859595537,0
1817,-0.05816328197077056,0
1818,-0.05826203746061741,0
1819,-0.029509828488707653,0
1820,0.2867978762384909,0
1821,3.7128266185272016,0
1822,6.709738771341376,0
1823,-0.8109809187032881,0
1824,-1.7381760429099273,0
1825,1.338544771065854,0
1826,-0.8768485002787677,0
1827,0.13718356697199224,0
1828,-0.03330894992480387,0
1829,-0.06902875605716548,0
1830,-0.036197181376895295,0
1831,-0.13668833131049946,0
1832,-0.04456332693493002,0
1833,-0.056571824058981944,0
1834,0.035810346105231546,0
1835,0.012385216212584049,0
1836,-0.029104415930701972,0
1837,-0.008282005529167458,0
1838,-0.11662015242454761,0
1839,0.008822863409249568,0
1840,0.45062875894201804,0
1841,3.892119351599829,0
1842,6.666062049031912,0
1843,-0.7970389745474561,0
1844,-1.5807668763393523,0
1845,1.4993177830065265,0
1846,-0.7977428151635999,0
1847,0.19406140619362536,0
1848,0.026471079502937464,0
1849,-0.014411123242124516,0
1850,0.03593566205251687,0
1851,0.001267126418356218,0
1852,0.03340601785939947,0
1853,-0.05991419102164233,0
1854,-0.03451862482468665,0
1855,0.055245052247366914,0
1856,-0.05913100579925528,0
1857,0.01718090102871917,0
1858,-0.042624307025778574,0
1859,-0.018610556420935603,0
1860,0.34711649349079543,0
1861,3.787758285543901,0
1862,6.595939723557536,0
1863,-0.8340359634362133,0
1864,-1.683660180707728,0
1865,1.45155106377357,0
1866,-0.8079916569440931,0
1867,0.14774204579013384,0
1868,0.008809950727253026,0
1869,-0.06166995687038466,0
1870,-0.07731737677315563,0
1871,-0.0656094588136503,0
1872,0.0036215774249080263,0
1873,0.036200959676320726,0
1874,-0.025057951095419823,0
1875,0.023488443901919814,0
1876,0.015395571921361258,0
1877,0.013886168391775637,0
1878,-0.014909019522305778,0
1879,0.049179554683363866,0
1880,0.36387254053151646,0
1881,3.8991527692299055,0
1882,6.776519682957511,0
1883,-0.7047286929811968,0
1884,-1.6344550068611112,0
1885,1.513229759256718,0
1886,-0.7742087074003696,0
1887,0.1786943993577101,0
1888,0.043192045625543206,0
1889,0.035277623923309465,0
1890,0.026240634243166486,0
1891,0.026827190133136697,0
1892,0.08956285526637973,0
1893,-0.03219929122881485,0
1894,-0.002378410811886715,0
1895,0.05607455977937589,0
1896,0.15770314802053068,0
1897,0.057883012702674985,0
1898,0.025533331364522398,0
1899,0.0819794307251289,0
1900,0.46853997052382806,0
1901,3.8738026944128263,0
1902,6.762873816991691,0
1903,-0.7408180621638021,0
1904,-1.5587392471090147,0
1905,1.533322024485885,0
1906,-0.6776436353191749,0
1907,0.19080406957377713,0
1908,0.0941124197880433,0
1909,0.028718687049426442,0
1910,0.1003976111328767,0
1911,0.0033651499932497494,0
1912,0.03611398211923085,0
1913,0.05963706843148129,0
1914,0.024065102908114228,0
1915,0.025894074567873293,0
1916,-0.06614607196278595,0
1917,-0.03312236795770092,0
1918,0.047570409856243674,0
1919,0.05143670342724013,0
1920,0.27754990410065633,0
1921,3.881032862130965,0
1922,6.748379818650974,0
1923,-0.8012821731348936,0
1924,-1.730669231133491,0
1925,1.3865095536384602,0
1926,-0.8439264031944764,0
1927,0.1587548085693791,0
1928,-0.06887245099111867,0
1929,-0.13110691744970143,0
1930,0.04611099063943702,0
1931,-0.07571128145598283,0
1932,-0.14380979940037217,0
1933,-0.004026698990521743,0
1934,-0.05395085802025765,0
1935,-0.11997436428664027,0
1936,0.007569018885828019,0
1937,0.03056736278847985,0
1938,-0.014495541281908254,0
1939,-0.07240080232554347,0
1940,0.3225407738319923,0
1941,3.9007001736646636,0
1942,6.678861164551099,0
1943,-0.7508468152041321,0
1944,-1.59635948700691,0
1945,1.5849835409055746,0
1946,-0.7640832817221835,0
1947,0.1864622597957321,0
1948,-0.008590890437632202,0
1949,0.01298343130701627,0
1950,0.06559403887089951,0
1951,-0.0005689358885620083,0
1952,-0.07949416434180255,0
1953,-0.02577775977063873,0
1954,-0.005070159645956241,0
1955,0.03264032159153439,0
1956,-0.007710929956595263,0
1957,0.03548918267701242,0
1958,-0.03912212109645959,0
1959,-0.014963745104036277,0
1960,0.4041986852231866,0
1961,3.922392773158807,0
1962,6.811552375642864,0
1963,-0.7902996282324495,0
1964,-1.557971259602993,0
1965,1.523791171588849,0
1966,-0.6942081197604589,0
1967,0.20442883966394076,0
1968,0.050203676333403245,0
1969,-0.02118758413713552,0
1970,-0.011030973881853187,0
1971,-0.10041323372220369,0
1972,-0.0661965988614989,0
1973,0.07916352708646614,0
1974,0.015951287156876007,0
1975,0.05295456126941894,0
1976,-0.0028461572262475357,0
1977,0.0006616362219955619,0
1978,0.05170034815708016,0
1979,0.033012174595930366,0
1980,0.3059946884652598,0
1981,3.9227090338138484,0
1982,6.710245632988929,0
1983,-0.7529993933145297,0
1984,-1.6903596962385254,0
1985,1.4984713145957704,0
1986,-0.7960444181017821,0
1987,0.17960483973489647,0
1988,0.012136688699195599,0
1989,-0.015890874299608566,0
1990,-0.02948860205866362,0
1991,-0.04095814819509594,0
1992,-0.017781724296655508,0
1993,-0.00212622142954478,0
1994,0.03601517369724111,0
1995,0.05437907385429339,0
1996,-0.0012782416769517458,0
1997,-0.010260327612987803,0
1998,0.05177669212928956,0
1999,0.029563490639955135,0
2000,0.3953636572834221,0
2001,3.878703912049518,0
2002,6.69796762302317,0
2003,-0.8052724903169112,0
2004,-1.5580604420381197,0
2005,1.49268605003851,0
2006,-0.8183530780754886,0
2007,0.2317135651738108,0
2008,-0.0031753688153438467,0
2009,-0.0365023760847275,0
2010,-0.0002695949178467844,0
2011,0.07665088014517746,0
2012,-0.01456420272461923,0
2013,0.028559362578511913,0
2014,-0.006893534777492143,0
2015,0.0005238578576022175,0
2016,0.0796657310454871,0
2017,-0.0285299614469712,0
2018,-0.03406134726822107,0
2019,0.011901863756409902,0
2020,0.39024495380340424,0
2021,3.8788615841244702,0
2022,6.652802329492394,0
2023,-0.8173944729138466,0
2024,-1.627174516739108,0
2025,1.4814694135520075,0
2026,-0.751536409365255,0
2027,0.2062473517725164,0
2028,-0.032982333970217506,0
2029,0.04084092612710519,0
2030,0.11437749548238206,0
2031,0.01725476550578532,0
2032,0.0027333211484437186,0
2033,0.05272192885066197,0
2034,0.00399964496641118,0
2035,0.06840985922903585,0
2036,-0.06826039283520356,0
2037,-0.01098854650577185,0
2038,0.002570958855225073,0
2039,-0.07724796027312422,0
2040,0.3297109895454639,0
2041,3.795971776192983,0
2042,6.674910217520315,0
2043,-0.88136075582782,0
2044,-1.7133960029401731,0
2045,1.4185522955055483,0
2046,-0.7466258485302762,0
2047,0.17509110631010014,0
2048,-0.03893954390933999,0
2049,-0.08817719931678343,0
2050,0.030732854640765687,0
2051,0.06370062929791512,0
2052,-0.03518063342701542,0
2053,-0.08581500816376739,0
2054,0.05909022854301608,0
2055,-0.05291015167246793,0
2056,0.007980733354817315,0
2057,-0.02385488405769904,0
2058,-0.006879483716153507,0
2059,-0.09105452887265836,0
2060,0.2951945790413305,0
2061,3.848376937192011,0
2062,6.6950548918919734,0
2063,-0.7721841877057636,0
2064,-1.7246803540240832,0
2065,1.4117401420276634,0
2066,-0.8047478764500788,0
2067,0.15067144005244942,0
2068,0.0151518424079383,0
2069,-0.0705897374153734,0
2070,-0.06701894509756905,0
2071,0.05107908653825539,0
2072,-0.12114243910465297,0
2073,-0.0251411607847251,0
2074,-0.032447980470745916,0
2075,-0.08152818059894232,0
2076,-0.0767453892916146,0
2077,-0.013762945479462437,0
2078,0.020493880686559336,0
2079,-0.011247939711300017,0
2080,0.3099524456905021,0
2081,3.7811002552970963,0
2082,6.656537722042388,0
2083,-0.8989529674190333,0
2084,-1.5792348638257223,0
2085,1.4131930787324196,0
2086,-0.8888296812434293,0
2087,0.29416304764030277,0
2088,-0.01283925293342912,0
2089,0.00041732331431572345,0
2090,0.014854222829858578,0
2091,-0.026639931480298657,0
2092,-0.015167685456383959,0
2093,0.03775075189465052,0
2094,-0.0038821287338631945,0
2095,-0.041489712109662,0
2096,0.00600557179033074,0
2097,-0.04078981639628433,0
2098,0.003554767047944111,0
2099,0.024190733060605672,0
2100,0.38836621375282593,0
2101,3.877795567905563,0
2102,6.5831750179092365,0
2103,-0.8780291188849585,0
2104,-1.7388843279546804,0
2105,1.4624727613431687,0
2106,-0.7931047772480179,0
2107,0.1271107498779843,0
2108,-0.06206302819452668,0
2109,-0.0625022648597283,0
2110,-0.028490497460908232,0
2111,-0.09226433598116637,0
2112,-0.09936854626749558,0
2113,-0.011616254753006493,0
2114,-0.03268047387399185,0
2115,-0.06736309577709909,0
2116,-0.03461736262168111,0
2117,0.057086038886069806,0
2118,-0.0429146815263019,0
2119,-0.026542399343861448,0
2120,0.37859967049657167,0
2121,3.959126457166446,0
2122,6.714409181304214,0
2123,-0.8349541491801221,0
2124,-1.6105252099110086,0
2125,1.486381129157873,0
2126,-0.6868526709322347,0
2127,0.12420311639594547,0
2128,-0.03639408046210732,0
2129,-0.028187967504299617,0
2130,0.02251347589027793,0
2131,-0.03449534697797088,0
2132,-0.036352974893732765,0
2133,-0.1200978692345486,0
2134,0.05722073100917033,0
2135,-0.052423623953742185,0
2136,0.009767387359171473,0
2137,-0.12713751999188075,0
2138,-0.1048138108671956,0
2139,-0.05144325304982153,0
2140,0.2860744420368417,0
2141,3.8089197827911776,0
2142,6.6763637458189224,0
2143,-0.9913043046750734,0
2144,-1.6488837507112268,0
2145,1.424364756146089,0
2146,-0.8351337507794734,0
2147,0.11333329382515794,0
2148,-0.08802831334808234,0
2149,-0.07982962133304516,0
2150,0.014642024086757865,0
2151,0.00037573975491268785,0
2152,-0.05178170069261092,0
2153,-0.026947218841144906,0
2154,0.01832115057588598,0
2155,-0.012934938117714477,0
2156,0.006407131361543256,0
2157,-0.045032883587563306,0
2158,-0.003821821998266122,0
2159,0.045317455034867254,0
2160,0.34274959698056795,0
2161,3.8867355427685313,0
2162,6.758092504794687,0
2163,-0.8532995743340805,0
2164,-1.5930056674005098,0
2165,1.5318998249047509,0
2166,-0.6769356589979416,0
2167,0.12146184241075642,0
2168,-0.05537386688336557,0
2169,-0.03622800650527711,0
2170,-0.012053798854875376,0
2171,-0.033023095092319404,0
2172,0.05403833062269536,0
2173,0.0007436954781560971,0
2174,-0.06340073528367164,0
2175,-0.04124182212313038,0
2176,-0.0540851509247452,0
2177,-0.03135203562114239,0
2178,-0.0017703186975428923,0
2179,-0.029286501198360397,0
2180,0.39687621516123384,0
2181,3.930589026155601,0
2182,6.771910843978923,0
2183,-0.8529389300970138,0
2184,-1.5961247611576104,0
2185,1.5586732330436122,0
2186,-0.8041251160882986,0
2187,0.06060622376200567,0
2188,-0.0741565171582549,0
2189,-0.1651684978400746,0
2190,-0.09235711202956204,0
2191,-0.08727512463545446,0
2192,-0.11223241070485296,0
2193,-0.06507241194879675,0
2194,-0.12026996686478711,0
2195,-0.08917459316669982,0
2196,-0.1409276471143196,0
2197,-0.057435273627052544,0
2198,-0.054555112941300304,0
2199,-0.07838893535126132,0
2200,0.21584054723663637,0
2201,3.8929766851292467,0
2202,6.656693495255957,0
2203,-0.8139669051037983,0
2204,-1.569462926914021,0
2205,1.562180806907976,0
2206,-0.7611564467847581,0
2207,0.21994269981914716,0
2208,-0.08147832564691716,0
2209,0.039332315763814074,0
2210,0.04972465997282496,0
2211,-0.004938289305733903,0
2212,-0.04489824671607052,0
2213,0.013645607214600381,0
2214,-0.004613462786979378,0
2215,-0.009990309483025475,0
2216,-0.08845440922571779,0
2217,-0.10845432371245059,0
2218,0.04182818974269717,0
2219,0.04905272708520315,0
2220,0.34641339575714303,0
2221,3.810718511813788,0
2222,6.7573890246936585,0
2223,-0.9045509126088088,0
2224,-1.5954481447583122,0
2225,1.5150348833828169,0
2226,-0.7656920962264151,0
2227,0.2397053619495835,0
2228,-0.06846786321827941,0
2229,-0.022411851188250325,0
2230,-0.008447537418409937,0
2231,-0.05253516649458604,0
2232,0.0003641477674775021,0
2233,0.045127574363209216,0
2234,0.10355590586398292,0
2235,0.017763063203300684,0
2236,0.03353130089907042,0
2237,-0.0592076327379691,0
2238,-0.046387324420382924,0
2239,0.0004871735049228375,0
2240,0.3474382468719364,0
2241,3.958002618764453,0
2242,6.700601833307311,0
2243,-0.8247686452238949,0
2244,-1.4950333817136485,0
2245,1.4535732846755034,0
2246,-0.821810905618618,0
2247,0.19696055878959198,0
2248,-0.02169672894059719,0
2249,-0.014731226832664486,0
2250,0.016853760224418195,0
2251,-0.01634965347166747,0
2252,-0.004046296036894818,0
2253,-0.03208948135558077,0
2254,0.014805108368819986,0
2255,0.0725384823257325,0
2256,-0.0693671586255537,0
2257,0.027031317919901262,0
2258,-0.07485438605896202,0
2259,-0.03726906736832265,0
2260,0.39897445447955276,0
2261,3.897810865857843,0
2262,6.70372439153468,0
2263,-0.9132821346309381,0
2264,-1.623862319719976,0
2265,1.3756081537437599,0
2266,-0.7988802127993657,0
2267,0.14198685081489207,0
2268,-0.07675163350739413,0
2269,-0.06404066153459204,0
2270,-0.008667212698183883,0
2271,-0.049402181014560356,0
2272,0.03522138285731818,0
2273,-0.12360976191297249,0
2274,0.02167056083265713,0
2275,0.003435200836515953,0
2276,0.041625230128694395,0
2277,0.017270729746462272,0
2278,-0.012524950937611672,0
2279,-0.02879295750182757,0
2280,0.35264561343902634,0
2281,3.891884369585475,0
2282,6.650748665428313,0
2283,-1.0026871110231206,0
2284,-1.6090803031238496,0
2285,1.4330540722659946,0
2286,-0.7757188328409103,0
2287,0.11905879295073668,0
2288,-0.119090964106728,0
2289,-0.0649963660910013,0
2290,0.06368544231023504,0
2291,-0.041495188968327226,0
2292,-0.040788024866978245,0
2293,-0.051701962767425474,0
2294,-0.01857188840489873,0
2295,0.006905512826227943,0
2296,-0.2010248866600783,0
2297,-0.0680965241778611,0
2298,-0.03172604781518422,0
2299,0.03914599829023732,0
2300,0.20270176926937084,0
2301,3.816041323910829,0
2302,6.533451588921971,0
2303,-0.9658615643349411,0
2304,-1.6597523951114854,0
2305,1.3397938197218042,0
2306,-0.8181172931615035,0
2307,0.12523503553231513,0
2308,-0.003425864222971954,0
2309,-0.029269949451179396,0
2310,0.002973468082315831,0
2311,-0.12014428714855893,0
2312,-0.08992227101295147,0
2313,0.05136627446122509,0
2314,-0.016453464354544436,0
2315,-0.03180987875885684,0
2316,-0.0169643218634188,0
2317,-0.01550164871526822,0
2318,-0.06313546606554833,0
2319,-0.1331412280747841,0
2320,0.39360302486839005,0
2321,3.8938154524298754,0
2322,6.595189302428842,0
2323,-1.0319871520273873,0
2324,-1.6858096117576036,0
2325,1.4589720472253689,0
2326,-0.8091770024532711,0
2327,0.10496378227363591,0
2328,-0.07885524500049944,0
2329,-0.09521377139173257,0
2330,0.01840792678995285,0
2331,-0.0019764317884853402,0
2332,-0.026021583517134638,0
2333,-0.0016532668482846999,0
2334,-0.022293133444643752,0
2335,-0.027684772187296258,0
2336,0.058562821567766425,0
2337,-0.05849962687546611,0
2338,-0.06684824351258337,0
2339,-0.04197214218291009,0
2340,0.3673213052429621,0
2341,3.9244080967856516,0
2342,6.622716543232101,0
2343,-0.9267674763567806,0
2344,-1.6776308926920624,0
2345,1.3676353134235748,0
2346,-0.8411575526887468,0
2347,0.19946452733124176,0
2348,-0.04143296810240196,0
2349,-0.026796842486735816,0
2350,-0.01772471472845993,0
2351,0.0033579558524429697,0
2352,-0.005789104762417673,0
2353,-0.016095739344962577,0
2354,-0.04015149557795373,0
2355,0.058581473970869366,0
2356,-0.01301438450553443,0
2357,0.015238996002985516,0
2358,-0.006891436238529131,0
2359,-0.0036632749086840197,0
2360,0.44306876166694176,0
2361,3.874038110466123,0
2362,6.699739587636109,0
2363,-0.8834683816110278,0
2364,-1.516573608669273,0
2365,1.4607458406491414,0
2366,-0.785879961947937,0
2367,0.1473654916531049,0
2368,-0.040291698268673716,0
2369,-0.07524201853225582,0
2370,-0.04288705265082114,0
2371,0.008035972391575764,0
2372,0.058035075524330626,0
2373,-0.0025120777527222506,0
2374,-0.013400729071863734,0
2375,0.03884168026149107,0
2376,-0.017435173901068537,0
2377,-0.0301179742177964,0
2378,0.023716879252177414,0
2379,-0.05715396384322224,0
2380,0.3102695873710032,0
2381,3.8772783545647096,0
2382,6.5735168479642265,0
2383,-0.8689674386366942,0
2384,-1.5087429483180947,0
2385,1.4656668312995227,0
2386,-0.7956366473451726,0
2387,0.1564313462788081,0
2388,0.02245125980503893,0
2389,0.047844719584231546,0
2390,-0.04133531057961767,0
2391,-0.02189934666350673,0
2392,-0.002822385479766553,0
2393,0.06326728297435966,0
2394,-0.037104450857573315,0
2395,-0.05891012251022036,0
2396,0.03073097942396021,0
2397,-0.05410666356752053,0
2398,0.07524148552018753,0
2399,0.0886141138158882,0
2400,0.46066390809733715,0
2401,4.032198056738213,0
2402,6.674072136370074,0
2403,-0.8460909402524724,0
2404,-1.4974603558082369,0
2405,1.5356685527539042,0
2406,-0.748101880288011,0
2407,0.28485519389808184,0
2408,0.0014759898304421253,0
2409,-0.12163107382165367,0
2410,0.0645469364462032,0
2411,-0.00029926428271917125,0
2412,-0.02641856015068194,0
2413,0.030245032554056372,0
2414,0.006412931819780347,0
2415,0.011738534027617025,0
2416,0.010665097595269443,0
2417,0.058990647903446464,0
2418,-0.006038062108841145,0
2419,0.07267559629270762,0
2420,0.39565727781497995,0
2421,3.94019698672199,0
2422,6.735294445320727,0
2423,-0.839559297578974,0
2424,-1.4318038774814552,0
2425,1.4853631986714197,0
2426,-0.6755090795076331,0
2427,0.24137356976798555,0
2428,0.06095294139892111,0
2429,0.06851857455615779,0
2430,0.012292290143588472,0
2431,0.031635959844933836,0
2432,0.11275996715217948,0
2433,0.11794267720440857,0
2434,-0.009883426481645856,0
2435,0.11045913560631536,0
2436,-0.0009667669199305007,0
2437,0.018927008336078764,0
2438,0.12009026107230916,0
2439,0.06998365276137272,0
2440,0.40090435905472704,0
2441,3.9546671507170243,0
2442,6.77915984874601,0
2443,-0.8992780188855053,0
2444,-1.5308766593690906,0
2445,1.52701136712696,0
2446,-0.7112957567981752,0
2447,0.22410115628099198,0
2448,0.019267414583354743,0
2449,-0.02145622251621032,0
2450,0.06854377032907852,0
2451,0.10366303909907293,0
2452,0.07416939538816798,0
2453,0.06793128760157058,0
2454,0.12015226008115361,0
2455,0.04427352817819449,0
2456,0.03272790179690755,0
2457,0.024457274216930124,0
2458,0.001167178317375367,0
2459,0.022851893095130218,0
2460,0.3365404385110522,0
2461,4.0055882160576095,0
2462,6.725773135571834,0
2463,-0.8872532710487496,0
2464,-1.4882975089041481,0
2465,1.5718053305887345,0
2466,-0.7316359366060263,0
2467,0.1836418001900909,0
2468,0.02589774106868845,0
2469,-0.0022109416132885234,0
2470,0.04151243221330424,0
2471,-0.025705843839375957,0
2472,0.04980059966928417,0
2473,0.04754847396029888,0
2474,0.059535942285094914,0
2475,0.11579821004124531,0
2476,0.05155968323683849,0
2477,0.08684679560630117,0
2478,0.054398725172897844,0
2479,0.038565977515273075,0
2480,0.45294310860560083,0
2481,4.016996570361186,0
2482,6.766217328458972,0
2483,-0.8928678885999662,0
2484,-1.5194523162393132,0
2485,1.448575185443536,0
2486,-0.8172727065368528,0
2487,0.27066335416588366,0
2488,0.012207743817720638,0
2489,-0.09707720860519592,0
2490,0.06648837233995838,0
2491,0.023912524468371617,0
2492,-0.017708007709794377,0
2493,0.02105458209103238,0
2494,0.061079470949370815,0
2495,0.009678403659751766,0
2496,0.17032933415324675,0
2497,-0.03761437190076301,0
2498,-0.03583743641122347,0
2499,0.08195862130692773,0
2500,0.43562589447909994,0
2501,3.9681659615846723,0
2502,6.731615376656332,0
2503,-0.9190092884645898,0
2504,-1.495109881762323,0
2505,1.539441397505004,0
2506,-0.7070492250672931,0
2507,0.3352005133610975,0
2508,-0.008317066377063136,0
2509,-0.06560900621526516,0
2510,-0.0042189389629876325,0
2511,0.027452504899903907,0
2512,0.0065323928396833954,0
2513,0.11313112792455647,0
2514,-0.052086096431156984,0
2515,-0.0876004659985102,0
2516,-0.01313087178408794,0
2517,-0.09744076027461365,0
2518,0.09896543352346829,0
2519,-0.05822981362428935,0
2520,0.48383783540311254,0
2521,3.941260812408494,0
2522,6.66979344062831,0
2523,-0.963490058184967,0
2524,-1.6126083843631784,0
2525,1.4236550186507269,0
2526,-0.7894657290099034,0
2527,0.21842297587910597,0
2528,0.12757031967119684,0
2529,-0.12209586131645844,0
2530,0.054832213888870246,0
2531,-0.05856656522434646,0
2532,-0.022470926400800853,0
2533,0.09125452289114219,0
2534,-0.032923342726034185,0
2535,0.10747864742052889,0
2536,0.07656472358823471,0
2537,0.030349159301349994,0
2538,-0.0077453459163999774,0
2539,0.002738169308232778,0
2540,0.4541772867172034,0
2541,3.9663079708352864,0
2542,6.660303052884272,0
2543,-0.8153822825274021,0
2544,-1.3913339120771684,0
2545,1.5637883704107947,0
2546,-0.7979577563132663,0
2547,0.2878998898113662,0
2548,0.04915053688464246,0
2549,0.06758117621886364,0
2550,0.17265045977901955,0
2551,-0.006818440443556416,0
2552,0.14805798992351218,0
2553,-0.012661564803503778,0
2554,0.04615560015184998,0
2555,0.04106026389002332,0
2556,0.12419699699322836,0
2557,0.12686955898891794,0
2558,0.05108330897246881,0
2559,0.08165203600664206,0
2560,0.47879364660164725,0
2561,4.0724688690758875,0
2562,6.652692818656016,0
2563,-0.7640096359278998,0
2564,-1.3486153870146367,0
2565,1.5233824692801403,0
2566,-0.7104833226133545,0
2567,0.34532151550138446,0
2568,0.04705410487710815,0
2569,0.055171799220921185,0
2570,0.0697372681037314,0
2571,0.04377504193839028,0
2572,0.05333037304646085,0
2573,0.032914331868405915,0
2574,0.008638640328127146,0
2575,-0.02205403399298911,0
2576,0.11260501837640066,0
2577,0.029192814123965974,0
2578,0.04578327955617831,0
2579,0.06241651146863611,0
2580,0.44520386647473936,0
2581,3.9390751670100785,0
2582,6.697692831025603,0
2583,-0.9537190256859832,0
2584,-1.4194837505956213,0
2585,1.4484746783128346,0
2586,-0.7028148382319824,0
2587,0.2537747207210907,0
2588,0.016712186899480994,0
2589,0.05599089966307178,0
2590,0.12168140913908558,0
2591,0.09873834823168293,0
2592,0.06092610295126526,0
2593,0.02938571637403012,0
2594,0.0667596533957805,0
2595,0.25842960387531777,0
2596,0.09108199807564366,0
2597,0.03577430186987644,0
2598,-0.023074191337602842,0
2599,0.010078031750130109,0
2600,0.40004304782153355,0
2601,4.030509197148945,0
2602,6.669649358230945,0
2603,-0.8900626307950802,0
2604,-1.500777549994123,0
2605,1.474515976366573,0
2606,-0.7136189942882718,0
2607,0.33494954014395234,0
2608,-0.01854595501022141,0
2609,-0.001190688823877989,0
2610,0.06343126379481683,0
2611,0.07048849109932838,0
2612,0.12572682746414032,0
2613,0.038108925848240965,0
2614,0.021937595624382036,0
2615,0.034465042274923724,0
2616,0.1498456606304322,0
2617,0.08369354797606589,0
2618,0.00727952741247391,0
2619,0.10133727551056168,0
2620,0.37003577904694057,0
2621,4.064368394386052,0
2622,6.8278493085814,0
2623,-0.9542264795604125,0
2624,-1.5081136440877845,0
2625,1.4813140519871508,0
2626,-0.7306656282180555,0
2627,0.15378657860989842,0
2628,0.09581167244995759,0
2629,0.10028128331983288,0
2630,0.052095572199963316,0
2631,0.11589364667772106,0
2632,0.006888160999475014,0
2633,0.08922006002761226,0
2634,0.07595527314398909,0
2635,0.003615583717220615,0
2636,0.03154497489824375,0
2637,0.09695250976216634,0
2638,0.04460878591583088,0
2639,0.14076942485788435,0
2640,0.45139759376797395,0
2641,4.074895193031659,0
2642,6.768814896571475,0
2643,-0.9006112558334223,0
2644,-1.569737478166116,0
2645,1.4169110850734874,0
2646,-0.769323711969955,0
2647,0.2741267767166891,0
2648,0.021860590091357254,0
2649,0.028610689798312737,0
2650,-0.009166332025446075,0
2651,0.008603894251278527,0
2652,-0.003516073912413216,0
2653,0.030192259507243812,0
2654,0.057119190433998074,0
2655,0.01571273472107771,0
2656,0.06768313593153188,0
2657,-0.02710632993119335,0
2658,0.06173716001607506,0
2659,0.07058166593771772,0
2660,0.39922681552873235,0
2661,4.0325604845063765,0
2662,6.7399570987781345,0
2663,-0.8622319752135169,0
2664,-1.4508660383319691,0
2665,1.4978276610871035,0
2666,-0.6714445315900088,0
2667,0.23871059051314608,0
2668,0.07712803017802108,0
2669,0.11443559081557625,0
2670,0.02897304699198481,0
2671,0.08988279677442504,0
2672,0.01616998501443405,0
2673,0.10454285158638343,0
2674,0.04444454316198277,0
2675,-0.01234498183766753,0
2676,0.02777387080596268,0
2677,0.03743089879092977,0
2678,0.054632369261959635,0
2679,0.10485636228698861,0
2680,0.4103751061343899,0
2681,4.008533004132694,0
2682,6.6235778192684345,0
2683,-1.0034350945785178,0
2684,-1.490486877651455,0
2685,1.4139817351997057,0
2686,-0.7929968844787652,0
2687,0.1689988520714943,0
2688,0.05865906022831751,0
2689,-0.010464790452118462,0
2690,0.11471459626198616,0
2691,0.012096538980546911,0
2692,0.04214447713249626,0
2693,0.06950410433748451,0
2694,0.0927629419625545,0
2695,0.05022568283501048,0
2696,0.11223064872221017,0
2697,0.11240471152901096,0
2698,0.06507755445073521,0
2699,0.07153064779876783,0
2700,0.40121794242073483,0
2701,4.053968183570614,0
2702,6.65634765791574,0
2703,-0.9051415188848765,0
2704,-1.4865830825912227,0
2705,1.4567597175083051,0
2706,-0.7378095152499464,0
2707,0.16033969411824023,0
2708,-0.03183809486341631,0
2709,-0.003512780912756029,0
2710,0.10965606517959509,0
2711,0.06844216021698023,0
2712,-0.015279069341399592,0
2713,0.023823643738446136,0
2714,0.05198300102852684,0
2715,-0.04374828587735173,0
2716,0.0038691118358831506,0
2717,0.08598880748655802,0
2718,0.06689590000816052,0
2719,-0.08076658076589331,0
2720,0.32467196734945175,0
2721,4.059694883141956,0
2722,6.672851630057299,0
2723,-1.0130453053339452,0
2724,-1.5554998310047943,0
2725,1.3739298776706212,0
2726,-0.8588989496692655,0
2727,0.16444905783502134,0
2728,0.03804750320161617,0
2729,-0.07042395118244088,0
2730,0.04505076528460798,0
2731,-0.022001270138781632,0
2732,0.09927267371680759,0
2733,0.01944936174570985,0
2734,0.0033198814989508947,0
2735,0.06617936144836452,0
2736,0.0484471595731914,0
2737,0.02401704420596433,0
2738,0.06829064629603177,0
2739,0.06507612231043595,0
2740,0.4463442071536343,0
2741,4.077792928496693,0
2742,6.737669205934026,0
2743,-0.9879256131760148,0
2744,-1.4490796496541671,0
2745,1.4219009203376582,0
2746,-0.7287032014870233,0
2747,0.2511938733063798,0
2748,0.11093256184915974,0
2749,0.08447945877063634,0
2750,-0.0017647197991360365,0
2751,0.016450091741982923,0
2752,-0.034998056847937935,0
2753,0.011168936526992235,0
2754,-0.023750037842119424,0
2755,-0.029416913987454357,0
2756,0.07960425610255317,0
2757,0.04113944254534261,0
2758,-0.029170107023541815,0
2759,-0.033775852854723044,0
2760,0.41288548120205887,0
2761,4.000712619735619,0
2762,6.590277460213131,0
2763,-0.9322617452723987,0
2764,-1.4647240017640284,0
2765,1.4035923924924727,0
2766,-0.8226294906186852,0
2767,0.1677427553035143,0
2768,0.05522969352617373,0
2769,-0.01988254286056141,0
2770,-0.06654720032761335,0
2771,0.055316869072620276,0
2772,-0.02470516633528331,0
2773,-0.15092758040779644,0
2774,0.01596499485500661,0
2775,0.017341578739030288,0
2776,0.03147784306927423,0
2777,0.02316894842120633,0
2778,-0.051716858891064574,0
2779,-0.029103683637354494,0
2780,0.40862774752528247,0
2781,4.004535779858154,0
2782,6.613139772811557,0
2783,-1.049709734477503,0
2784,-1.56481837865743,0
2785,1.4436411133504838,0
2786,-0.7481706697517951,0
2787,0.153430779921424,0
2788,-0.021843536003289792,0
2789,-0.085031978013341,0
2790,-0.02496484831511448,0
2791,0.005867223754061766,0
2792,0.0593788762936287,0
2793,0.06317057784436803,0
2794,0.010149945964840335,0
2795,0.02291237030445388,0
2796,0.06184743656925462,0
2797,0.03580511941983213,0
2798,-0.005366624728869975,0
2799,0.03401007531821044,0
2800,0.3846936273446252,0
2801,4.050311278622776,0
2802,6.658967500601311,0
2803,-0.9758127280169477,0
2804,-1.5998693345851756,0
2805,1.4827014083939027,0
2806,-0.6807670768883158,0
2807,0.17249794535575502,0
2808,0.04967292557712713,0
2809,-0.05836385779266485,0
2810,-0.04465939972105088,0
2811,0.0033132546583544593,0
2812,0.0007082741532586055,0
2813,-0.12497688158643103,0
2814,0.01594695830084015,0
2815,-0.06873056049322608,0
2816,-0.013346194004220897,0
2817,0.0027885033278845506,0
2818,-0.08838378123166635,0
2819,-0.07603128440772043,0
2820,0.3622863971058407,0
2821,3.947776535204072,0
2822,6.584650778634069,0
2823,-1.1243816668273237,0
2824,-1.5756200316028641,0
2825,1.321485593411133,0
2826,-0.7993460624566505,0
2827,0.16523291192523695,0
2828,-0.03361641811278737,0
2829,-0.012074039820348909,0
2830,-0.09015430654246688,0
2831,-0.023759666024821824,0
2832,-0.05532228611507331,0
2833,-0.04388411150844089,0
2834,0.043534531876370755,0
2835,-0.0755967801369192,0
2836,-0.03310767785907893,0
2837,-0.01931927733168203,0
2838,-0.04140094490885683,0
2839,-0.001236819734455153,0
2840,0.3142487461110141,0
2841,4.040683723887839,0
2842,6.634192643871513,0
2843,-1.0237562236040028,0
2844,-1.4699057025361064,0
2845,1.4340751793926165,0
2846,-0.7093060399330819,0
2847,0.32660222263013716,0
2848,-0.052871155306271775,0
2849,-0.07458499665510598,0
2850,-0.1426868119184897,0
2851,-0.045576192565698434,0
2852,-0.0292652296749903,0
2853,-0.0690386387424528,0
2854,-0.11377309316128588,0
2855,-0.0005097412893816152,0
2856,-0.03483521077687168,0
2857,-0.03664240410972756,0
2858,-0.04766704475188681,0
2859,-0.024458265387874507,0
2860,0.3225804593767974,0
2861,4.018272079823648,0
2862,6.638676987219584,0
2863,-1.0976984149243219,0
2864,-1.5566093206755593,0
2865,1.3446198530728166,0
2866,-0.7121138645061895,0
2867,0.29722362031241,0
2868,-0.06005126049614035,0
2869,0.0661081075925858,0
2870,0.02302876907225301,0
2871,-0.040116925045416876,0
2872,-0.13668144064672927,0
2873,-0.002021770903833355,0
2874,0.03405800711749412,0
2875,-0.01115998577178994,0
2876,-0.04532565375579155,0
2877,-0.001898524164946961,0
2878,0.060167743057675256,0
2879,-0.04212287651553307,0
2880,0.35912974597333824,0
2881,4.017408157442731,0
2882,6.596684984732752,0
2883,-1.0085255807505695,0
2884,-1.6008385491979147,0
2885,1.3545835900778938,0
2886,-0.8069274596775133,0
2887,0.10831409261011435,0
2888,-0.04393194334138954,0
2889,0.04538006662304131,0
2890,0.028178332875361204,0
2891,0.025961393945613198,0
2892,-0.0348415580096665,0
2893,0.10976928441641126,0
2894,0.04697124272275372,0
2895,0.036151247463123454,0
2896,-0.047122397336878834,0
2897,0.04463291221715511,0
2898,0.043064224542895865,0
2899,-0.07428727966335419,0
2900,0.3547535517580885,0
2901,3.9991367025976117,0
2902,6.69939951969489,0
2903,-1.002657936397022,0
2904,-1.5323229294207683,0
2905,1.5159904692374273,0
2906,-0.8114334680731915,0
2907,0.22001996503561122,0
2908,-0.01798735320559157,0
2909,-0.07819934989276553,0
2910,0.00022630569926346267,0
2911,-0.08303933125743022,0
2912,-0.04688644307627365,0
2913,-0.05968033637343453,0
2914,-0.01835822994150753,0
2915,-0.03596122976515408,0
2916,0.02300172984005898,0
2917,-0.053350662428935505,0
2918,0.010541497078680323,0
2919,-0.10746599175991796,0
2920,0.35573530042300366,0
2921,4.031225445265733,0
2922,6.627959314798273,0
2923,-1.123227666679679,0
2924,-1.499225853367968,0
2925,1.434762069992915,0
2926,-0.8449473349643888,0
2927,0.18847417143034878,0
2928,-0.013895387607158124,0
2929,-0.1256733482851028,0
2930,0.014098612904055861,0
2931,-0.046388047339649296,0
2932,-0.02743476344985804,0
2933,-0.018329910481307415,0
2934,-0.007953590031615568,0
2935,0.03623879147639924,0
2936,0.01573910334027967,0
2937,-0.10602382344403825,0
2938,-0.027740620462506645,0
2939,-0.06939082531905036,0
2940,0.3625010340459941,0
2941,3.9520403524751186,0
2942,6.6458706857529775,0
2943,-1.1410794851410218,0
2944,-1.557197413181607,0
2945,1.3546860371411462,0
2946,-0.8076642255135107,0
2947,0.08513838406739141,0
2948,-0.09077341631048587,0
2949,-0.14417452876414255,0
2950,-0.03115473097393935,0
2951,-0.049597332020819514,0
2952,0.013581476953904478,0
2953,-0.11249038219667637,0
2954,-0.027192495389114935,0
2955,-0.13754598555247843,0
2956,-0.067165300034003,0
2957,-0.04159221997015278,0
2958,-0.15454323982820334,0
2959,-0.02157227225084191,0
2960,0.34442091822411736,0
2961,3.997565955031759,0
2962,6.580043200734449,0
2963,-1.0645736100009793,0
2964,-1.5812388599195426,0
2965,1.3438456828354304,0
2966,-0.7437049572993562,0
2967,0.2536435148598948,0
2968,-0.07138593584226731,0
2969,0.0051457515360325695,0
2970,0.045199540912447204,0
2971,-0.009149243328195729,0
2972,-0.04202742269926187,0
2973,-0.1264708155956391,0
2974,0.031031510742220443,0
2975,-0.04624120249895326,0
2976,-0.02689137272496273,0
2977,-0.01580541190981251,0
2978,0.06194004375850566,0
2979,-0.14644862008593967,0
2980,0.3337711355843762,0
2981,4.0777938126803885,0
2982,6.581343650582448,0
2983,-1.0629584506908047,0
2984,-1.5022908432579676,0
2985,1.3501896172461303,0
2986,-0.822203057801376,0
2987,0.13042711173547894,0
2988,-0.08352452412746804,0
2989,-0.09599110445927664,0
2990,-0.04047037564016732,0
2991,-0.058599903890588834,0
2992,-0.056293022630246436,0
2993,-0.15702723767594381,0
2994,-0.004537785050431287,0
2995,0.06531613731482064,0
2996,-0.11138370711502657,0
2997,0.07497801139620644,0
2998,-0.06423101173783019,0
2999,-0.02764507054185658,0
3000,0.32080450742482874,0
3001,4.017255797881368,0
3002,6.608636012855158,0
3003,-1.127343407948153,0
3004,-1.5167288006799915,0
3005,1.4671063040572812,0
3006,-0.7605915869996617,0
3007,0.02875645686983236,0
3008,-0.006800031588186935,0
3009,-0.069568512168725,0
3010,0.028537921833432428,0
3011,-0.04629250358629433,0
3012,0.06594371755345774,0
3013,-0.017933919493562066,0
3014,0.04924376302858281,0
3015,0.020043820406088056,0
3016,-0.006841459331857074,0
3017,-0.06021619709296638,0
3018,-0.009193744200051514,0
3019,-0.038574804717423306,0
3020,0.3837994028651391,0
3021,3.9882148830635296,0
3022,6.652496622747932,0
3023,-0.9928841238727002,0
3024,-1.3648554654948473,0
3025,1.3919253014069708,0
3026,-0.7730066335662771,0
3027,0.22430123745381067,0
3028,-0.031857546533914094,0
3029,-0.003236505919929685,0
3030,-0.007585905813400393,0
3031,-0.018451999034196823,0
3032,-0.0480024202124478,0
3033,0.05207892894284373,0
3034,-0.06297296388108754,0
3035,-0.03366486608826867,0
3036,0.023044439375461395,0
3037,-0.000501006983993163,0
3038,-0.0015619948314128385,0
3039,0.029541076555760118,0
3040,0.4489410417327756,0
3041,4.117970843577314,0
3042,6.6330169681495645,0
3043,-0.9470260595421718,0
3044,-1.472363605265371,0
3045,1.5325266167702525,0
3046,-0.7308690083967505,0
3047,0.23222569680477714,0
3048,0.10048556190736618,0
3049,0.027495461183430967,0
3050,0.06496939613538964,0
3051,0.035804899645704026,0
3052,0.06582188392748545,0
3053,0.032135025063369,0
3054,0.06660288779709017,0
3055,0.08740649554204709,0
3056,-0.00487211863917332,0
3057,0.088077683632038,0
3058,0.06147455703403238,0
3059,0.11665514041507297,0
3060,0.41571242648141504,0
3061,4.032701899976746,0
3062,6.720261214656628,0
3063,-0.9026442936289094,0
3064,-1.420467461138637,0
3065,1.5161872951904787,0
3066,-0.7283391377174611,0
3067,0.32028267549814265,0
3068,0.05991239590855798,0
3069,0.08558709919320584,0
3070,0.2315761650665186,0
3071,0.04756690530199869,0
3072,0.06313253373062133,0
3073,0.13531401967351298,0
3074,0.06042706250834182,0
3075,0.1075376465196035,0
3076,0.13756096545644214,0
3077,0.09206557767657908,0
3078,0.056243293411164456,0
3079,0.08109958405195408,0
3080,0.41980405209747457,0
3081,4.0701261643640665,0
3082,6.731233803206334,0
3083,-1.013543924661211,0
3084,-1.3954585326290845,0
3085,1.6069689750640508,0
3086,-0.7017210972416003,0
3087,0.2457138381408712,0
3088,0.10608472735791905,0
3089,0.06571214340493856,0
3090,0.14425828406984237,0
3091,0.19255384416958005,0
3092,0.09594418903818344,0
3093,0.11386739978535096,0
3094,0.15508734177226297,0
3095,0.1281162328919216,0
3096,0.05249100339150721,0
3097,0.0552610487917589,0
3098,0.04312162082676915,0
3099,-0.011273171124279946,0
3100,0.47945840841398746,0
3101,4.079856129021814,0
3102,6.7558007645422,0
3103,-1.0613210113001197,0
3104,-1.40427880540992,0
3105,1.5666140491615759,0
3106,-0.5590478391896233,0
3107,0.31408131938895884,0
3108,0.14479698532790575,0
3109,0.21418457443280212,0
3110,0.2703530589338685,0
3111,0.19823388267244466,0
3112,0.17536334327140032,0
3113,0.1833951508420509,0
3114,0.22208347803553333,0
3115,0.16548917329045554,0
3116,0.19183768716162142,0
3117,0.14720949540892816,0
3118,0.19211526407601226,0
3119,0.20086076824538027,0
3120,0.5200238482146019,0
3121,4.262215480807713,0
3122,6.719074433072317,0
3123,-0.9766814809641027,0
3124,-1.270368258578724,0
3125,1.6190024879842244,0
3126,-0.6955797392919651,0
3127,0.32744597287570987,0
3128,0.18322245213995714,0
3129,0.06435050209884927,0
3130,0.029396141356076322,0
3131,0.06478839654682751,0
3132,0.13234512550857214,0
3133,0.14753011663591903,0
3134,0.15494507006779762,0
3135,0.16760999510883776,0
3136,0.22316646652089092,0
3137,0.11875582712870415,0
3138,0.20489389060793123,0
3139,0.18122431077751874,0
3140,0.7356324133525431,0
3141,4.184508389719439,0
3142,6.706633068971531,0
3143,-0.8998687578538823,0
3144,-1.2424151103110874,0
3145,1.65406680935649,0
3146,-0.6937138091990628,0
3147,0.3538499784366216,0
3148,0.23400565906858029,0
3149,0.04730791963727231,0
3150,0.17768478914246613,0
3151,0.23003585066509472,0
3152,0.15657330880897458,0
3153,0.12993781291095713,0
3154,0.1669648646137366,0
3155,0.05604766061364584,0
3156,0.033647261396913514,0
3157,0.12954432125680732,0
3158,0.04833922633295897,0
3159,0.015386448398381006,0
3160,0.4795507330624601,0
3161,4.224260219273869,0
3162,6.7314507571997435,0
3163,-1.018595031934077,0
3164,-1.3340577076877576,0
3165,1.5330098119553337,0
3166,-0.7027737722727883,0
3167,0.3324195511063649,0
3168,0.10352640343838782,0
3169,0.06666974636035622,0
3170,0.12367307193188057,0
3171,0.04915343617562034,0
3172,0.03983533239652001,0
3173,0.11888465541584181,0
3174,0.056158567949611875,0
3175,0.17012801285510076,0
3176,0.08128271970016747,0
3177,0.1285118355955206,0
3178,0.1018596108946798,0
3179,0.081727793529839,0
3180,0.5329368039809562,0
3181,4.155729796282611,0
3182,6.722172092564237,0
3183,-1.0723863998481635,0
3184,-1.2995370325071973,0
3185,1.470757339049274,0
3186,-0.70251061386082,0
3187,0.2427700640124606,0
3188,-0.02936572355090733,0
3189,-0.07239692850710146,0
3190,0.1722711728561208,0
3191,0.12834535908379532,0
3192,0.1296926979098337,0
3193,0.15434964603131424,0
3194,0.04376451121257251,0
3195,0.15831641723305173,0
3196,0.04060706040444072,0
3197,0.09399508906385758,0
3198,0.060585059680144035,0
3199,0.06875844758438604,0
3200,0.5012302417477976,0
3201,4.1945136657424795,0
3202,6.6156309108191245,0
3203,-1.0764185615156843,0
3204,-1.3868570255360937,0
3205,1.5772829237726411,0
3206,-0.7059967245404565,0
3207,0.24657955415597335,0
3208,-0.06514014485035687,0
3209,0.11382645689294614,0
3210,0.03542351929054144,0
3211,0.061262497596818,0
3212,0.01961151591311302,0
3213,0.09186777273999955,0
3214,0.10608235856378177,0
3215,0.11641172447863073,0
3216,-0.0084936643279655,0
3217,0.11130787573900841,0
3218,0.017767082250867094,0
3219,-0.03983456291111501,0
3220,0.43702886018235554,0
3221,4.116676004871724,0
3222,6.607433799336702,0
3223,-1.2136578893401009,0
3224,-1.449292640167332,0
3225,1.3805229532488306,0
3226,-0.8824674227845327,0
3227,0.2521203643701659,0
3228,-0.011092107156819603,0
3229,-0.09763631457714915,0
3230,-0.04152768558359639,0
3231,-0.06674971632919437,0
3232,0.006402519313982662,0
3233,-0.0806319370642987,0
3234,-0.057245699649662876,0
3235,-5.421913864252226e-05,0
3236,-0.07971319870473523,0
3237,0.030232081830763445,0
3238,0.01910442716282353,0
3239,-0.006864272171589029,0
3240,0.41308257509370616,0
3241,4.053025762300479,0
3242,6.574844119853225,0
3243,-1.1655306205579008,0
3244,-1.4832771912250768,0
3245,1.4111903695318155,0
3246,-0.8955906708462269,0
3247,0.22022911610493523,0
3248,-0.09352664118813926,0
3249,-0.10010033920412091,0
3250,-0.03054753005219199,0
3251,-0.032136128600327336,0
3252,-0.06557972047732588,0
3253,0.05302994810504771,0
3254,-0.07377524415622136,0
3255,-0.01674661772650925,0
3256,-0.09694295508678699,0
3257,-0.08689305327109732,0
3258,-0.03562783926142337,0
3259,-0.14236367111987625,0
3260,0.46416636314664717,0
3261,4.050197715340416,0
3262,6.615954400503634,0
3263,-1.049311241095215,0
3264,-1.5209505537672263,0
3265,1.4084823676082263,0
3266,-0.7050930806438991,0
3267,0.19458148787358198,0
3268,-0.027289683369154476,0
3269,-0.0559883020436857,0
3270,-0.025935413529477556,0
3271,0.04068539945506465,0
3272,0.025513614657934273,0
3273,-0.042577152483745564,0
3274,0.06055572548403951,0
3275,-0.02421045587300756,0
3276,0.005360855068255729,0
3277,-0.10312600590829704,0
3278,-0.13274887048636783,0
3279,-0.0785034580434393,0
3280,0.33398905835440085,0
3281,4.096677630710666,0
3282,6.534015149545976,0
3283,-1.1356448199417915,0
3284,-1.5114574744124436,0
3285,1.4161763510168706,0
3286,-0.8262577033613167,0
3287,0.20242177422050917,0
3288,-0.06825555964796304,0
3289,0.0027863116544767502,0
3290,0.028455596837603077,0
3291,-0.015483384503973244,0
3292,0.0044204100039909044,0
3293,-0.05015436159804628,0
3294,-0.013680132315181264,0
3295,-0.04215112915218448,0
3296,0.05528341909937647,0
3297,-0.05958055108584094,0
3298,-0.11679811101815352,0
3299,0.011249920478967015,0
3300,0.4046371055022029,0
3301,4.094244561628607,0
3302,6.549074236428203,0
3303,-1.1909442033061437,0
3304,-1.5050767865472412,0
3305,1.4702841395121833,0
3306,-0.8757325058326706,0
3307,0.11262275000868446,0
3308,0.006947746152907157,0
3309,-0.11056285494418067,0
3310,0.024310202639295612,0
3311,0.032863152984006584,0
3312,-0.02664701381719617,0
3313,-0.05351515102574854,0
3314,0.004752494426407344,0
3315,0.10048558964740235,0
3316,-0.0419139790810456,0
3317,-0.08156273484633605,0
3318,0.06238848323387915,0
3319,-0.048616063280817516,0
3320,0.38980438381430094,0
3321,4.135849770003854,0
3322,6.576836841602208,0
3323,-1.0737587740465524,0
3324,-1.4046881226669217,0
3325,1.4218001270833291,0
3326,-0.7929725961516538,0
3327,0.14301594099905518,0
3328,-0.08659795368958148,0
3329,-0.06448020967207713,0
3330,0.011048148555427507,0
3331,0.009447837023555653,0
3332,0.005318505395831974,0
3333,0.08666732982847153,0
3334,-0.009637007808063897,0
3335,-0.014642223129892341,0
3336,-0.01220578379720141,0
3337,0.027514152128107882,0
3338,0.018435432728741027,0
3339,0.0068599782640005125,0
3340,0.3263131121815377,0
3341,4.134896073591636,0
3342,6.577166650946833,0
3343,-1.22176147173401,0
3344,-1.4025754814081108,0
3345,1.5172120677106726,0
3346,-0.7566805947833194,0
3347,0.24036697324339554,0
3348,0.05450966450280016,0
3349,-0.0042891050821317256,0
3350,0.09977980106498587,0
3351,-0.07686685981326961,0
3352,-0.016263637507867676,0
3353,0.026303156895640677,0
3354,0.10235750853397034,0
3355,0.01752267733279525,0
3356,0.041081478781627476,0
3357,0.001382957818424433,0
3358,-0.030376636293810905,0
3359,0.01059783581425847,0
3360,0.4877885602900508,0
3361,4.156586134706116,0
3362,6.529573325243078,0
3363,-1.0912514442793049,0
3364,-1.487369666147701,0
3365,1.4755650511940295,0
3366,-0.7040126532002138,0
3367,0.20431304033864417,0
3368,-0.08293025160216706,0
3369,-0.06325994167474766,0
3370,0.012749695142428644,0
3371,-0.06320824749035081,0
3372,0.015139969841613244,0
3373,0.0981918454081579,0
3374,0.004775007512365655,0
3375,0.04989805193327387,0
3376,0.04208039673410805,0
3377,0.06314700463187822,0
3378,-0.017032412430835427,0
3379,0.07328293874397651,0
3380,0.42969800166946376,0
3381,4.030249647903476,0
3382,6.5642492738300255,0
3383,-1.1497016761513459,0
3384,-1.4073364194805726,0
3385,1.394289457009614,0
3386,-0.7636383253325341,0
3387,0.17800795815470732,0
3388,0.03304437727373864,0
3389,-0.039444423427964614,0
3390,0.011421730829289097,0
3391,0.018485683741360445,0
3392,-0.05018548936769376,0
3393,-0.010830100474647785,0
3394,0.06464487343282335,0
3395,0.06510984480177676,0
3396,0.12130120974217623,0
3397,0.07817533237062665,0
3398,-0.003378893464612509,0
3399,0.10668366263903933,0
3400,0.39424217576405546,0
3401,4.148455173731203,0
3402,6.649855623996648,0
3403,-1.1231853125006739,0
3404,-1.354991143404919,0
3405,1.4099051110253964,0
3406,-0.7335399016452553,0
3407,0.2424441717317206,0
3408,-0.005270854058611716,0
3409,0.021691117304761354,0
3410,0.10951986669236628,0
3411,-0.008883484167544194,0
3412,-0.03562494329332663,0
3413,0.11321479695598063,0
3414,0.06744850448314776,0
3415,0.09903290863026333,0
3416,0.025931324373264432,0
3417,0.0945950946802475,0
3418,0.00037080314730750415,0
3419,-0.07258277560531431,0
3420,0.4698274769217436,0
3421,4.126746438362366,0
3422,6.63290475666137,0
3423,-1.170358597411112,0
3424,-1.452167579732863,0
3425,1.4255247985519637,0
3426,-0.8510980236067748,0
3427,0.2942070679519462,0
3428,-0.06517034035229212,0
3429,-0.11322872687414146,0
3430,-0.06303343560697422,0
3431,-0.061635657285022884,0
3432,0.017883490491472233,0
3433,0.016171663376607574,0
3434,-0.0030009891179493655,0
3435,-0.008206781910661915,0
3436,0.05589392937988038,0
3437,-0.07621552399173674,0
3438,-0.02253513757687399,0
3439,-0.0024174732348198613,0
3440,0.27020555009280584,0
3441,4.024303978469713,0
3442,6.569066819349486,0
3443,-1.1591267974566666,0
3444,-1.4320107632950418,0
3445,1.407943387887508,0
3446,-0.8003490029825787,0
3447,0.19437049635933815,0
3448,-0.029249951747936147,0
3449,-0.09943860595977524,0
3450,0.13212341934213537,0
3451,0.05328845453209,0
3452,0.10064011765363336,0
3453,0.04186723913746018,0
3454,0.012026224634932435,0
3455,0.0750108075059494,0
3456,0.13163014997282463,0
3457,0.09412621112873887,0
3458,0.09443718780141089,0
3459,0.0856738843412103,0
3460,0.459669201064753,0
3461,4.129704296414712,0
3462,6.684172299560735,0
3463,-1.1184940117142044,0
3464,-1.368848137864311,0
3465,1.4174637921869708,0
3466,-0.8383012394465033,0
3467,0.22928688436195024,0
3468,0.06794705537461021,0
3469,-0.12365636344824783,0
3470,-0.0456484099755846,0
3471,-0.06308188169681099,0
3472,-0.17217506302131033,0
3473,-0.05651957846157499,0
3474,-0.04469305606850474,0
3475,-0.011002342621872344,0
3476,-0.002620765843096416,0
3477,-0.01635514492271878,0
3478,-0.003932724608050115,0
3479,0.03989195783221078,0
3480,0.4614198266679514,0
3481,4.2296724201281135,0
3482,6.593204038056756,0
3483,-1.1222344641199178,0
3484,-1.3395028676717304,0
3485,1.505202831442764,0
3486,-0.781682078094835,0
3487,0.30786793859338585,0
3488,0.13221684992863664,0
3489,0.050291127483705525,0
3490,0.1354136303152835,0
3491,0.051180123690651835,0
3492,0.12800618995486027,0
3493,0.07160035223684931,0
3494,0.08094385370763672,0
3495,0.11539730314627089,0
3496,0.029219137263474037,0
3497,0.05816588162009063,0
3498,-0.029347528153867722,0
3499,0.07754630725638426,0
3500,0.48036985573647245,0
3501,4.1600386919376415,0
3502,6.675644232169878,0
3503,-1.1746765145105447,0
3504,-1.3200551800388665,0
3505,1.5110183704832547,0
3506,-0.7540403091209545,0
3507,0.2395624413572522,0
3508,0.04566665384471662,0
3509,0.09748686648284276,0
3510,0.06670499457632141,0
3511,0.13907304257644104,0
3512,0.06245928781704997,0
3513,0.08355798728700514,0
3514,0.08859553549741592,0
3515,0.17915815954273348,0
3516,0.07925597647962224,0
3517,0.09186728720698176,0
3518,0.04754176686881311,0
3519,0.057178524601891566,0
3520,0.48975973610486295,0
3521,4.259688564196863,0
3522,6.602454460608639,0
3523,-1.1328063399444073,0
3524,-1.270621157387039,0
3525,1.393319688284268,0
3526,-0.693020022415727,0
3527,0.3569751524022936,0
3528,0.06535574496812638,0
3529,-0.025761065482699727,0
3530,0.11844004516217381,0
3531,0.019685865972900778,0
3532,0.14057933085588725,0
3533,0.11391708855254962,0
3534,0.17624227840033513,0
3535,0.11082575455289347,0
3536,0.09533432774538314,0
3537,0.10627863362961293,0
3538,0.102817251930246,0
3539,0.10457393301286713,0
3540,0.5121671351280181,0
3541,4.255220918058944,0
3542,6.679852719088645,0
3543,-1.1298787943839823,0
3544,-1.3097552448878582,0
3545,1.4102019307391083,0
3546,-0.7089164546727161,0
3547,0.30061140333836894,0
3548,0.08588994590572127,0
3549,0.04625234691282237,0
3550,0.07467062926320556,0
3551,0.018680504742821957,0
3552,0.10595448271952976,0
3553,0.05629594523131262,0
3554,0.03819334591233863,0
3555,0.06744677932141979,0
3556,0.1592927960651221,0
3557,0.0032084340422521493,0
3558,0.05218688657232357,0
3559,-0.020547013181937898,0
3560,0.4679931734245913,0
3561,4.130572664308252,0
3562,6.572168396943113,0
3563,-1.106213817849302,0
3564,-1.312318987430648,0
3565,1.5758117777808085,0
3566,-0.6604226612492428,0
3567,0.2998610700920288,0
3568,0.04832526570106634,0
3569,0.03968599956606796,0
3570,0.06857840398284025,0
3571,0.029182981829892363,0
3572,0.0592299456394072,0
3573,0.04112428199810903,0
3574,0.09819711101005937,0
3575,0.10108503729598957,0
3576,0.17140412560253296,0
3577,0.046190872318890436,0
3578,-0.044669405921937966,0
3579,0.028587419037367508,0
3580,0.4728661514848343,0
3581,4.266352997423631,0
3582,6.526390003320275,0
3583,-1.2053700597849097,0
3584,-1.3159529518125144,0
3585,1.485359694419112,0
3586,-0.6869941283617518,0
3587,0.35298744629501566,0
3588,0.0708535832923552,0
3589,0.02351606080028517,0
3590,0.03880706153528752,0
3591,0.055095993847794594,0
3592,0.05834800279582367,0
3593,0.08055012946389568,0
3594,0.06507531965100552,0
3595,-0.018832972963936163,0
3596,0.09050441875453369,0
3597,0.04206767109291011,0
3598,0.05495162384178275,0
3599,0.07156954938169885,0
3600,0.3987055118246116,0
3601,4.201922893236705,0
3602,6.601243689203648,0
3603,-1.1265675625580247,0
3604,-1.3259582385814874,0
3605,1.46252974937879,0
3606,-0.7920171204849374,0
3607,0.26842864142334477,0
3608,0.018993188326494444,0
3609,0.016510558177605095,0
3610,0.03631561185842155,0
3611,0.029101946671583882,0
3612,0.0798623380405398,0
3613,0.0013504000129901349,0
3614,0.0299424589096358,0
3615,0.05347789126665209,0
3616,0.007534069146904947,0
3617,0.04782579342740187,0
3618,-0.026413361616467058,0
3619,0.03961251546631823,0
3620,0.5983489746775678,0
3621,4.158743221536184,0
3622,6.618807895052735,0
3623,-1.1920560459973104,0
3624,-1.342282900974285,0
3625,1.4110503952750224,0
3626,-0.7131378128243621,0
3627,0.2165371513898005,0
3628,-0.019029369206868173,0
3629,-0.0505929234688198,0
3630,0.06093256126641032,0
3631,0.07553738698590025,0
3632,-0.07111132408739207,0
3633,0.11071472280643868,0
3634,0.01731841949896848,0
3635,-0.005174702143874801,0
3636,-0.13356692907148945,0
3637,0.13841140016331852,0
3638,0.1086424385247999,0
3639,0.012537817740678438,0
3640,0.5230152321030251,0
3641,4.084696345695268,0
3642,6.67020569189734,0
3643,-1.137898305977392,0
3644,-1.2296913652487895,0
3645,1.5054212042925974,0
3646,-0.7229002406854387,0
3647,0.3245753845293263,0
3648,-0.1065942201934538,0
3649,-0.03235280710197058,0
3650,0.028293103180731995,0
3651,0.07991334081405169,0
3652,0.007529771506579651,0
3653,0.032336020283852226,0
3654,0.10004197093860065,0
3655,0.13017554429525963,0
3656,0.03981639877215361,0
3657,0.15342585878103174,0
3658,0.11241500962655154,0
3659,0.04265217046516848,0
3660,0.5353706327233524,0
3661,4.143939502700908,0
3662,6.6024181176758985,0
3663,-1.2145319274569244,0
3664,-1.372313551513508,0
3665,1.4930555630742124,0
3666,-0.8920369209167666,0
3667,0.24816861670051713,0
3668,0.05015999338901646,0
3669,-0.05920718299409963,0
3670,0.02247182155917805,0
3671,0.09539757447756265,0
3672,-0.04182776226836975,0
3673,0.006236699327096086,0
3674,0.02425192156890088,0
3675,0.024686365713212987,0
3676,-0.041779292173383116,0
3677,-0.0006111825253427676,0
3678,0.08965343180468312,0
3679,-0.060509620087284596,0
3680,0.477505782677688,0
3681,4.226005045537794,0
3682,6.637411858415954,0
3683,-1.1244918670226902,0
3684,-1.3452321469560986,0
3685,1.4877304093263994,0
3686,-0.6760520485150793,0
3687,0.3567221277403004,0
3688,0.04244962761217537,0
3689,0.0028507380385987026,0
3690,0.05968886415333439,0
3691,0.0008208773439629356,0
3692,0.008826212919705728,0
3693,0.10152343531389658,0
3694,0.060423649097691975,0
3695,0.0013359874849218965,0
3696,0.028080297882257285,0
3697,-0.03316117203502224,0
3698,-0.013268683946038487,0
3699,-0.009433743022696353,0
3700,0.3915067416863875,0
3701,4.2369616365283775,0
3702,6.553271619335614,0
3703,-1.1697763058304784,0
3704,-1.2824666108068221,0
3705,1.375975603427027,0
3706,-0.7522788067850467,0
3707,0.316751092993909,0
3708,-0.03207948858234152,0
3709,-0.012491441825406693,0
3710,0.14906179995630237,0
3711,0.010995809459928813,0
3712,0.004703921286056803,0
3713,0.03185892108215262,0
3714,-0.05387477442100118,0
3715,0.08510645568314577,0
3716,0.0239514943550316,0
3717,0.0389880239280878,0
3718,0.05576352682437108,0
3719,0.06495984070327095,0
3720,0.4715630232506518,0
3721,4.151170600373806,0
3722,6.665035142373917,0
3723,-1.075249782354494,0
3724,-1.2358433826360617,0
3725,1.4507890269517298,0
3726,-0.7100371030123744,0
3727,0.24112196264009464,0
3728,0.005840147511145616,0
3729,-0.07177496838324707,0
3730,-0.010993446011149401,0
3731,-0.040118676562577074,0
3732,-0.10469527023163575,0
3733,-0.009496087863002448,0
3734,-0.007621243943952409,0
3735,0.006347174077068425,0
3736,-0.12067767675037447,0
3737,-0.1084888774301609,0
3738,0.04319223907181462,0
3739,-0.06470129705653888,0
3740,0.4662634300601506,0
3741,4.220258596769192,0
3742,6.552781404813734,0
3743,-1.3049793379516568,0
3744,-1.3301458951063578,0
3745,1.3423520107921647,0
3746,-0.754649013495844,0
3747,0.2693263116534001,0
3748,0.04114795797494696,0
3749,-0.022556012579494196,0
3750,0.057159533450856156,0
3751,0.07954509251579493,0
3752,-0.008748098300623584,0
3753,-0.05649059002630861,0
3754,-0.05195985051083125,0
3755,0.015752863091113886,0
3756,0.011843831512899874,0
3757,-0.07322110986398508,0
3758,-0.05126926921515268,0
3759,-0.0075046543515162566,0
3760,0.36123763522733465,0
3761,4.226198519408037,0
3762,6.415566076987196,0
3763,-1.3521783082659462,0
3764,-1.3701479470545237,0
3765,1.4696132653765819,0
3766,-0.8220669181777369,0
3767,0.1963782209732254,0
3768,-0.06967075018655618,0
3769,-0.10454391382369438,0
3770,0.02978131912469575,0
3771,0.06290231017976741,0
3772,-0.012600111105821486,0
3773,-0.001976040029313432,0
3774,-0.06349921423046463,0
3775,-0.10412664528925175,0
3776,-0.04641798944560749,0
3777,-0.07492289809862696,0
3778,0.00011297908143950014,0
3779,0.007351931413319565,0
3780,0.31589504082779374,0
3781,4.121797018287848,0
3782,6.5301405075164025,0
3783,-1.3862234065450076,0
3784,-1.438212401532118,0
3785,1.3360531052877427,0
3786,-0.8027309066135204,0
3787,0.26478900605075284,0
3788,-0.09636620582518385,0
3789,-0.07727673260620174,0
3790,-0.00852271065695635,0
3791,0.0034263313869439486,0
3792,0.08595617961052553,0
3793,0.025948863774698565,0
3794,-0.035648004321147134,0
3795,-0.045730379035053316,0
3796,-0.01567354264188739,0
3797,-0.10119622928712277,0
3798,-0.0032171085533700267,0
3799,-0.018040947466320754,0
3800,0.4278921095983723,0
3801,4.168011889782027,0
3802,6.413050133023421,0
3803,-1.3327532217683167,0
3804,-1.3638484350593931,0
3805,1.346153296478682,0
3806,-0.8236901515788421,0
3807,0.16032914167023812,0
3808,-0.12344589355600197,0
3809,-0.13450837825879178,0
3810,-0.0489822495899363,0
3811,-0.1674532007880376,0
3812,-0.12522283872897486,0
3813,-0.2048594747399985,0
3814,-0.15960360668705204,0
3815,-0.12635481523275965,0
3816,-0.020374454059799214,0
3817,-0.19356691135982917,0
3818,-0.07445887187631689,0
3819,-0.06475282832457371,0
3820,0.31364220657262154,0
3821,4.1475977911584,0
3822,6.528342807796395,0
3823,-1.4192433503820483,0
3824,-1.3600474177783666,0
3825,1.3744765721335614,0
3826,-0.872941699748063,0
3827,0.24275700112290727,0
3828,-0.059323085367283465,0
3829,-0.08330295934992829,0
3830,-0.0953293095304673,0
3831,-0.06961005653846568,0
3832,-0.07297759639641109,0
3833,-0.02928644579499646,0
3834,-0.1427163322329929,0
3835,-0.08265201255734114,0
3836,-0.03491035593386646,0
3837,-0.02033297398917209,0
3838,-0.07446658424014062,0
3839,-0.06269065416442925,0
3840,0.3969334150773825,0
3841,4.068883010373672,0
3842,6.51157144453713,0
3843,-1.2533606157347081,0
3844,-1.2982107872560478,0
3845,1.298315493423433,0
3846,-0.8759054637159941,0
3847,0.17522040120700866,0
3848,-0.12348508039420396,0
3849,-0.10403224267769084,0
3850,-0.024372188514185163,0
3851,-0.06127448502473176,0
3852,0.048293626707799915,0
3853,-0.039810643827912946,0
3854,0.011447622711064538,0
3855,0.008617205589363179,0
3856,-0.07994374105379905,0
3857,-0.05207396745362427,0
3858,-0.052180249239905066,0
3859,-0.1325504442649062,0
3860,0.3843393926984212,0
3861,4.187258245234338,0
3862,6.4641347414898895,0
3863,-1.454115529194886,0
3864,-1.3454157216574574,0
3865,1.2834001407872313,0
3866,-0.8871074578668179,0
3867,0.1529047760332024,0
3868,-0.07328958790221354,0
3869,-0.0006380084846473733,0
3870,-0.10227801813507141,0
3871,-0.06019256027070188,0
3872,-0.05879818905567836,0
3873,-0.02469854712420287,0
3874,-0.09416659682713961,0
3875,0.03469190470644598,0
3876,0.022622732173985343,0
3877,-0.025364594125402963,0
3878,-0.05305176420579298,0
3879,-0.011224575106830104,0
3880,0.3644499436432177,0
3881,4.131187641649362,0
3882,6.5369993249945235,0
3883,-1.2915516573618138,0
3884,-1.3319310462519949,0
3885,1.3505249422829078,0
3886,-0.8393793930483167,0
3887,0.18028634338260574,0
3888,-0.06860068766697816,0
3889,-0.14990148394972322,0
3890,-0.0796229286488375,0
3891,0.012672190524747703,0
3892,-0.04716400967781783,0
3893,-0.08619812975151471,0
3894,-2.5265209379468634e-05,0
3895,0.00613500397434865,0
3896,-0.07568754966273983,0
3897,-0.08733331200376976,0
3898,0.004314828272758642,0
3899,-0.03526963938082912,0
3900,0.3466987431301062,0
3901,4.128158589281402,0
3902,6.426708551621791,0
3903,-1.2735823238233388,0
3904,-1.3261937378614923,0
3905,1.3408646360111933,0
3906,-0.8076915586311454,0
3907,0.2621049694649477,0
3908,-0.1393715222303037,0
3909,-0.08684590384067793,0
3910,0.049933673199321064,0
3911,0.008779840363644712,0
3912,0.026012257124336316,0
3913,-0.09026449415922407,0
3914,0.04007506421585614,0
3915,-0.03867811098404448,0
3916,-0.10115486545579006,0
3917,0.005232486144330018,0
3918,-0.022872354364088167,0
3919,-0.04020487875240708,0
3920,0.41568624075185073,0
3921,4.200926219232041,0
3922,6.527336550314349,0
3923,-1.2949869058807115,0
3924,-1.295444655714736,0
3925,1.4234268303263493,0
3926,-0.7481571389222844,0
3927,0.24158587698956258,0
3928,-0.03384335401483357,0
3929,-0.04126734415410219,0
3930,0.056931392360581666,0
3931,0.026998009135475287,0
3932,0.0036741134933233914,0
3933,-0.030878566871542622,0
3934,-0.05494693662569479,0
3935,-0.00948722450567447,0
3936,-0.009612721810276847,0
3937,0.028808149728698287,0
3938,0.047173984562390595,0
3939,0.06905344153735818,0
3940,0.43431955410511613,0
3941,4.183960456243283,0
3942,6.562345395118426,0
3943,-1.2675367930579584,0
3944,-1.2386868842606624,0
3945,1.548382495796417,0
3946,-0.771307946590465,0
3947,0.22432121728040125,0
3948,0.059910922657557854,0
3949,-0.06050593060689524,0
3950,-0.03510177632153069,0
3951,-0.0015931135358241005,0
3952,0.017140477949564262,0
3953,0.02517738694884216,0
3954,-0.010275827295719672,0
3955,-0.03811784569915849,0
3956,-0.018476665670769863,0
3957,-0.03888175885518652,0
3958,-0.07084373044942054,0
3959,-0.0012767297996856067,0
3960,0.3799960432883764,0
3961,4.181706460765765,0
3962,6.436672139168425,0
3963,-1.405790258333455,0
3964,-1.3026697102912403,0
3965,1.3734778766718714,0
3966,-0.929014407707172,0
3967,0.20787575206795503,0
3968,-0.12694346987410082,0
3969,0.05629206627395969,0
3970,0.05865142983258118,0
3971,0.010139524688907792,0
3972,-0.049559048821894484,0
3973,0.006379906081419822,0
3974,0.05319016911631264,0
3975,0.020798598231219875,0
3976,-0.06437263790187892,0
3977,-0.05427985858898786,0
3978,-0.029767472940286834,0
3979,0.05630289257412985,0
3980,0.5602501628102596,0
3981,4.289828668307709,0
3982,6.531802484510535,0
3983,-1.3499801090171013,0
3984,-1.3464993101272733,0
3985,1.4408246451177185,0
3986,-0.8121197929041261,0
3987,0.2771259130234815,0
3988,-0.02100630044782666,0
3989,-0.10326843507158946,0
3990,-0.08215221129231609,0
3991,0.023899844034019724,0
3992,-0.025947958787390805,0
3993,-0.023126961793525535,0
3994,-0.04073947483685656,0
3995,-0.002959208179205208,0
3996,-0.0737936850498473,0
3997,-0.10270954569628857,0
3998,-0.006328620039958886,0
3999,-0.06293063021966062,0
4000,0.4132943382998959,0
4001,4.28483327346153,0
4002,6.514943398055651,0
4003,-1.2526448346845602,0
4004,-1.3208452199640919,0
4005,1.3265574776083382,0
4006,-0.7921779160021094,0
4007,0.2961687054953774,0
4008,-0.08614558403340628,0
4009,-0.047150009296300865,0
4010,-0.02239563588558076,0
4011,0.0026361846040087664,0
4012,-0.049334159984860126,0
4013,0.017536061402803046,0
4014,0.04751298008394504,0
4015,-0.10508211178772656,0
4016,-0.0220541047383578,0
4017,-0.025939325378307558,0
4018,-0.007630305826561434,0
4019,-0.041169864282011304,0
4020,0.3789816723196663,0
4021,4.182498541294625,0
4022,6.608056428965001,0
4023,-1.3461326017580486,0
4024,-1.3845929248797975,0
4025,1.402075382372797,0
4026,-0.8787704608159725,0
4027,0.1970970229542232,0
4028,-0.11255833824757897,0
4029,-0.12299105236727033,0
4030,-0.04710304753637231,0
4031,-0.07924328039603565,0
4032,-0.06971837979514905,0
4033,-0.04468770465233968,0
4034,-0.06353617217593753,0
4035,-0.10191658055278202,0
4036,-0.11001119401374974,0
4037,-0.11056443426470094,0
4038,-0.20822859312506328,0
4039,-0.01726552469372586,0
4040,0.35431435498648217,0
4041,4.153785003231524,0
4042,6.424209797370982,0
4043,-1.4310800242587662,0
4044,-1.3538967101721966,0
4045,1.331503736754067,0
4046,-0.7864733241981846,0
4047,0.19313530742637203,0
4048,-0.13434560753252428,0
4049,-0.21994785489035298,0
4050,-0.14582235853857028,0
4051,-0.10068872189529547,0
4052,-0.08052542549718655,0
4053,-0.037298822216970014,0
4054,-0.0496967135428156,0
4055,-0.07585420184811856,0
4056,-0.11302459396969161,0
4057,-0.07484831915059426,0
4058,-0.09865943518380671,0
4059,-0.0745886913307224,0
4060,0.3980079074026424,0
4061,4.2620747382566995,0
4062,6.547651706007871,0
4063,-1.3683129648761267,0
4064,-1.357518614926707,0
4065,1.3900676438529143,0
4066,-0.9748008053597048,0
4067,0.19838858615745894,0
4068,-0.04626632968443801,0
4069,-0.011879243512519691,0
4070,-0.009072316987209568,0
4071,-0.052655335730320066,0
4072,-0.011296931835459677,0
4073,-0.13586807198904038,0
4074,-0.09749173066291511,0
4075,-0.08287367953544114,0
4076,-0.08636173814232947,0
4077,-0.08883525556607479,0
4078,-0.05298557736978207,0
4079,-0.05719238857009197,0
4080,0.359425741933828,0
4081,4.1438162440845225,0
4082,6.375947473481707,0
4083,-1.4863876082367016,0
4084,-1.3941294984345987,0
4085,1.3351285867260216,0
4086,-0.8244339520747912,0
4087,0.1801002177455881,0
4088,-0.056789650969328816,0
4089,-0.11026630335727916,0
4090,-0.028497603515338907,0
4091,-0.021537347419658636,0
4092,-0.056649707221278794,0
4093,-0.06256335637097972,0
4094,-0.08076866570722167,0
4095,-0.16755719942869038,0
4096,-0.16339547006339403,0
4097,-0.03654985673872618,0
4098,-0.05805302426314916,0
4099,-0.08135635880959727,0
4100,0.38357782694442144,0
4101,4.111598777347196,0
4102,6.340480823013466,0
4103,-1.431221453245441,0
4104,-1.4024099967108783,0
4105,1.2950050070453056,0
4106,-0.9076633178440483,0
4107,0.1264488004604632,0
4108,-0.08514304739113791,0
4109,-0.14942554725388227,0
4110,-0.10301961269239222,0
4111,-0.04806962137643306,0
4112,-0.0069503083756789555,0
4113,-0.05132084981253518,0
4114,0.0600819274603174,0
4115,-0.054605105774713864,0
4116,-0.10698027308864727,0
4117,-0.032657690074644675,0
4118,-0.03395349450746405,0
4119,-0.06315926848611322,0
4120,0.4009846477361977,0
4121,4.221131768608969,0
4122,6.359027741140049,0
4123,-1.5195322173964123,0
4124,-1.3482491596999862,0
4125,1.2179015238097495,0
4126,-0.8274822484205085,0
4127,0.09194125194028467,0
4128,-0.07327329620815293,0
4129,-0.08697201882513195,0
4130,-0.03567094743543536,0
4131,-0.13243060650060964,0
4132,-0.02171132832558853,0
4133,-0.014578650150669163,0
4134,-0.09386488108049806,0
4135,-0.07809880988921286,0
4136,0.007372251494599413,0
4137,-0.12869253500300812,0
4138,0.011922540607580214,0
4139,-0.03163739300230643,0
4140,0.34963965889063775,0
4141,4.281149008962078,0
4142,6.43290981912363,0
4143,-1.374065882300581,0
4144,-1.2833387896805997,0
4145,1.3157166719854518,0
4146,-0.8733654364641039,0
4147,0.19043319913623236,0
4148,-0.07212720126095765,0
4149,-0.08808116470169931,0
4150,-0.029307049011701353,0
4151,-0.14062423514063638,0
4152,-0.05497906612961182,0
4153,-0.10281739595819941,0
4154,-0.1521295740806878,0
4155,-0.07933745150062348,0
4156,-0.13117316794893144,0
4157,-0.0652933598958058,0
4158,-0.0531326874692824,0
4159,-0.04759916969144299,0
4160,0.41958561336029665,0
4161,4.099535635436512,0
4162,6.506913811701388,0
4163,-1.4373433118023882,0
4164,-1.430326959735668,0
4165,1.2216204478206945,0
4166,-0.8402763236210467,0
4167,0.1365675026278872,0
4168,-0.09440488219180031,0
4169,-0.06992619492543964,0
4170,-0.06780089530434477,0
4171,-0.08467354740278411,0
4172,-0.1387179261918193,0
4173,-0.10081546173638596,0
4174,-0.20663982852434565,0
4175,-0.11065739013778014,0
4176,-0.11240289251663722,0
4177,-0.041800255973963446,0
4178,-0.09142728767741229,0
4179,-0.04831807652343782,0
4180,0.4610991326671634,0
4181,4.197688041882621,0
4182,6.4270246781343925,0
4183,-1.4189717885601731,0
4184,-1.2883889251649776,0
4185,1.3345615492623557,0
4186,-0.7821650115256975,0
4187,0.1789261204889578,0
4188,-0.10310466657620461,0
4189,-0.07805876211832488,0
4190,-0.08271142353324458,0
4191,-0.1378244226804905,0
4192,-0.07333041829798895,0
4193,-0.06808483662359856,0
4194,-0.036340834107175174,0
4195,-0.14695919650794814,0
4196,-0.08645724252048038,0
4197,-0.07892250641566789,0
4198,-0.034110803847022315,0
4199,-0.02510813862991415,0
4200,0.31971613307829866,0
4201,4.287039914598815,0
4202,6.377650621611678,0
4203,-1.4697499928113156,0
4204,-1.3177945913104552,0
4205,1.2126115487166584,0
4206,-0.8643501055968837,0
4207,0.1536681124833666,0
4208,-0.11978746547932292,0
4209,-0.16252328469518285,0
4210,-0.031418536002929265,0
4211,-0.1284740452139866,0
4212,-0.07527942823975695,0
4213,-0.1398558304517216,0
4214,-0.14099468574240318,0
4215,-0.1193160775334299,0
4216,-0.09331710893479087,0
4217,-0.15594117641932947,0
4218,-0.15930511192462699,0
4219,-0.015444929616606151,0
4220,0.3498343860799171,0
4221,4.103223254075463,0
4222,6.362579961954087,0
4223,-1.4075758654912358,0
4224,-1.2849634465506412,0
4225,1.2537555445186859,0
4226,-0.93308845139915,0
4227,0.11359411735952116,0
4228,-0.13725415197426058,0
4229,-0.10241471825485329,0
4230,-0.03969453737875624,0
4231,-0.17684738986021567,0
4232,-0.1196172722241263,0
4233,-0.04536330766738335,0
4234,-0.1483182607305802,0
4235,-0.014069126414207406,0
4236,-0.018167338774354974,0
4237,-0.1093392561061749,0
4238,-0.09892888588935939,0
4239,-0.15525621447002755,0
4240,0.337158499260295,0
4241,4.121191058403637,0
4242,6.305243946210932,0
4243,-1.4648182712546254,0
4244,-1.3577307789391833,0
4245,1.3055780124175262,0
4246,-0.8579121101677639,0
4247,0.24084682681696448,0
4248,-0.15172045350500246,0
4249,-0.18649034611877935,0
4250,0.018424590829417137,0
4251,-0.11775816158578944,0
4252,-0.09396926789317063,0
4253,-0.05946658513886955,0
4254,-0.055684065519021456,0
4255,-0.0773175663902821,0
4256,-0.0645775462972242,0
4257,-0.10733904650206066,0
4258,0.02054758511701542,0
4259,-0.09091317304874455,0
4260,0.40594708170407706,0
4261,4.2167997692087775,0
4262,6.347394629104655,0
4263,-1.4699157018499747,0
4264,-1.2354697281433387,0
4265,1.32518371598263,0
4266,-0.8616053547604388,0
4267,0.19534936831160504,0
4268,-0.09646670648601943,0
4269,-0.12518635196311115,0
4270,-0.1063415798164042,0
4271,0.009615689702182802,0
4272,-0.0074519388885684115,0
4273,0.04800587451646489,0
4274,0.04180599029344131,0
4275,-0.05252124439116557,0
4276,-0.0070341637190510925,0
4277,0.0019512182292156337,0
4278,-0.13842003281082194,0
4279,-0.06281055868534521,0
4280,0.4462343047964435,0
4281,4.242984984540211,0
4282,6.405026213605778,0
4283,-1.4275994426137204,0
4284,-1.317222070251215,0
4285,1.331733246443529,0
4286,-0.7481728499490496,0
4287,0.17246054538323854,0
4288,-0.13308945312826675,0
4289,-0.1451175129962041,0
4290,-0.013466733806931645,0
4291,-0.10810227435221724,0
4292,-0.05433865771856418,0
4293,-0.08670201665550796,0
4294,-0.07590875534850616,0
4295,-0.1399745722277283,0
4296,-0.12307002245073505,0
4297,-0.07918646372123193,0
4298,-0.05244144326861698,0
4299,-0.15651410390327009,0
4300,0.3370058255237958,0
4301,4.145859259488924,0
4302,6.338689417514288,0
4303,-1.3933759392616476,0
4304,-1.2445606505940672,0
4305,1.2560643735947612,0
4306,-0.9552900431770008,0
4307,0.16505493027917065,0
4308,-0.08481564056253721,0
4309,-0.11019480046652,0
4310,-0.1972623076633039,0
4311,-0.1075243013796344,0
4312,-0.17222460609021195,0
4313,-0.03781354753997536,0
4314,-0.056590724248437085,0
4315,-0.02154991460035606,0
4316,-0.11111711174062049,0
4317,-0.08427150165639831,0
4318,-0.07269994466916882,0
4319,-0.17294153492569428,0
4320,0.25321513209155055,0
4321,4.0901399014014075,0
4322,6.380087341171164,0
4323,-1.4187100437652984,0
4324,-1.260394202033451,0
4325,1.316121892813291,0
4326,-0.873130659554649,0
4327,0.19238912521185886,0
4328,-0.06246222067705127,0
4329,-0.058679704793015576,0
4330,-0.036195284740538826,0
4331,-0.08755019258398648,0
4332,0.044854170829222266,0
4333,-0.04007712113342459,0
4334,-0.003411014505000325,0
4335,-0.04625761917810972,0
4336,-0.03000154128111688,0
4337,-0.040638576476629565,0
4338,-0.03237795083980512,0
4339,-0.07055363336289083,0
4340,0.4894270297620273,0
4341,4.253926422342388,0
4342,6.44357041420493,0
4343,-1.3318563373536412,0
4344,-1.2504164268416866,0
4345,1.2816298340231218,0
4346,-0.8586617607059709,0
4347,0.12789538812390985,0
4348,-0.07659414588250313,0
4349,-0.024399740100197867,0
4350,-0.07268326053022997,0
4351,-0.07323534306655348,0
4352,-0.0951879703301803,0
4353,0.008086728696900275,0
4354,-0.10614124330774957,0
4355,-0.05067786798732228,0
4356,-0.1535926635576625,0
4357,-0.0868023139939976,0
4358,-0.07146090206115881,0
4359,-0.04599258930078651,0
4360,0.337567472105895,0
4361,4.174898993472039,0
4362,6.348049672015712,0
4363,-1.4730518853877115,0
4364,-1.2937696547306092,0
4365,1.377007499417921,0
4366,-0.8315989033156976,0
4367,0.15163972989003371,0
4368,-0.042211250430595273,0
4369,-0.11818539165860514,0
4370,0.021563138922884723,0
4371,-0.12356908041964679,0
4372,-0.2250049080567988,0
4373,-0.09426924153910164,0
4374,-0.1308499882027567,0
4375,-0.13033144900026286,0
4376,-0.19569031046653163,0
4377,-0.022449776162435972,0
4378,-0.11409162952799283,0
4379,-0.1228570851295758,0
4380,0.4401488953917099,0
4381,4.237025950291276,0
4382,6.503449790534636,0
4383,-1.3999861599510153,0
4384,-1.261611980489134,0
4385,1.3892553570940973,0
4386,-0.7920532770861571,0
4387,0.3064705651229801,0
4388,-0.006675098560410984,0
4389,0.03471318001818817,0
4390,0.03011200961073965,0
4391,0.0649360734427879,0
4392,0.11114751504667936,0
4393,0.12972868734323295,0
4394,0.06617949468599332,0
4395,0.0013342730553224762,0
4396,0.03863150954795315,0
4397,-0.08425885069790766,0
4398,-0.07891569421436904,0
4399,-0.07041017091669738,0
4400,0.40421508753390856,0
4401,4.268443456806138,0
4402,6.408692165983212,0
4403,-1.4605689568926792,0
4404,-1.3143586744201416,0
4405,1.2972274215476653,0
4406,-0.8497276462709334,0
4407,0.17108742980579456,0
4408,-0.10967891806526342,0
4409,-0.11571289430921675,0
4410,-0.022411820516992583,0
4411,-0.001875090628721706,0
4412,-0.007296474798060469,0
4413,-0.03277645748323533,0
4414,-0.0007467015968008494,0
4415,-0.03527148963892041,0
4416,0.02904724068083011,0
4417,0.046969314712198604,0
4418,-0.015985631040370964,0
4419,-0.00888104910662724,0
4420,0.4948152244066326,0
4421,4.19289976744865,0
4422,6.453171762558804,0
4423,-1.4613800519001308,0
4424,-1.215141922531348,0
4425,1.3466654490395094,0
4426,-0.8447207847976942,0
4427,0.2605727148759415,0
4428,-0.14596086687851012,0
4429,0.011497285555609839,0
4430,-0.02316547253724696,0
4431,-0.04387939120568479,0
4432,0.04494576006773317,0
4433,-0.030132487821551875,0
4434,0.007479926364292766,0
4435,-0.0449014952937444,0
4436,-0.04918523433918365,0
4437,0.04561986858295742,0
4438,0.08921038877228954,0
4439,0.0511210669753346,0
4440,0.5007243534031706,0
4441,4.373950531028583,0
4442,6.497726759317763,0
4443,-1.372415684230402,0
4444,-1.1719741635405785,0
4445,1.512566325113779,0
4446,-0.7272579166423533,0
4447,0.34298305407781415,0
4448,0.10928659504450484,0
4449,-0.0905552990953385,0
4450,-0.003161784708415119,0
4451,0.027307081674249795,0
4452,-0.02318572695389294,0
4453,0.13619171811113218,0
