timestamp,value-0,is_anomaly
0,0.2292974749006647,0.0
1,4.588933835626065,0.0
2,5.052647696404404,0.0
3,-2.9917665165558716,0.0
4,1.611999425905909,0.0
5,-0.7001156732450381,0.0
6,0.2961740999029366,0.0
7,-0.14589691302709715,0.0
8,-0.029542389177544537,0.0
9,-0.058778051491345615,0.0
10,0.012585677631594475,0.0
11,0.06215957686576829,0.0
12,0.0653799730520714,0.0
13,0.05741460983961297,0.0
14,-0.014285853784986133,0.0
15,-0.025974523971186266,0.0
16,-0.01073358703991579,0.0
17,0.948528033428379,0.0
18,6.474203428604284,0.0
19,1.535374797507072,0.0
20,-1.9251336815934603,0.0
21,1.2044051137990464,0.0
22,-0.5604709241657672,0.0
23,0.2936256911664063,0.0
24,-0.10860501565451793,0.0
25,0.012973737373371073,0.0
26,-0.09415826694803332,0.0
27,0.034177912728497815,0.0
28,-0.033332853520291035,0.0
29,-0.04397877088043848,0.0
30,-0.008529123113785973,0.0
31,0.055570483259771083,0.0
32,0.07924658726904439,0.0
33,0.09706995620952866,0.0
34,2.482249003011947,0.0
35,6.928656589920026,0.0
36,-1.8000225701335437,0.0
37,0.23902594695814444,0.0
38,0.256243476848709,0.0
39,-0.04644481733079728,0.0
40,0.19206917797022743,0.0
41,0.1098104887790138,0.0
42,0.045563503152591375,0.0
43,0.013389277362753221,0.0
44,0.0794214623444917,0.0
45,0.06180176721368257,0.0
46,0.01750568072357355,0.0
47,-0.002723077781789221,0.0
48,0.04509688885644823,0.0
49,0.028400498759025568,0.0
50,0.22045137196868228,0.0
51,4.588519693123331,0.0
52,4.875410077831261,0.0
53,-2.8929173084695736,0.0
54,1.523422312762138,0.0
55,-0.7542903682762888,0.0
56,0.24871656145393892,0.0
57,-0.11183130266099595,0.0
58,0.151351919729738,0.0
59,-0.009943703650371123,0.0
60,0.0539714033141756,0.0
61,0.0633002761766816,0.0
62,-0.0023431633721437157,0.0
63,0.030735519421648937,0.0
64,0.03418881423684266,0.0
65,0.045332613431360184,0.0
66,0.028281635871393544,0.0
67,1.1070638569193623,0.0
68,6.537008301131393,0.0
69,1.5103596850765768,0.0
70,-1.86988548982501,0.0
71,1.2712694785255814,0.0
72,-0.638180356829159,0.0
73,0.3471280376923192,0.0
74,-0.08187277947829702,0.0
75,0.10070423620401744,0.0
76,0.04431498300564151,0.0
77,-0.010503183871830826,0.0
78,-0.02852541217358055,0.0
79,-0.0795721845829405,0.0
80,0.07363956382100798,0.0
81,0.027941696225737986,0.0
82,-0.07000043265302809,0.0
83,0.040064740837277374,0.0
84,2.4594495803702037,0.0
85,6.875850785252277,0.0
86,-1.7488978669210786,0.0
87,0.1397919824340851,0.0
88,0.22646526093122943,0.0
89,-0.13958523320598404,0.0
90,0.048685578169828006,0.0
91,-0.08696802986451531,0.0
92,0.04916735969335316,0.0
93,0.012272731832456148,0.0
94,0.10669863470418217,0.0
95,0.16901169251504908,0.0
96,0.09560979390727802,0.0
97,0.09125942845118817,0.0
98,0.09070259103763845,0.0
99,0.18381951628160914,0.0
100,0.4162583513219806,0.0
101,4.72986182068896,0.0
102,5.105544209788628,0.0
103,-2.9002090788488855,0.0
104,1.5962970493161412,0.0
105,-0.5475103623649595,0.0
106,0.4333931511762733,0.0
107,-0.04040883050237805,0.0
108,0.15127803407793627,0.0
109,-0.0052789455004162295,0.0
110,0.08763801626060533,0.0
111,-0.04790661600443685,0.0
112,-0.012608908683547727,0.0
113,0.09895406055560019,0.0
114,0.04716882292685509,0.0
115,0.06655337516959285,0.0
116,0.008808696864626743,0.0
117,1.1245692498175555,0.0
118,6.452925599293824,0.0
119,1.5333914301642044,0.0
120,-1.889689026329271,0.0
121,1.2941299692577788,0.0
122,-0.6162921993158179,0.0
123,0.41917599029120867,0.0
124,-0.017751722655654896,0.0
125,0.1305541650237682,0.0
126,0.04426256714498375,0.0
127,0.05583477334909634,0.0
128,0.11257824891198218,0.0
129,0.08429903826536898,0.0
130,0.012910054226804073,0.0
131,0.0060110069553985235,0.0
132,0.010150676057764617,0.0
133,0.13482006963327686,0.0
134,2.4891516135793994,0.0
135,6.870618198941199,0.0
136,-1.7626766267544416,0.0
137,0.17199408959531098,0.0
138,0.21209830072581434,0.0
139,-0.14770866761012452,0.0
140,0.02424648693693389,0.0
141,-0.11369107653691249,0.0
142,0.0169154581601262,0.0
143,0.13481968233276492,0.0
144,0.028678020945957096,0.0
145,0.054136416364982856,0.0
146,0.016771524840619348,0.0
147,0.023903717087454306,0.0
148,0.026392918578757054,0.0
149,-0.0032648231606381417,0.0
150,0.35024249036378285,0.0
151,4.715184613218533,0.0
152,5.054353047534531,0.0
153,-2.978226114922043,0.0
154,1.5572057595356976,0.0
155,-0.6128311139088475,0.0
156,0.3082562541960328,0.0
157,-0.10385873962339348,0.0
158,0.07586699574980976,0.0
159,0.026556563052280453,0.0
160,-0.024560938623636563,0.0
161,0.10095372671613467,0.0
162,0.10497071987093223,0.0
163,-0.023495767654605447,0.0
164,0.010540977924718378,0.0
165,0.06947598698297837,0.0
166,0.03259290958269096,0.0
167,1.134143202686067,0.0
168,6.529140612873919,0.0
169,1.5889850458942905,0.0
170,-1.880550010191451,0.0
171,1.3099612329634673,0.0
172,-0.5179970606989414,0.0
173,0.39011958620184584,0.0
174,-0.051022152005174855,0.0
175,-0.003953011542707066,0.0
176,0.03266362576994766,0.0
177,-0.054243466574845446,0.0
178,-0.031530456638266154,0.0
179,0.0454314681203206,0.0
180,0.12117183755271711,0.0
181,0.0775019874248817,0.0
182,0.04298592116579325,0.0
183,0.03615260771430804,0.0
184,2.622677081319451,0.0
185,6.868474704510336,0.0
186,-1.6979881545511573,0.0
187,0.3647232824147238,0.0
188,0.13730817844274296,0.0
189,-0.0705619523843316,0.0
190,0.006625053105173251,0.0
191,0.015616569423333046,0.0
192,0.04697463037055057,0.0
193,0.015737545487855616,0.0
194,0.11761877633007385,0.0
195,0.059617563209877496,0.0
196,0.10603985582619428,0.0
197,0.008166626178572077,0.0
198,0.09426474847694882,0.0
199,0.1168853199274586,0.0
200,0.27986927612663093,0.0
201,4.638998300662456,0.0
202,4.971114975089294,0.0
203,-2.9180512516858683,0.0
204,1.5653425256727223,0.0
205,-0.7166884193824273,0.0
206,0.257650528411234,0.0
207,-0.024746117651308706,0.0
208,0.13235082052411426,0.0
209,0.02214913030145237,0.0
210,-0.02761540698175377,0.0
211,0.0021304744088913447,0.0
212,0.008239298279728705,0.0
213,-0.006520858736923277,0.0
214,0.003672920913202281,0.0
215,0.0398697413598684,0.0
216,-0.003327708675810795,0.0
217,1.0405599120952096,0.0
218,6.500611883665067,0.0
219,1.5275231238639908,0.0
220,-1.907808510408188,0.0
221,1.3935456831509196,0.0
222,-0.6129220050737638,0.0
223,0.25661035682762634,0.0
224,-0.04815969245087723,0.0
225,0.07838643814146584,0.0
226,0.020905735832629405,0.0
227,0.06192602219940909,0.0
228,0.05527864984432467,0.0
229,0.013973619918493038,0.0
230,0.02994281110056639,0.0
231,0.12773568140866048,0.0
232,0.0844648833007777,0.0
233,0.055402175366412315,0.0
234,2.580274046975035,0.0
235,6.904622182291206,0.0
236,-1.8540420649337017,0.0
237,0.30810047675197544,0.0
238,0.23939260754627614,0.0
239,-0.08533163971591318,0.0
240,-0.025925885951429577,0.0
241,0.06138963585264777,0.0
242,-0.01257272900658276,0.0
243,-0.009837056724383855,0.0
244,0.04806949256979373,0.0
245,0.02425775941519833,0.0
246,0.052274465410441714,0.0
247,0.026526856792690415,0.0
248,0.0882415108931694,0.0
249,0.04587347488321625,0.0
250,0.37428540632374363,0.0
251,4.681684248996551,0.0
252,4.974897307167347,0.0
253,-2.903562312974495,0.0
254,1.5160502236432092,0.0
255,-0.627206378010148,0.0
256,0.2504748342716138,0.0
257,-0.03494526335114146,0.0
258,0.1308394563390166,0.0
259,0.009034735245004095,0.0
260,-0.10313763617292984,0.0
261,0.05578594693486651,0.0
262,0.04707811278636729,0.0
263,0.03840861801466097,0.0
264,0.06580800801884454,0.0
265,0.023435997953511836,0.0
266,0.12453708923054832,0.0
267,1.1369299245030149,0.0
268,6.458654483774987,0.0
269,1.455520426829445,0.0
270,-1.8939284255359803,0.0
271,1.211283382131966,0.0
272,-0.5315723220816757,0.0
273,0.3783160398019322,0.0
274,0.023373263664853317,0.0
275,0.08415567330562349,0.0
276,0.12039633007034867,0.0
277,0.09377302612817434,0.0
278,0.08770148657868693,0.0
279,0.038173768296726265,0.0
280,0.06637718238712677,0.0
281,-0.012889812888727523,0.0
282,0.09894097522221804,0.0
283,-0.02787280069398078,0.0
284,2.584182056997366,0.0
285,6.928216308892885,0.0
286,-1.8418188678519278,0.0
287,0.2896609974405787,0.0
288,0.2147680177499495,0.0
289,0.07361981939470186,0.0
290,0.16736346982184108,0.0
291,0.0747843393448138,0.0
292,0.07388212653605364,0.0
293,-0.004991299520950704,0.0
294,-0.050729354309631734,0.0
295,-0.007721067216172099,0.0
296,0.024976101781818878,0.0
297,0.05245156765318075,0.0
298,-0.011301273874512338,0.0
299,0.021429735367421106,0.0
300,0.3153695004565242,0.0
301,4.597050040995462,0.0
302,4.962186107838401,0.0
303,-2.9326804201207257,0.0
304,1.5389376731752769,0.0
305,-0.6814070489824513,0.0
306,0.3754425277916632,0.0
307,-0.07020407694517955,0.0
308,0.060974127306671164,0.0
309,0.07686373339648844,0.0
310,0.04044383351285527,0.0
311,0.05462775406984232,0.0
312,0.11166270419130794,0.0
313,-0.00917381632015667,0.0
314,0.013879132179960826,0.0
315,7.915822030930353e-05,0.0
316,-0.06637758231948207,0.0
317,1.0210314914298946,0.0
318,6.383895872655268,0.0
319,1.3886585463987113,0.0
320,-1.9592140193515435,0.0
321,1.212910252946055,0.0
322,-0.6762544912642849,0.0
323,0.25489213913226766,0.0
324,-0.1548873111730416,0.0
325,0.12128604917574946,0.0
326,0.01584408505977973,0.0
327,0.07662927039402764,0.0
328,0.059339423526293754,0.0
329,0.16536927394908046,0.0
330,-0.03903887559887202,0.0
331,0.11322956623650848,0.0
332,0.14843378192077994,0.0
333,0.06804245445261105,0.0
334,2.6537234158619114,0.0
335,6.921247508422723,0.0
336,-1.733186640143767,0.0
337,0.28371944326233806,0.0
338,0.22225486580153941,0.0
339,0.044643092248682806,0.0
340,0.052132098656552266,0.0
341,0.029154800051417473,0.0
342,0.12135534438706427,0.0
343,0.012391427238543258,0.0
344,0.058857007312444226,0.0
345,-0.011557231084505785,0.0
346,-0.05383008067260798,0.0
347,-0.00813845458290268,0.0
348,-0.06736194124532015,0.0
349,-0.055436588048175306,0.0
350,0.31930069746900286,0.0
351,4.646517069475163,0.0
352,4.8945878317484555,0.0
353,-3.0882473428732937,0.0
354,1.4677262611799373,0.0
355,-0.7757325742585994,0.0
356,0.22388016770356217,0.0
357,-0.07679367984245793,0.0
358,0.022412652741816416,0.0
359,-0.16508579177654537,0.0
360,0.03677608092996704,0.0
361,0.0054670938034905876,0.0
362,-0.021179826686162584,0.0
363,-0.03236739767743448,0.0
364,0.02429465068908276,0.0
365,0.03712549161623927,0.0
366,0.061492768052925535,0.0
367,1.0947057273743466,0.0
368,6.503239633587082,0.0
369,1.4070076363896855,0.0
370,-1.7782559749219826,0.0
371,1.2645449841605716,0.0
372,-0.6291676517189797,0.0
373,0.2276246973931788,0.0
374,-0.15152917235950136,0.0
375,0.06446755638257297,0.0
376,-0.03201301564205638,0.0
377,-0.03084075540340485,0.0
378,-0.031882700769403534,0.0
379,-0.04241118348401851,0.0
380,-0.07923653997974231,0.0
381,-0.03748305096404959,0.0
382,-0.023722051036574654,0.0
383,0.009771556497770917,0.0
384,2.6617727390650043,0.0
385,6.835469789223114,0.0
386,-1.8744918503159267,0.0
387,0.2171025748157042,0.0
388,0.09158951227681543,0.0
389,-0.1753388993779646,0.0
390,-0.04016103736271303,0.0
391,-0.006729615353723711,0.0
392,-0.05436138264185641,0.0
393,-0.07039790400747936,0.0
394,-0.011165177395625524,0.0
395,-0.05808522463918101,0.0
396,-0.09403666936404369,0.0
397,0.013166353293475444,0.0
398,-0.006731563102997221,0.0
399,-0.016142862894813714,0.0
400,0.22239794242478572,0.0
401,4.670249393646617,0.0
402,4.8007205562426,0.0
403,-3.0863101608598766,0.0
404,1.454345383641681,0.0
405,-0.7845831757659203,0.0
406,0.27011157561213356,0.0
407,-0.045037449845963654,0.0
408,0.0245704915264726,0.0
409,-0.003184570936541488,0.0
410,-0.07482680898985128,0.0
411,-0.03309099266352822,0.0
412,-0.07620163801385874,0.0
413,0.022281761841772663,0.0
414,-0.030213289937198223,0.0
415,-0.03251166787817737,0.0
416,-0.01115824797329735,0.0
417,0.9976392513926473,0.0
418,6.50402412240325,0.0
419,1.3518325727797653,0.0
420,-1.9039130613425284,0.0
421,1.2782814852080882,0.0
422,-0.638979210911691,0.0
423,0.18549977894941455,0.0
424,-0.05131017977534578,0.0
425,-0.04680418185386695,0.0
426,-0.0703803784287077,0.0
427,-0.026866813901852898,0.0
428,-0.009191980836857686,0.0
429,0.021069326666923235,0.0
430,-0.0203511639136858,0.0
431,0.05780313549360617,0.0
432,0.017899993541501583,0.0
433,0.08191558087980727,0.0
434,2.6343680807426475,0.0
435,6.867261973655684,0.0
436,-1.9449657315227928,0.0
437,0.34198775577684687,0.0
438,0.16437794327398395,0.0
439,-0.020133968397351997,0.0
440,0.044405504419078826,0.0
441,0.1002724753656607,0.0
442,0.08860379329741995,0.0
443,0.07701173579783874,0.0
444,0.0033130907580512237,0.0
445,-0.023530669076239442,0.0
446,0.04958851901632792,0.0
447,-0.017680147522753157,0.0
448,0.033175708538208996,0.0
449,0.019031602369707492,0.0
450,0.2991531488038056,0.0
451,4.732166359009737,0.0
452,4.799979173719617,0.0
453,-3.118471433560647,0.0
454,1.5597828397852151,0.0
455,-0.7404430070500931,0.0
456,0.20011189184969427,0.0
457,-0.2129383540418936,0.0
458,-0.047548801981727784,0.0
459,-0.08473775825327295,0.0
460,-0.07337126920456717,0.0
461,-0.09165218947813977,0.0
462,-0.06566636768370644,0.0
463,0.019025276244603963,0.0
464,-0.1168231693616135,0.0
465,-0.0757794051135411,0.0
466,-0.051564612706245364,0.0
467,1.0055252548077216,0.0
468,6.436268638459585,0.0
469,1.323286516185456,0.0
470,-1.8873128392999647,0.0
471,1.1804100841006127,0.0
472,-0.6911313371202201,0.0
473,0.2704503317699715,0.0
474,-0.1648459666656198,0.0
475,-0.12684696101506326,0.0
476,0.018849373365287955,0.0
477,-0.09922835125501925,0.0
478,-0.09039514089499806,0.0
479,-0.06622593075473228,0.0
480,-0.10940441148550631,0.0
481,-0.11603483664358982,0.0
482,-0.18151606028760225,0.0
483,-0.08260701499196046,0.0
484,2.501194952398279,0.0
485,6.836833141246782,0.0
486,-1.8995042442715373,0.0
487,0.2565213881729276,0.0
488,0.10699788975421907,0.0
489,-0.16065724928442393,0.0
490,0.10896423365561247,0.0
491,-0.05173432113574919,0.0
492,-0.043417413495449815,0.0
493,-0.04571671747298152,0.0
494,-0.05420008238899018,0.0
495,-0.02423892392788963,0.0
496,-0.11480430869814318,0.0
497,-0.050829451585818,0.0
498,-0.08623995430179231,0.0
499,-0.0032382076986687547,0.0
500,0.23868326514598137,0.0
501,4.607282283210164,0.0
502,4.818540490087932,0.0
503,-3.157004795536281,0.0
504,1.436808570069024,0.0
505,-0.8529930321788481,0.0
506,0.3147898126636166,0.0
507,-0.15880292308374916,0.0
508,-0.04718191084736223,0.0
509,-0.17957851033049438,0.0
510,-0.031351490976183,0.0
511,-0.018437873895004543,0.0
512,0.005781910428020683,0.0
513,-0.037268653999838273,0.0
514,-0.06554864975080427,0.0
515,0.021183694652507704,0.0
516,0.02482759556591719,0.0
517,1.0351832607866291,0.0
518,6.451932447630893,0.0
519,1.3165939096302646,0.0
520,-1.8473307885587096,0.0
521,1.1345119947352036,0.0
522,-0.659784303292757,0.0
523,0.3094798911576037,0.0
524,-0.1700268859108138,0.0
525,-0.1004053296015506,0.0
526,-0.032363386727178235,0.0
527,-0.01446144806322149,0.0
528,-0.014621634458562105,0.0
529,-0.042523099885981464,0.0
530,0.00743177665078645,0.0
531,-0.02254769733442184,0.0
532,0.02530290014064836,0.0
533,0.002173560865632692,0.0
534,2.5995744238947536,0.0
535,6.834956876538116,0.0
536,-2.0257702220982066,0.0
537,0.24944082931889128,0.0
538,-0.009090328627636042,0.0
539,-0.19505827774914788,0.0
540,-0.1093231273231737,0.0
541,-0.05497546510259193,0.0
542,-0.051482682983141584,0.0
543,0.016163745143271215,0.0
544,-0.022999341823306187,0.0
545,-0.07014673437780773,0.0
546,-0.1252950425097676,0.0
547,-0.08545077252667876,0.0
548,-0.05788563010829155,0.0
549,-0.17597009236473538,0.0
550,0.2893449452323249,0.0
551,4.697593417406764,0.0
552,4.677127817937072,0.0
553,-3.127731334973505,0.0
554,1.5322827728012494,0.0
555,-0.7252692114313861,0.0
556,0.30181601668477487,0.0
557,-0.12274016111687315,0.0
558,0.005393911246096405,0.0
559,-0.05041959825282487,0.0
560,0.033111739772485216,0.0
561,-0.027558423117646995,0.0
562,0.04422386500163355,0.0
563,0.04538669600963156,0.0
564,-0.07434501918402323,0.0
565,0.023162832330108164,0.0
566,-0.035712339215734704,0.0
567,1.0817356927859862,0.0
568,6.5338321473266605,0.0
569,1.3017130632957927,0.0
570,-1.8586810389260016,0.0
571,1.18243864631606,0.0
572,-0.5899118715067807,0.0
573,0.23256664744822264,0.0
574,-0.1024256459438415,0.0
575,-0.02530838140904903,0.0
576,-0.016578948861840893,0.0
577,0.06449440213270788,0.0
578,-0.020461670833424206,0.0
579,0.04597784741096136,0.0
580,-0.024207006613990993,0.0
581,-0.02138407406055119,0.0
582,-0.012250778488779646,0.0
583,-0.016004780087813596,0.0
584,2.5876332008426015,0.0
585,6.739890316341537,0.0
586,-2.0034297817441207,0.0
587,0.2807060041461198,0.0
588,-0.0007166527772009511,0.0
589,-0.05031941247565244,0.0
590,-0.004588426076769313,0.0
591,-0.07257672284847369,0.0
592,-0.05558134171290672,0.0
593,-0.0486260805630584,0.0
594,0.0072803556652466656,0.0
595,-0.014954405709119309,0.0
596,-0.09962854099337602,0.0
597,-0.12314376020332826,0.0
598,-0.020167572725679046,0.0
599,-0.11711450440734686,0.0
600,0.3506807517700052,0.0
601,4.756264716606689,0.0
602,4.827648265638561,0.0
603,-3.051559855814362,0.0
604,1.6399238184121037,0.0
605,-0.7267353392324347,0.0
606,0.4406967357042562,0.0
607,-0.02089285331594208,0.0
608,0.09376885479639467,0.0
609,0.15401281181500287,0.0
610,0.0034444049186461295,0.0
611,0.15476407355446142,0.0
612,0.0874021708269559,0.0
613,0.05639053534054686,0.0
614,-0.03363969147303537,0.0
615,-0.07449733159559466,0.0
616,-0.04005954612630634,0.0
617,1.1437063782965124,0.0
618,6.626265228163321,0.0
619,1.2754388809674628,0.0
620,-1.8371925852206075,0.0
621,1.1054339264852056,0.0
622,-0.6890720569755606,0.0
623,0.25542583883140746,0.0
624,-0.05936176240318197,0.0
625,-0.013899848979877333,0.0
626,-0.03843843010978336,0.0
627,-0.019226889485732156,0.0
628,-0.034410335541282575,0.0
629,0.11746070181000662,0.0
630,0.03970197857319035,0.0
631,0.09485565546202532,0.0
632,0.10344233792819252,0.0
633,0.07134555700252153,0.0
634,2.7656089628472293,0.0
635,6.9155528818106555,0.0
636,-1.9824387429203356,0.0
637,0.42581235885894875,0.0
638,0.11850870924622157,0.0
639,-0.035467969363782645,0.0
640,0.021559691547942742,0.0
641,0.03813659311255552,0.0
642,0.03050567446039689,0.0
643,0.05658327706203792,0.0
644,0.05144684672483865,0.0
645,-0.03065008321552833,0.0
646,-0.02360994686623317,0.0
647,-0.018590288508177982,0.0
648,-0.05720088115699003,0.0
649,0.013714145801254733,0.0
650,0.25294574605465997,0.0
651,4.740896268848155,0.0
652,4.715135448125695,0.0
653,-3.0288911908740332,0.0
654,1.5312485790940413,0.0
655,-0.7641925199999761,0.0
656,0.29255374417868485,0.0
657,-0.19906462555822999,0.0
658,-0.059944888224305735,0.0
659,-0.025078188700455202,0.0
660,-0.016766557677014078,0.0
661,-0.015865327883967228,0.0
662,-0.08418181926010782,0.0
663,0.053813038055757476,0.0
664,-0.039885942664233086,0.0
665,0.0004994765685801205,0.0
666,0.04343293777610993,0.0
667,1.0826825917022547,0.0
668,6.482372250476958,0.0
669,1.3167454841991069,0.0
670,-1.811606419671402,0.0
671,1.1312195986835991,0.0
672,-0.5929149073765364,0.0
673,0.17191910881298617,0.0
674,-0.13437987515545408,0.0
675,-0.02152712266266448,0.0
676,-0.027628011028706934,0.0
677,-0.09315304965229856,0.0
678,-0.027163655335942834,0.0
679,-0.00515511708270957,0.0
680,-0.0184708481421613,0.0
681,0.04535123719860898,0.0
682,0.0038432607132681427,0.0
683,0.041172270785125406,0.0
684,2.7220762843577098,0.0
685,6.730785560593594,0.0
686,-2.016405095095324,0.0
687,0.32901980541989295,0.0
688,-0.004021599484666939,0.0
689,-0.06347333415364263,0.0
690,-0.0022519246193541433,0.0
691,0.017651698519038896,0.0
692,-0.15235266783611062,0.0
693,0.017510443581075105,0.0
694,-0.10867755488805096,0.0
695,-0.1179316941936016,0.0
696,0.07055965095098929,0.0
697,-0.03807201863594196,0.0
698,0.014294797731175089,0.0
699,-0.02416264675054844,0.0
700,0.30679878757512896,0.0
701,4.766215354993207,0.0
702,4.690115478883031,0.0
703,-3.035870821917071,0.0
704,1.5242569215348607,0.0
705,-0.8068918370602396,0.0
706,0.2387363454427105,0.0
707,-0.05953148307976744,0.0
708,0.08788466162837469,0.0
709,-0.062240036817435174,0.0
710,-0.06493499100880668,0.0
711,0.0072630049889412076,0.0
712,-0.026514478141791867,0.0
713,-0.009654107820523205,0.0
714,0.034579045669462585,0.0
715,0.011301481117618702,0.0
716,0.0026705770955230412,0.0
717,1.1310000583836524,0.0
718,6.518453522916246,0.0
719,1.128943426731415,0.0
720,-1.8377152265862284,0.0
721,1.1388420724091701,0.0
722,-0.6335834432004025,0.0
723,0.3025688356847979,0.0
724,-0.05901065848841068,0.0
725,0.022343638837285226,0.0
726,-0.03883579235161204,0.0
727,0.09503471488940507,0.0
728,-0.004185005050767222,0.0
729,-0.02079534218121403,0.0
730,-0.06966784893012329,0.0
731,0.08702297754728476,0.0
732,0.03738202931320051,0.0
733,0.003880325543417433,0.0
734,2.698729679328862,0.0
735,6.891317581795015,0.0
736,-2.0342949486828035,0.0
737,0.2948993594274441,0.0
738,0.0530412138705853,0.0
739,-0.018511247368683828,0.0
740,0.07119310136114713,0.0
741,0.022466361173188502,0.0
742,-0.10032391448824121,0.0
743,-0.018942690526303305,0.0
744,-0.12323487826037843,0.0
745,-0.09533955848586195,0.0
746,-0.01964290477818007,0.0
747,-0.08120115188205063,0.0
748,-0.033083950351928834,0.0
749,-0.07599595899382605,0.0
750,0.284443122537138,0.0
751,4.775694927655629,0.0
752,4.730207150207271,0.0
753,-2.9879248200917985,0.0
754,1.54872161921662,0.0
755,-0.7382849814686816,0.0
756,0.2867451811107372,0.0
757,-0.14073080595312376,0.0
758,-0.015655475279041133,0.0
759,-0.10290248344845995,0.0
760,-0.012010172754412424,0.0
761,-0.0071067799109036205,0.0
762,-0.02076619051619767,0.0
763,-0.04212617430174746,0.0
764,-0.06352739997358464,0.0
765,-0.09948945546571365,0.0
766,0.005159316668971417,0.0
767,1.0609614441713797,0.0
768,6.5282575025716465,0.0
769,1.1804263226236085,0.0
770,-1.6639825356705293,0.0
771,1.1437259521346403,0.0
772,-0.5834762491600097,0.0
773,0.235445990145893,0.0
774,-0.10426487338044485,0.0
775,0.06618567518071297,0.0
776,0.04011159455302896,0.0
777,-0.011513194802610613,0.0
778,0.002287402417994206,0.0
779,0.06975071958968225,0.0
780,0.05150821353698365,0.0
781,-0.056743299433499726,0.0
782,0.015040776517860534,0.0
783,0.03984806728287047,0.0
784,2.68866906777129,0.0
785,6.782615542035074,0.0
786,-2.0151218563564934,0.0
787,0.2308993463550117,0.0
788,0.018519554445102986,0.0
789,-0.07061801960565987,0.0
790,0.030520352332923308,0.0
791,-0.030504420834864904,0.0
792,-0.0797451967542491,0.0
793,0.007841434399930465,0.0
794,0.003542987920765843,0.0
795,-0.08274458406290693,0.0
796,0.022104565786907747,0.0
797,-0.11301105709469322,0.0
798,-0.04902687200440307,0.0
799,-0.08400610128147384,0.0
800,0.22139616391604294,0.0
801,4.732824501041354,0.0
802,4.6540308282796214,0.0
803,-2.959285315940407,0.0
804,1.5416745263297171,0.0
805,-0.7932459659798724,0.0
806,0.2855717704378365,0.0
807,-0.057422674748567715,0.0
808,0.03543830515259891,0.0
809,-0.040542217004560156,0.0
810,-0.046284705836503556,0.0
811,0.008445569901707993,0.0
812,-0.10923733161804411,0.0
813,-0.04654152136825562,0.0
814,-0.04366958568810216,0.0
815,-0.10125899545531616,0.0
816,-0.10437928683364384,0.0
817,1.069187684850633,0.0
818,6.432023229839262,0.0
819,1.0577796452590567,0.0
820,-1.8639256839753362,0.0
821,1.1588736551063765,0.0
822,-0.7107140499893181,0.0
823,0.22923929684853803,0.0
824,-0.16595618236802218,0.0
825,-0.04300387068752641,0.0
826,-0.11214337831039556,0.0
827,-0.004583323618796764,0.0
828,0.048736553282780065,0.0
829,-0.013007509864564922,0.0
830,0.014628762287486,0.0
831,0.025373920011966148,0.0
832,-0.04876840331678997,0.0
833,0.04837158196999396,0.0
834,2.7119921297873266,0.0
835,6.673982211897441,0.0
836,-1.991717358681267,0.0
837,0.37519603922431094,0.0
838,0.01864506009441545,0.0
839,-0.10736342225319952,0.0
840,0.06364420469520926,0.0
841,-0.033891130703200364,0.0
842,-0.040556097109263306,0.0
843,-0.04243701240042112,0.0
844,-0.11606717247863751,0.0
845,-0.05764197032757886,0.0
846,-0.0407572710922133,0.0
847,-0.08333353323957554,0.0
848,-0.060631980690440276,0.0
849,-0.10261729796094618,0.0
850,0.30368239633921607,0.0
851,4.7918671614177635,0.0
852,4.572787884828151,0.0
853,-2.9995760778214664,0.0
854,1.5081207589099932,0.0
855,-0.8189108284317171,0.0
856,0.29280668478665944,0.0
857,-0.08511215181774608,0.0
858,-0.0650179900493353,0.0
859,-0.0925538062465423,0.0
860,-0.07241756882249398,0.0
861,-0.10202124619244768,0.0
862,-0.14894411135505525,0.0
863,-0.050550150954956054,0.0
864,-0.07288166017056943,0.0
865,-0.006291764996345199,0.0
866,-0.042767615568138566,0.0
867,1.1128887683978332,0.0
868,6.525165891590887,0.0
869,1.134952773547713,0.0
870,-1.8225617999139045,0.0
871,1.1484389545589797,0.0
872,-0.5355265109705531,0.0
873,0.2219568898054951,0.0
874,-0.09086414302741722,0.0
875,0.06432527267289219,0.0
876,-0.07703386523395439,0.0
877,0.007338739031993457,0.0
878,0.038989788039911835,0.0
879,-0.09552258201801823,0.0
880,-0.030165387176922007,0.0
881,0.07927718063124396,0.0
882,0.009063027772276811,0.0
883,-0.036782955608367154,0.0
884,2.621390824037078,0.0
885,6.8192179069996275,0.0
886,-2.0746151759999916,0.0
887,0.32060585854682616,0.0
888,-0.06437140416950092,0.0
889,-0.12768099384530326,0.0
890,-0.08342880682244183,0.0
891,0.08755063225855866,0.0
892,0.09433515019809743,0.0
893,-0.020485932912805198,0.0
894,-0.024384412932676777,0.0
895,0.056638695340074076,0.0
896,-0.012681246756419028,0.0
897,0.0029694025807955604,0.0
898,-0.044079799650263984,0.0
899,-0.020479832824361617,0.0
900,0.24349739395674086,0.0
901,4.91596901340996,0.0
902,4.635724368324079,0.0
903,-2.9496809493563085,0.0
904,1.5376827330350484,0.0
905,-0.7279497260426427,0.0
906,0.24428982988161843,0.0
907,-0.09085377557197252,0.0
908,0.030406262096452287,0.0
909,-0.057788980711733405,0.0
910,0.011196638943717713,0.0
911,0.036910216056275855,0.0
912,-0.08790280835705713,0.0
913,-0.0001194238392918448,0.0
914,-0.024496230343785723,0.0
915,0.044025004209249055,0.0
916,-0.12026023226990439,0.0
917,1.161943200198312,0.0
918,6.57090239451768,0.0
919,1.0778271393968657,0.0
920,-1.6201028297608335,0.0
921,1.1980762170612644,0.0
922,-0.6306925351711901,0.0
923,0.17278877680236665,0.0
924,-0.07059190566545241,0.0
925,0.0007640111362689564,0.0
926,-0.016214915536441596,0.0
927,0.0930551814593528,0.0
928,-0.016787900215766288,0.0
929,-0.09096941669611004,0.0
930,-0.027811880449503962,0.0
931,-0.030552093272240302,0.0
932,-0.08171660926403045,0.0
933,0.059009803166675937,0.0
934,2.75326223233596,0.0
935,6.821714655971866,0.0
936,-2.005583743865261,0.0
937,0.5198697811129479,0.0
938,0.01454885360142811,0.0
939,-0.01109053095440434,0.0
940,0.1259177794992919,0.0
941,0.1433229718992913,0.0
942,-0.034770770717768414,0.0
943,0.07535177379429406,0.0
944,0.06836390351331394,0.0
945,0.06728153710118025,0.0
946,0.03642128496629552,0.0
947,0.028545504298294656,0.0
948,0.08067964724796442,0.0
949,0.015464574536069782,0.0
950,0.33146861501153596,0.0
951,4.905193011265596,0.0
952,4.637782189528965,0.0
953,-3.0527350242754405,0.0
954,1.470693972629149,0.0
955,-0.7483217676399223,0.0
956,0.31436102788118647,0.0
957,-0.14499963626296994,0.0
958,-0.058666566706477775,0.0
959,-0.07031718358083056,0.0
960,-0.01323897125338436,0.0
961,-0.10490394134881871,0.0
962,-0.06540221141581112,0.0
963,-0.01950123494188383,0.0
964,-0.027565441011962767,0.0
965,-0.022714012905729126,0.0
966,0.008112074930897068,0.0
967,1.1470854247842626,0.0
968,6.643864402910818,0.0
969,1.1558059161556509,0.0
970,-1.727516809043247,0.0
971,1.0717442155314612,0.0
972,-0.5329605474840793,0.0
973,0.21398409458442166,0.0
974,-0.027172655783525707,0.0
975,0.0840139523528666,0.0
976,0.013583572396460575,0.0
977,0.055759464974872115,0.0
978,0.019859189535160526,0.0
979,0.02505240452725246,0.0
980,0.024650119475972267,0.0
981,0.10217468398091087,0.0
982,-0.03404429619682034,0.0
983,0.178076550750233,0.0
984,2.7157450715136293,0.0
985,6.865526979914189,0.0
986,-2.034906650013154,0.0
987,0.47263165963919435,0.0
988,0.08886278678671905,0.0
989,-0.08187847257893027,0.0
990,-0.017258993645596736,0.0
991,-0.023556871206117595,0.0
992,-0.07253640318788993,0.0
993,0.0285340718004377,0.0
994,0.12303529434721695,0.0
995,0.004831233039182717,0.0
996,0.07635141136248422,0.0
997,0.07541636112349168,0.0
998,0.014640689767482604,0.0
999,-0.00012894169749363277,0.0
1000,0.3945978044417687,0.0
1001,4.90760137855487,0.0
1002,4.591171333149197,0.0
1003,-2.8722314445681776,0.0
1004,1.644884952285509,0.0
1005,-0.7237649017771477,0.0
1006,0.3151463790677077,0.0
1007,-0.0602516905824692,0.0
1008,0.14775406644511102,0.0
1009,0.043995222076655696,0.0
1010,0.0634211404714061,0.0
1011,0.06926562510811733,0.0
1012,0.1190442821780666,0.0
1013,-0.0522569021390918,0.0
1014,0.05414481678544019,0.0
1015,-0.04573659927165594,0.0
1016,0.11657405437296048,0.0
1017,1.1644041081685712,0.0
1018,6.646156595624497,0.0
1019,1.0759675008007603,0.0
1020,-1.6020250539792125,0.0
1021,1.3053917838678797,0.0
1022,-0.47995493560578184,0.0
1023,0.21589715020029815,0.0
1024,-0.05088315760749605,0.0
1025,0.05818185714787462,0.0
1026,-0.03813224151616342,0.0
1027,-0.06694495802479261,0.0
1028,0.07289841619363865,0.0
1029,-0.013178909754685043,0.0
1030,0.016658599195144327,0.0
1031,-0.0457707899327601,0.0
1032,-0.05057751001699761,0.0
1033,0.14348805159239997,0.0
1034,2.699679398038974,0.0
1035,6.839093700461699,0.0
1036,-2.0107420955956554,0.0
1037,0.3681496763172542,0.0
1038,-0.04742676499076843,0.0
1039,-0.021320109603159266,0.0
1040,0.054914907841423055,0.0
1041,0.018641327518614147,0.0
1042,0.023833131991469483,0.0
1043,0.017766829590253903,0.0
1044,0.05251894089952619,0.0
1045,0.052735049962300176,0.0
1046,-0.024291325273868413,0.0
1047,0.07420795050554108,0.0
1048,-0.05569293577180094,0.0
1049,0.01940321028616006,0.0
1050,0.36064190810674635,0.0
1051,4.825030041518288,0.0
1052,4.652545486338083,0.0
1053,-3.0253543340355242,0.0
1054,1.6215406111179715,0.0
1055,-0.6641204644142041,0.0
1056,0.28600081350596873,0.0
1057,-0.1272922070371596,0.0
1058,0.10286085156689123,0.0
1059,-0.06862087320965536,0.0
1060,0.014969597542200633,0.0
1061,0.05935721507356181,0.0
1062,0.16024632314102083,0.0
1063,0.04708513844171077,0.0
1064,0.01901822977854476,0.0
1065,0.06519599758931083,0.0
1066,0.05624725233060504,0.0
1067,1.2879811774417782,0.0
1068,6.672865741857093,0.0
1069,1.1205423505973462,0.0
1070,-1.563824527617271,0.0
1071,1.276405469258052,0.0
1072,-0.5069375791568639,0.0
1073,0.275032888077775,0.0
1074,0.01913481975391574,0.0
1075,0.09720411847897006,0.0
1076,0.10958240191478304,0.0
1077,0.02280757465486421,0.0
1078,-0.05275617294505502,0.0
1079,-0.0002180208282904772,0.0
1080,0.057296000048254234,0.0
1081,0.07751648952756754,0.0
1082,-0.0030325252626775268,0.0
1083,0.1902234318065436,0.0
1084,2.8523882920789956,0.0
1085,6.756425043119184,0.0
1086,-2.1516805622771353,0.0
1087,0.5597212778711349,0.0
1088,0.0518223670250413,0.0
1089,-0.031167679134330422,0.0
1090,0.07945350552432526,0.0
1091,-0.003673502300514539,0.0
1092,0.06155916304931157,0.0
1093,0.09267215539976273,0.0
1094,0.029483670941824393,0.0
1095,0.003762521985350542,0.0
1096,-0.09647624870735322,0.0
1097,0.046526899055950574,0.0
1098,0.04104315439235254,0.0
1099,0.10943187496610594,0.0
1100,0.4525645681283785,0.0
1101,4.875119516795468,0.0
1102,4.612993198606122,0.0
1103,-2.868450566189615,0.0
1104,1.6744316498266998,0.0
1105,-0.7438643233551847,0.0
1106,0.3439207172343638,0.0
1107,-0.1265900294142764,0.0
1108,0.0162908066049577,0.0
1109,0.07082426062618438,0.0
1110,0.029326671510526977,0.0
1111,0.05605038101496962,0.0
1112,0.09689071809593448,0.0
1113,-0.016019024158647477,0.0
1114,0.007013990941559675,0.0
1115,0.09308419885353268,0.0
1116,0.04238752124377969,0.0
1117,1.2313065104556489,0.0
1118,6.604891870652712,0.0
1119,1.121131664181768,0.0
1120,-1.6039335851086793,0.0
1121,1.2158188375628272,0.0
1122,-0.6011668600889438,0.0
1123,0.32407188358137684,0.0
1124,-0.06163801552192723,0.0
1125,0.10961735477768682,0.0
1126,0.07816724867933789,0.0
1127,-0.004107427471472656,0.0
1128,0.13145634397649117,0.0
1129,0.031002301804078154,0.0
1130,-0.018192090121737142,0.0
1131,0.015805867821780464,0.0
1132,0.16092544347822715,0.0
1133,0.14467818827880286,0.0
1134,2.8485867316152165,0.0
1135,6.8571232236416515,0.0
1136,-2.1026980416946004,0.0
1137,0.5454463151952346,0.0
1138,0.04436720537511716,0.0
1139,0.06810401702228785,0.0
1140,-0.010551965202372553,0.0
1141,0.08654789733649342,0.0
1142,-0.0458739279756607,0.0
1143,0.027635775784891743,0.0
1144,0.027633923153095517,0.0
1145,0.10508397022162944,0.0
1146,0.07161359206306202,0.0
1147,0.0662417497332066,0.0
1148,0.042187770612819364,0.0
1149,-0.034047196522236686,0.0
1150,0.42109932822578566,0.0
1151,5.042671699108789,0.0
1152,4.5848933877557485,0.0
1153,-3.0418853014021465,0.0
1154,1.5212257229044885,0.0
1155,-0.7122682568448758,0.0
1156,0.31421201455775083,0.0
1157,-0.010740561447545954,0.0
1158,0.08931231147089388,0.0
1159,0.05211218262818267,0.0
1160,-0.11388270602072725,0.0
1161,0.04538790830519544,0.0
1162,-0.06537547814644717,0.0
1163,0.02137676295654384,0.0
1164,-0.01915945427743844,0.0
1165,-0.018055817951050546,0.0
1166,-0.12997253412565243,0.0
1167,1.2517181705204676,0.0
1168,6.528481538510566,0.0
1169,0.9227957478682574,0.0
1170,-1.5724233534607819,0.0
1171,1.0717531079508644,0.0
1172,-0.5532780996331934,0.0
1173,0.11051910286532761,0.0
1174,-0.08094175199890535,0.0
1175,0.02038508567774641,0.0
1176,-0.05196026088756051,0.0
1177,0.03500530929934462,0.0
1178,-0.04697952096527219,0.0
1179,-0.020928169774276847,0.0
1180,-0.00791367269162168,0.0
1181,-0.04490442497938656,0.0
1182,0.040641624952600174,0.0
1183,0.003093176627221826,0.0
1184,2.865019800559372,0.0
1185,6.740946119633495,0.0
1186,-2.078555599649039,0.0
1187,0.5374661681507616,0.0
1188,-0.10379995761221747,0.0
1189,-0.018404843835498397,0.0
1190,-0.03793046781956814,0.0
1191,-0.026856050913879256,0.0
1192,0.04464481435184995,0.0
1193,-0.04572036986134852,0.0
1194,-0.08019447004093164,0.0
1195,0.047215154322282474,0.0
1196,0.010995421377427539,0.0
1197,-0.03162578760647201,0.0
1198,-0.08872788245200836,0.0
1199,-0.04461061582089075,0.0
1200,0.32923018229595746,0.0
1201,4.865934257902052,0.0
1202,4.492599352545057,0.0
1203,-2.9700600737170593,0.0
1204,1.5668340349877437,0.0
1205,-0.8172827699855262,0.0
1206,0.2636577392368012,0.0
1207,-0.07425583273723255,0.0
1208,-0.016688052738295746,0.0
1209,0.09592307286885578,0.0
1210,-0.023355333141951352,0.0
1211,0.04159625319156965,0.0
1212,-0.06033822852282881,0.0
1213,-0.032703213322630556,0.0
1214,0.026189667380554178,0.0
1215,0.007231011373446948,0.0
1216,-0.0006468954552394622,0.0
1217,1.1404479051317207,0.0
1218,6.764168163728866,0.0
1219,0.9378023147763632,0.0
1220,-1.5745365691073032,0.0
1221,1.1028567107816099,0.0
1222,-0.578003302711261,0.0
1223,0.2367112787810493,0.0
1224,-0.03923561954640503,0.0
1225,-0.013192227616516939,0.0
1226,-0.02802282128737519,0.0
1227,0.05488871653319894,0.0
1228,0.08625088633821175,0.0
1229,-0.08113399439062031,0.0
1230,-0.056960451982933404,0.0
1231,-0.06810057630506541,0.0
1232,-0.012775739896068148,0.0
1233,-0.05830985514366336,0.0
1234,2.6898018848574003,0.0
1235,6.670493839387625,0.0
1236,-2.1789613206946488,0.0
1237,0.38994270924672625,0.0
1238,-0.15810939759955306,0.0
1239,-0.0905993339609992,0.0
1240,-0.10588134464327371,0.0
1241,-0.14063419169120855,0.0
1242,-0.09548900815588779,0.0
1243,-0.0815965177455012,0.0
1244,-0.09664202224772218,0.0
1245,-0.0010602392287039908,0.0
1246,-0.05916681231236907,0.0
1247,-0.01754637453356212,0.0
1248,-0.00916367542100949,0.0
1249,0.031013686770975366,0.0
1250,0.2886359138814512,0.0
1251,4.942124705580592,0.0
1252,4.463245329470506,0.0
1253,-2.986163518876864,0.0
1254,1.626848835644776,0.0
1255,-0.7279052490505662,0.0
1256,0.29777669368124227,0.0
1257,-0.0894022621698042,0.0
1258,0.05444930839635317,0.0
1259,-0.09572689336929809,0.0
1260,0.007148147267761902,0.0
1261,-0.09651113710953398,0.0
1262,-0.04010750177964112,0.0
1263,-0.07494451124423605,0.0
1264,0.019479407596860072,0.0
1265,-0.01142100712195341,0.0
1266,0.004687539573712134,0.0
1267,1.2562918743410763,0.0
1268,6.622576997072374,0.0
1269,0.9273276809901769,0.0
1270,-1.6661441049603756,0.0
1271,1.0356093941212052,0.0
1272,-0.6963719450327137,0.0
1273,0.2319138587084322,0.0
1274,-0.14340776203958075,0.0
1275,-0.04284503476515271,0.0
1276,0.06974867758752401,0.0
1277,-0.037468747030029344,0.0
1278,-0.07909783282392598,0.0
1279,0.025022770850201527,0.0
1280,0.044713306576105505,0.0
1281,-0.013260858043636371,0.0
1282,-0.02355053141902106,0.0
1283,-0.035273612752031426,0.0
1284,2.725239071810115,0.0
1285,6.6294240085663185,0.0
1286,-2.2254905860451384,0.0
1287,0.4447013110520464,0.0
1288,-0.005939297242546826,0.0
1289,0.0237736919319069,0.0
1290,-0.0029307947126565384,0.0
1291,-0.05133473083736133,0.0
1292,-0.07180612662931583,0.0
1293,-0.04413942495907741,0.0
1294,0.062421708775923276,0.0
1295,0.05878774709055255,0.0
1296,0.03373614663707871,0.0
1297,-0.02587622678586412,0.0
1298,-0.0036997402499139103,0.0
1299,-0.0751268495995269,0.0
1300,0.3975184932904648,0.0
1301,4.88166305582204,0.0
1302,4.497951645671311,0.0
1303,-2.9374572165407287,0.0
1304,1.5989622145856754,0.0
1305,-0.8267335936540914,0.0
1306,0.34645685708697577,0.0
1307,-0.14692791984012996,0.0
1308,0.11349861818538162,0.0
1309,0.08903544198255743,0.0
1310,-0.112639192945184,0.0
1311,-0.11538934424917438,0.0
1312,0.04169345736256489,0.0
1313,-0.1205628678909342,0.0
1314,-0.13432933590934631,0.0
1315,0.012242430320437946,0.0
1316,-0.1504545114280199,0.0
1317,1.1720109856670458,0.0
1318,6.574258047870527,0.0
1319,0.8913296070342437,0.0
1320,-1.6116038965783348,0.0
1321,1.0086799365588202,0.0
1322,-0.6085971809627393,0.0
1323,0.17832606547196508,0.0
1324,-0.08728687842511713,0.0
1325,-0.022418629809179053,0.0
1326,-0.10501862458475122,0.0
1327,-0.10983558720875408,0.0
1328,-0.08156267907852269,0.0
1329,-0.028511176637825188,0.0
1330,-0.004008861233435662,0.0
1331,-0.024779046152485794,0.0
1332,-0.03474889167709867,0.0
1333,0.004980596003776209,0.0
1334,2.7833398650600145,0.0
1335,6.669671662033399,0.0
1336,-2.2527707958326655,0.0
1337,0.5999812301221418,0.0
1338,-0.005188321194542295,0.0
1339,-0.0489098690945821,0.0
1340,-0.019112213163123032,0.0
1341,0.0032743456559300096,0.0
1342,-0.056542286043655424,0.0
1343,0.08651434730881782,0.0
1344,-0.03907694518094368,0.0
1345,0.09819199667374282,0.0
1346,-0.17184057515312762,0.0
1347,-0.04759766776772191,0.0
1348,-0.03306143141595458,0.0
1349,-0.0562867245016319,0.0
1350,0.3433106073199969,0.0
1351,4.962108921026755,0.0
1352,4.473770368811604,0.0
1353,-3.057187774945639,0.0
1354,1.5001157539822798,0.0
1355,-0.7415944257046043,0.0
1356,0.31405282335884405,0.0
1357,-0.17730216431253706,0.0
1358,0.057257375671599255,0.0
1359,-0.10245715355278073,0.0
1360,0.033410619942625744,0.0
1361,-0.06504260317271286,0.0
1362,-0.0594916415785513,0.0
1363,-0.04847744587841028,0.0
1364,-0.17024485849527665,0.0
1365,-0.04336062756369628,0.0
1366,-0.17006931525658747,0.0
1367,1.016310916097883,0.0
1368,6.582810008598545,0.0
1369,0.8013271380513687,0.0
1370,-1.6302174700771856,0.0
1371,1.0151785582019563,0.0
1372,-0.6469929880849329,0.0
1373,0.17210376767396898,0.0
1374,-0.19283742762661454,0.0
1375,-0.11060554697881743,0.0
1376,-0.0951353934333832,0.0
1377,0.0031296838495057794,0.0
1378,-0.07100165371253907,0.0
1379,-0.125943946462058,0.0
1380,-0.019880892113233836,0.0
1381,-0.17530005697523954,0.0
1382,-0.03666563246405933,0.0
1383,0.006691337331581164,0.0
1384,2.751926749357753,0.0
1385,6.646461901190171,0.0
1386,-2.308571177988518,0.0
1387,0.47036763536348697,0.0
1388,-0.07403427803223686,0.0
1389,-0.0628437798437845,0.0
1390,-0.15123740007447312,0.0
1391,-0.12046603108626869,0.0
1392,-0.14739376512888344,0.0
1393,-0.0956457281494868,0.0
1394,-0.15600496188983334,0.0
1395,-0.14188831174950217,0.0
1396,-0.05168942729753653,0.0
1397,-0.046475132957865616,0.0
1398,-0.03168334408560322,0.0
1399,-0.061790713967571353,0.0
1400,0.24329619544699727,0.0
1401,4.841862931601399,0.0
1402,4.325676156277029,0.0
1403,-3.0881757639976395,0.0
1404,1.580783013322512,0.0
1405,-0.8646931857092213,0.0
1406,0.28241136240188314,0.0
1407,-0.10005316163805222,0.0
1408,0.007580725042916708,0.0
1409,-0.10176506492342599,0.0
1410,-0.13189222847240967,0.0
1411,-0.09318191387551253,0.0
1412,-0.14542606137770636,0.0
1413,-0.07571840040668677,0.0
1414,-0.07403393652588494,0.0
1415,-0.17620562412851742,0.0
1416,-0.0815625859304177,0.0
1417,1.0987230777777162,0.0
1418,6.512967954207555,0.0
1419,0.7763897997007321,0.0
1420,-1.6135844755135034,0.0
1421,0.8845658456202113,0.0
1422,-0.7577563325850799,0.0
1423,0.17893481431770358,0.0
1424,-0.18442991542723408,0.0
1425,-0.04725887502339213,0.0
1426,-0.030723648095343413,0.0
1427,-0.1733021972691554,0.0
1428,-0.17992422328380434,0.0
1429,-0.07471647671029998,0.0
1430,-0.02912018912734351,0.0
1431,0.0016759928511219935,0.0
1432,-0.028845654990193217,0.0
1433,0.03531768982730431,0.0
1434,2.7277322610061843,0.0
1435,6.579378723379537,0.0
1436,-2.3252626966317784,0.0
1437,0.32844951044627446,0.0
1438,-0.1962843848056476,0.0
1439,-0.1744727867430359,0.0
1440,-0.21306264331370867,0.0
1441,-0.16086710120856706,0.0
1442,-0.1424865898333043,0.0
1443,-0.13687737623320984,0.0
1444,-0.14560998593803398,0.0
1445,-0.07946981248512935,0.0
1446,-0.09983358880348574,0.0
1447,-0.15119449463417595,0.0
1448,-0.11285957585134666,0.0
1449,-0.15422380887470394,0.0
1450,0.28149346719843893,0.0
1451,4.9458447599699165,0.0
1452,4.318689549514221,0.0
1453,-3.0708134974698047,0.0
1454,1.412678428157525,0.0
1455,-0.8097271454653585,0.0
1456,0.18404732177713867,0.0
1457,-0.19588869449667978,0.0
1458,-0.014031480307420735,0.0
1459,-0.03007015428432929,0.0
1460,-0.15817187621803985,0.0
1461,-0.09591207579069835,0.0
1462,-0.05530401069678634,0.0
1463,-0.08557257149524947,0.0
1464,-0.05351988635304433,0.0
1465,-0.05721231949660337,0.0
1466,-0.07426719572960999,0.0
1467,1.206283224909808,0.0
1468,6.614224635713675,0.0
1469,0.8139582740048622,0.0
1470,-1.5682845731214805,0.0
1471,1.0192930792916555,0.0
1472,-0.6036741175512862,0.0
1473,0.15858172219278482,0.0
1474,-0.03971456904002911,0.0
1475,-0.08606785058766511,0.0
1476,0.04343332879603735,0.0
1477,-0.05608287216272312,0.0
1478,-0.040553307223083354,0.0
1479,-0.027982664827952135,0.0
1480,-0.021761494228230267,0.0
1481,-0.015879824086179287,0.0
1482,-0.12300255191451913,0.0
1483,-0.020357660324860468,0.0
1484,2.8176809434198873,0.0
1485,6.631021995302544,0.0
1486,-2.3463485899911514,0.0
1487,0.3691111448722735,0.0
1488,-0.16923085564838267,0.0
1489,-0.029232078561843053,0.0
1490,-0.010361635434298674,0.0
1491,-0.010561555208970203,0.0
1492,-0.03139804291510352,0.0
1493,-0.015739623881903454,0.0
1494,-0.07338370395116982,0.0
1495,-0.0687659763288138,0.0
1496,0.03858231722863431,0.0
1497,0.05854863463092702,0.0
1498,-0.05719390056601019,0.0
1499,-0.011943974434490863,0.0
1500,0.3672338496092157,0.0
1501,4.949522981507149,0.0
1502,4.37036235232788,0.0
1503,-2.887374366826153,0.0
1504,1.6593805084825668,0.0
1505,-0.6961756208407195,0.0
1506,0.3266870186656601,0.0
1507,-0.060119931369574275,0.0
1508,0.01861997711842714,0.0
1509,-0.05969674698592097,0.0
1510,0.01087935190178474,0.0
1511,-0.1022871923272879,0.0
1512,-0.11168248144643998,0.0
1513,-0.008834053933574379,0.0
1514,-0.03321804950470954,0.0
1515,-0.1378533461829334,0.0
1516,-0.0451591788025904,0.0
1517,1.2550017117122774,0.0
1518,6.622995299802613,0.0
1519,0.6770119749671388,0.0
1520,-1.5260045673552136,0.0
1521,0.9909367776946794,0.0
1522,-0.5583822125067288,0.0
1523,0.1920875730534411,0.0
1524,-0.08908409216547321,0.0
1525,-0.010697695118039108,0.0
1526,-0.052150019747877974,0.0
1527,0.024513453189587572,0.0
1528,-0.11138317846457632,0.0
1529,0.04946531534212079,0.0
1530,-0.04784163413431409,0.0
1531,-0.0441107076190776,0.0
1532,0.015530770265860916,0.0
1533,0.024165729165282052,0.0
1534,2.8653448511389255,0.0
1535,6.699105621671938,0.0
1536,-2.2441531401351904,0.0
1537,0.5776032736862103,0.0
1538,-0.06772311771971504,0.0
1539,0.03229062347671095,0.0
1540,-0.09372378222142781,0.0
1541,0.04102725135210176,0.0
1542,0.03864594929913742,0.0
1543,0.06577239105719854,0.0
1544,0.03451433592331837,0.0
1545,-0.023589721584472482,0.0
1546,-0.0020040681753911785,0.0
1547,-0.04465063722756964,0.0
1548,-0.00997181800174376,0.0
1549,-0.06515293840818377,0.0
1550,0.45159971610355726,0.0
1551,5.115479141976165,0.0
1552,4.385303795514129,0.0
1553,-2.984478260497669,0.0
1554,1.609081799043728,0.0
1555,-0.7801004395479504,0.0
1556,0.2963852667240723,0.0
1557,-0.06940076836271447,0.0
1558,0.06918195986134215,0.0
1559,0.014020771591771237,0.0
1560,-0.03223471973314012,0.0
1561,-0.027257638971521433,0.0
1562,-0.05818864053932289,0.0
1563,-0.10261796988889044,0.0
1564,-0.14426274101970782,0.0
1565,-0.09217830918004814,0.0
1566,0.09958170654917048,0.0
1567,1.153488572637162,0.0
1568,6.750049703142108,0.0
1569,0.848558596924019,0.0
1570,-1.5948302685277302,0.0
1571,0.9844326210768953,0.0
1572,-0.5057415678573364,0.0
1573,0.16245997149247648,0.0
1574,-0.14675698991239494,0.0
1575,0.011107804318653516,0.0
1576,0.03333604059788856,0.0
1577,0.08101871298013896,0.0
1578,0.07613318143094196,0.0
1579,-0.0042725381719666555,0.0
1580,-0.05412551862954548,0.0
1581,-0.011782434270017657,0.0
1582,0.028595064891524163,0.0
1583,0.04314038163119578,0.0
1584,2.904633245583738,0.0
1585,6.697848234684416,0.0
1586,-2.301686554393172,0.0
1587,0.6943085554819687,0.0
1588,-0.018780993175905217,0.0
1589,0.03634431210143531,0.0
1590,-0.10958006647444761,0.0
1591,-0.011225824703675578,0.0
1592,-0.03514136292806885,0.0
1593,0.04244005943591034,0.0
1594,0.0488284339091723,0.0
1595,-0.04164737960842285,0.0
1596,-0.08840453362537484,0.0
1597,-0.02251435349701369,0.0
1598,-0.04462196137848011,0.0
1599,0.026837985651874723,0.0
1600,0.31420281425443947,0.0
1601,4.952759557543274,0.0
1602,4.34074665486834,0.0
1603,-2.9697607264908075,0.0
1604,1.5631224232508338,0.0
1605,-0.6689388502788028,0.0
1606,0.33785021092543704,0.0
1607,-0.13469348393683517,0.0
1608,0.025058883318109744,0.0
1609,0.006736861495928843,0.0
1610,-0.011409544245780437,0.0
1611,0.11986217261191497,0.0
1612,-0.10957865813316178,0.0
1613,-0.02064572893738435,0.0
1614,-0.010404285941932923,0.0
1615,0.0804834672280976,0.0
1616,0.025802166428294075,0.0
1617,1.1902860089509668,0.0
1618,6.648281216803001,0.0
1619,0.7483502785940287,0.0
1620,-1.5064471685675715,0.0
1621,0.9277068575581041,0.0
1622,-0.5314730197796841,0.0
1623,0.2697603113724845,0.0
1624,-0.07787857078050803,0.0
1625,-0.006311462883133069,0.0
1626,-0.02100389193318656,0.0
1627,-0.01907980792666157,0.0
1628,-0.07818249373627853,0.0
1629,-0.0010491945358359596,0.0
1630,0.012206855585904019,0.0
1631,0.017004610683463976,0.0
1632,-0.03666469574219918,0.0
1633,0.09072601038447232,0.0
1634,2.999617785078704,0.0
1635,6.636808961221116,0.0
1636,-2.3222311184930735,0.0
1637,0.5764207964567775,0.0
1638,-0.06120341202789847,0.0
1639,-0.005479966881606103,0.0
1640,0.04414131439968414,0.0
1641,-0.13138417171479422,0.0
1642,-0.0492805263314058,0.0
1643,-0.17897838014657208,0.0
1644,-0.08104978765072846,0.0
1645,-0.006921350065727836,0.0
1646,-0.06016845369725011,0.0
1647,-0.061218699414350417,0.0
1648,-0.06661553353673368,0.0
1649,-0.0614191448155846,0.0
1650,0.3924828551746002,0.0
1651,5.020446270628317,0.0
1652,4.303532050837648,0.0
1653,-2.929067322046583,0.0
1654,1.5397320102560663,0.0
1655,-0.7119118319685442,0.0
1656,0.3440122648772005,0.0
1657,-0.046217865667821746,0.0
1658,0.026244319848437773,0.0
1659,-0.05884306525058525,0.0
1660,0.08669133831962704,0.0
1661,0.07032823150787143,0.0
1662,-0.0028486916569268085,0.0
1663,0.1703898112465043,0.0
1664,-0.022370413080483355,0.0
1665,-0.01487852496374352,0.0
1666,0.05350271725973057,0.0
1667,1.2464655834580487,0.0
1668,6.721424298284604,0.0
1669,0.7793378202813739,0.0
1670,-1.4947513475196224,0.0
1671,1.0599833672170675,0.0
1672,-0.5210818461824006,0.0
1673,0.2070311894659496,0.0
1674,0.041086152707672456,0.0
1675,-0.010153623974615167,0.0
1676,0.022784678467961585,0.0
1677,0.06932262101200377,0.0
1678,0.06206856277026372,0.0
1679,0.021562460447301354,0.0
1680,-0.08711904796715998,0.0
1681,0.07900752621712363,0.0
1682,0.0364464029035629,0.0
1683,0.06576831854396643,0.0
1684,2.9509134769500283,0.0
1685,6.716855259753021,0.0
1686,-2.3699872936927644,0.0
1687,0.6224743368776393,0.0
1688,-0.1307765618692054,0.0
1689,0.001189553821402952,0.0
1690,-0.002549559460950975,0.0
1691,0.020800639226634166,0.0
1692,0.03585038914694738,0.0
1693,-0.03674741239838296,0.0
1694,-0.0013896208897464513,0.0
1695,0.036902285525360165,0.0
1696,-0.16983684933424714,0.0
1697,0.013915495657946734,0.0
1698,0.08672181458811437,0.0
1699,0.037858827189698116,0.0
1700,0.4075721895918123,0.0
1701,5.142962563981401,0.0
1702,4.330013332064161,0.0
1703,-2.8556488132968494,0.0
1704,1.5689501508778259,0.0
1705,-0.7745635165571944,0.0
1706,0.343079074527764,0.0
1707,-0.015172515440303236,0.0
1708,0.04088012366283107,0.0
1709,-0.040119064487615194,0.0
1710,0.07021426086177991,0.0
1711,-0.10665425973795296,0.0
1712,-0.002602099539313091,0.0
1713,0.023508317154168536,0.0
1714,0.03311464398346095,0.0
1715,0.10319871416131882,0.0
1716,0.011097953239542963,0.0
1717,1.2688681224993559,0.0
1718,6.808712043413809,0.0
1719,0.7257784909432174,0.0
1720,-1.449884406844162,0.0
1721,1.131777881881723,0.0
1722,-0.5256380000813193,0.0
1723,0.27100396145848143,0.0
1724,0.012682310062304435,0.0
1725,0.09291439161532443,0.0
1726,0.07369148722194359,0.0
1727,-0.009684745587824714,0.0
1728,-0.007451719861999828,0.0
1729,0.03827107548227551,0.0
1730,0.035779658289897764,0.0
1731,0.1584257016462939,0.0
1732,0.05652034997093905,0.0
1733,0.13093072582097764,0.0
1734,3.0042281218834455,0.0
1735,6.708923447598722,0.0
1736,-2.296543470468433,0.0
1737,0.6175216249752016,0.0
1738,-0.056664290981097265,0.0
1739,0.016022373300424456,0.0
1740,0.03896821624121218,0.0
1741,0.039290267281359474,0.0
1742,0.15410908702339202,0.0
1743,-0.0218400409925336,0.0
1744,0.06636160870880331,0.0
1745,0.04978844438560613,0.0
1746,-0.04630937084664209,0.0
1747,0.04013152060184736,0.0
1748,0.1285818321262471,0.0
1749,0.09072503387943717,0.0
1750,0.4329689557525445,0.0
1751,5.15581531675983,0.0
1752,4.422823717269941,0.0
1753,-2.7749737046274094,0.0
1754,1.6750449698349976,0.0
1755,-0.6229052813993015,0.0
1756,0.4174665552825613,0.0
1757,0.00949674660204881,0.0
1758,0.17811836300138617,0.0
1759,0.1782120471354467,0.0
1760,0.1639882556439891,0.0
1761,0.09782265552012355,0.0
1762,0.11246854522273414,0.0
1763,-0.02463830083771973,0.0
1764,0.0885735768889404,0.0
1765,0.11891477447765472,0.0
1766,0.11995399203568738,0.0
1767,1.3886598575155973,0.0
1768,6.861468186406545,0.0
1769,0.7986467463335963,0.0
1770,-1.4498641631176847,0.0
1771,1.0180291113646236,0.0
1772,-0.5455124931164131,0.0
1773,0.18560488684603213,0.0
1774,-0.017341945599790298,0.0
1775,-0.024297270192358496,0.0
1776,0.016247688719905583,0.0
1777,-0.06310579550869327,0.0
1778,-0.012512003155221605,0.0
1779,0.01314505218969156,0.0
1780,0.03716894090119996,0.0
1781,-0.026010217327379792,0.0
1782,0.1088053748753186,0.0
1783,0.07843691347091533,0.0
1784,2.92862453014585,0.0
1785,6.647668609102099,0.0
1786,-2.3349545595009547,0.0
1787,0.6596483039902175,0.0
1788,-0.08611199775190614,0.0
1789,-0.08149157745809515,0.0
1790,0.008753349624764446,0.0
1791,0.033612795694404944,0.0
1792,0.01850413682606993,0.0
1793,-0.054053509847952104,0.0
1794,0.011697552129110214,0.0
1795,-0.025018303225504312,0.0
1796,0.08490446309542085,0.0
1797,0.005069467945572706,0.0
1798,0.0855006894291211,0.0
1799,-0.0036406704498596412,0.0
1800,0.4198573024367963,0.0
1801,5.1182416410881855,0.0
1802,4.367230080707474,0.0
1803,-2.858128546940041,0.0
1804,1.6644202101828707,0.0
1805,-0.7685453579989083,0.0
1806,0.33993804802584354,0.0
1807,-0.10722247910420488,0.0
1808,0.055538632237483725,0.0
1809,0.04954039320336411,0.0
1810,0.05888803102868311,0.0
1811,0.04491794556811171,0.0
1812,0.026263604031801883,0.0
1813,-0.01776727873506341,0.0
1814,0.02143333466399501,0.0
1815,0.04344760329252055,0.0
1816,-0.0008697762680555058,0.0
1817,1.2312069015249343,0.0
1818,6.703335853856265,0.0
1819,0.7446919043060235,0.0
1820,-1.532133137641248,0.0
1821,1.0562200898552094,0.0
1822,-0.6653919966278649,0.0
1823,0.2431462983254748,0.0
1824,-0.1186554412881435,0.0
1825,-0.011715230871580816,0.0
1826,-0.004700397047480816,0.0
1827,0.147973002214668,0.0
1828,-0.08347403882021667,0.0
1829,0.011771042413382164,0.0
1830,0.0065970681817251724,0.0
1831,4.1773116146351374e-05,0.0
1832,-0.035602443565520926,0.0
1833,0.04386186965866454,0.0
1834,2.9444624723699873,0.0
1835,6.589198285600955,0.0
1836,-2.2714736058056073,0.0
1837,0.6516067134425717,0.0
1838,-0.1890125547038209,0.0
1839,0.0014867886794272187,0.0
1840,-0.05617333442516194,0.0
1841,-0.04592242063591945,0.0
1842,0.09058861383803322,0.0
1843,-0.1097766663485311,0.0
1844,0.10056121468353042,0.0
1845,0.060336213112835095,0.0
1846,0.012018500557351361,0.0
1847,-0.06463441138433076,0.0
1848,-0.0032048405199725286,0.0
1849,-0.025828928983555516,0.0
1850,0.4105434007613767,0.0
1851,5.1180794641483365,0.0
1852,4.228245280074136,0.0
1853,-2.913391142486888,0.0
1854,1.611619555621219,0.0
1855,-0.7658707804065619,0.0
1856,0.2033948054890815,0.0
1857,-0.055703750972410794,0.0
1858,0.060168176299378116,0.0
1859,0.027406797791765226,0.0
1860,0.0777649900215224,0.0
1861,0.04337863045693903,0.0
1862,0.019295210672267964,0.0
1863,0.024135847897855785,0.0
1864,0.10794587347463484,0.0
1865,0.06625635348932155,0.0
1866,0.007081991337232913,0.0
1867,1.2956752059409835,0.0
1868,6.7506627873381175,0.0
1869,0.698148070955859,0.0
1870,-1.3721539631297637,0.0
1871,1.0696609086750075,0.0
1872,-0.5191994118983929,0.0
1873,0.2502043724470533,0.0
1874,0.030644241795492702,0.0
1875,0.03552502583014344,0.0
1876,0.025940577336363353,0.0
1877,0.0525894805313292,0.0
1878,0.12288876681255459,0.0
1879,0.008742770659958168,0.0
1880,-0.02600463253270621,0.0
1881,0.06725043225186303,0.0
1882,-0.04130044572391631,0.0
1883,0.13476069379603567,0.0
1884,2.9134743051740397,0.0
1885,6.556172831531278,0.0
1886,-2.3145135985313074,0.0
1887,0.6200744499601162,0.0
1888,-0.1128172725479852,0.0
1889,-0.030314956831909413,0.0
1890,0.001827364314063589,0.0
1891,0.028835010588008643,0.0
1892,0.0899332923212619,0.0
1893,0.005550234233546655,0.0
1894,0.016449609396868153,0.0
1895,0.05282471208361454,0.0
1896,-0.00010054419977345228,0.0
1897,0.10825725638749126,0.0
1898,0.09113441339628378,0.0
1899,0.03166942341818633,0.0
1900,0.4718601762860017,0.0
1901,5.118104565892863,0.0
1902,4.260562456582646,0.0
1903,-2.769296791750456,0.0
1904,1.668081592226796,0.0
1905,-0.6614583315459394,0.0
1906,0.3229883356998207,0.0
1907,-0.06067706032522051,0.0
1908,0.00305739503913105,0.0
1909,0.01866485088423724,0.0
1910,0.08392762449958484,0.0
1911,0.058520157575767714,0.0
1912,0.0395213082526488,0.0
1913,-0.02746531580284419,0.0
1914,0.09927429947716668,0.0
1915,0.010806511995847205,0.0
1916,0.023241143946949965,0.0
1917,1.2153418707542378,0.0
1918,6.7165967378993665,0.0
1919,0.6698381387336092,0.0
1920,-1.4974707768696645,0.0
1921,1.0811637140860386,0.0
1922,-0.43541940493861647,0.0
1923,0.23073535788459038,0.0
1924,-0.12055604030553334,0.0
1925,-0.022106511145585248,0.0
1926,-0.022168580371128996,0.0
1927,0.088525529906235,0.0
1928,0.0599567361350246,0.0
1929,0.09678078263019448,0.0
1930,0.057850766237177054,0.0
1931,0.022194217065025404,0.0
1932,0.02451672872583758,0.0
1933,0.10244257539376737,0.0
1934,3.015477520245615,0.0
1935,6.695401383579794,0.0
1936,-2.2731249275416414,0.0
1937,0.6958073403045193,0.0
1938,-0.07288464121800999,0.0
1939,-0.01564735033912145,0.0
1940,0.05344559062375389,0.0
1941,-0.13108797805062186,0.0
1942,0.04833306868068647,0.0
1943,-0.07501167111189744,0.0
1944,0.026140401479310807,0.0
1945,-0.00379245690053616,0.0
1946,0.014450606191288644,0.0
1947,-0.023914549013672026,0.0
1948,-0.07419547943106752,0.0
1949,0.013892124432879812,0.0
1950,0.41138021633512095,0.0
1951,5.106130163693135,0.0
1952,4.259530757843995,0.0
1953,-2.9479504405328685,0.0
1954,1.6700670193972575,0.0
1955,-0.737764713948581,0.0
1956,0.2868714026803093,0.0
1957,-0.19774104541005233,0.0
1958,0.06297543528601887,0.0
1959,-0.07451094177155898,0.0
1960,0.06575462228577733,0.0
1961,-0.04199894092232552,0.0
1962,0.028643363354962786,0.0
1963,-0.02348007377632786,0.0
1964,-0.05952473088920973,0.0
1965,-0.00020823335157708293,0.0
1966,-0.005775838329009396,0.0
1967,1.2339001839045436,0.0
1968,6.789792947014275,0.0
1969,0.656868853445687,0.0
1970,-1.5225349782828808,0.0
1971,0.877194146622079,0.0
1972,-0.5538089605908109,0.0
1973,0.23604920591647122,0.0
1974,-0.17587990358489725,0.0
1975,-0.05611738781883071,0.0
1976,-0.027304306895355807,0.0
1977,-0.11166259685029542,0.0
1978,-0.08421982812349793,0.0
1979,-0.03034557692066928,0.0
1980,-0.03294595789995749,0.0
1981,-0.08353996217846088,0.0
1982,-0.03258886120343394,0.0
1983,0.04553283639365328,0.0
1984,2.9974612283040463,0.0
1985,6.531032797347893,0.0
1986,-2.4419576270945655,0.0
1987,0.7099578764441553,0.0
1988,-0.11356889725822565,0.0
1989,0.10490503583718215,0.0
1990,-0.053641498187800674,0.0
1991,-0.08556454940168773,0.0
1992,-0.026438840633867644,0.0
1993,0.08616065250470117,0.0
1994,0.02866194739962715,0.0
1995,0.0175970424173649,0.0
1996,0.04197072590302934,0.0
1997,0.13780697925873706,0.0
1998,-0.014666074936979728,0.0
1999,-0.016734258565546146,0.0
2000,0.32341065794601837,0.0
2001,5.114525977892221,0.0
2002,4.133866734264448,0.0
2003,-2.916764802050368,0.0
2004,1.6273947449972925,0.0
2005,-0.920333241818164,0.0
2006,0.34180733795608437,0.0
2007,-0.11284590555363164,0.0
2008,0.015684420337353653,0.0
2009,0.014705959186998532,0.0
2010,0.03841194347092364,0.0
2011,0.13764228730266745,0.0
2012,-0.012853706463470265,0.0
2013,-0.07358552683534342,0.0
2014,-0.06715968291079846,0.0
2015,-0.010733374077301317,0.0
2016,0.030702675929374628,0.0
2017,1.25531253660571,0.0
2018,6.6856277234928925,0.0
2019,0.5575072512451869,0.0
2020,-1.4379924027027968,0.0
2021,0.9802942746020771,0.0
2022,-0.5425958499820821,0.0
2023,0.08930736945104222,0.0
2024,-0.1640134230851879,0.0
2025,-0.008092486479523972,0.0
2026,-0.012593486243503623,0.0
2027,-0.08008352007890014,0.0
2028,-0.008644356034499086,0.0
2029,-0.03526639529626242,0.0
2030,0.008672180793697559,0.0
2031,0.0015827774497422717,0.0
2032,-0.0175760474495315,0.0
2033,0.07714524590245127,0.0
2034,3.0722240627580977,0.0
2035,6.73649191814365,0.0
2036,-2.2802864520825845,0.0
2037,0.7803385429744477,0.0
2038,-0.1673294691162391,0.0
2039,0.07641496858384808,0.0
2040,0.05308578325537931,0.0
2041,0.122075934009016,0.0
2042,0.03164951350912224,0.0
2043,0.15696749657690956,0.0
2044,0.02569033830877806,0.0
2045,0.0913523564451435,0.0
2046,0.0915239457960959,0.0
2047,0.07182368229404772,0.0
2048,0.053591203970759185,0.0
2049,0.058736701070945196,0.0
2050,0.4963638748505781,0.0
2051,5.277048477951291,0.0
2052,4.185701051410994,0.0
2053,-3.0023803342211157,0.0
2054,1.5775144093913813,0.0
2055,-0.847478405612446,0.0
2056,0.4112969800408899,0.0
2057,-0.04993778615202419,0.0
2058,0.11627894837015516,0.0
2059,0.0038635964897803035,0.0
2060,-0.04563610840146792,0.0
2061,-0.015467802107084608,0.0
2062,-0.00015111085994226614,0.0
2063,0.05315784186297652,0.0
2064,0.027900844822679086,0.0
2065,-0.046693680453614744,0.0
2066,-0.0492456414084551,0.0
2067,1.281518704167248,0.0
2068,6.813210104224865,0.0
2069,0.5779702915730026,0.0
2070,-1.3802505381519319,0.0
2071,1.0130247930380658,0.0
2072,-0.45241401770052464,0.0
2073,0.27580563448488227,0.0
2074,-0.06960385081620779,0.0
2075,0.012121181323937524,0.0
2076,0.0395966338345172,0.0
2077,-0.015994007072321556,0.0
2078,0.08799658817498415,0.0
2079,0.11174862604513464,0.0
2080,0.009211250438232226,0.0
2081,0.008082917114387848,0.0
2082,0.03562294775534049,0.0
2083,0.08122728730695636,0.0
2084,3.02494669748908,0.0
2085,6.653076350790326,0.0
2086,-2.3933553710209816,0.0
2087,0.69356198472936,0.0
2088,-0.016297168951965355,0.0
2089,0.018833891277224624,0.0
2090,-0.016936158521146102,0.0
2091,0.06377396275420386,0.0
2092,0.12887257301466692,0.0
2093,0.09409033477990211,0.0
2094,0.016047479113823634,0.0
2095,0.08106167846302338,0.0
2096,0.082658011331275,0.0
2097,0.14351653818875296,0.0
2098,0.015122494933852863,0.0
2099,0.145608377689916,0.0
2100,0.5028431669286847,0.0
2101,5.247739720242904,0.0
2102,4.172080928049015,0.0
2103,-2.9043299641163616,0.0
2104,1.6272576021636616,0.0
2105,-0.7325178810385355,0.0
2106,0.3789468287781225,0.0
2107,-0.08706275779050111,0.0
2108,0.0707798202703488,0.0
2109,0.030032473833016216,0.0
2110,0.04082727822775478,0.0
2111,0.04865983183498521,0.0
2112,0.035334495667948704,0.0
2113,-0.048424436015088904,0.0
2114,0.020412979465164783,0.0
2115,0.05435030324018614,0.0
2116,-0.008943638088054578,0.0
2117,1.3497524543513912,0.0
2118,6.790900816163048,0.0
2119,0.6133816463633657,0.0
2120,-1.2916904462135035,0.0
2121,0.9973043259102815,0.0
2122,-0.5499461228506354,0.0
2123,0.2486752136914986,0.0
2124,-0.011721968994107303,0.0
2125,0.06358127656497908,0.0
2126,0.08494609645998386,0.0
2127,0.004706185364695158,0.0
2128,0.03946372678013817,0.0
2129,0.0003204710238883107,0.0
2130,0.04571826341063275,0.0
2131,0.06689029989817831,0.0
2132,0.014426222097795698,0.0
2133,0.0689345901410339,0.0
2134,3.0807536219105898,0.0
2135,6.596774260796419,0.0
2136,-2.408216596627863,0.0
2137,0.657409373106652,0.0
2138,-0.10478939848141211,0.0
2139,0.036713498380910786,0.0
2140,-0.022040553346093134,0.0
2141,0.11002606243974775,0.0
2142,-0.008491324294592716,0.0
2143,0.1243462474882178,0.0
2144,-0.05942298727250059,0.0
2145,-0.04287596560640583,0.0
2146,0.004412286207626424,0.0
2147,-0.06370715091471735,0.0
2148,0.07714013025672622,0.0
2149,0.04625401884734337,0.0
2150,0.47344725007356836,0.0
2151,5.18929496619901,0.0
2152,4.079587588977459,0.0
2153,-2.8640303683362225,0.0
2154,1.6566724632258145,0.0
2155,-0.6624649998689206,0.0
2156,0.3061979357384128,0.0
2157,-0.11993437591418643,0.0
2158,0.10763080118744621,0.0
2159,0.059004071964318436,0.0
2160,0.18092033225352885,0.0
2161,0.047837055583709286,0.0
2162,-0.020593166044498686,0.0
2163,0.06886299913852238,0.0
2164,0.009848128234441006,0.0
2165,-0.006926947042209211,0.0
2166,0.048160416055552234,0.0
2167,1.3703297306672662,0.0
2168,6.718941851860565,0.0
2169,0.5382736929471948,0.0
2170,-1.2752006392522586,0.0
2171,1.1099827696901976,0.0
2172,-0.3734406874437369,0.0
2173,0.30736723524203147,0.0
2174,0.0758654858076391,0.0
2175,0.011910533829821435,0.0
2176,0.18438797533142626,0.0
2177,0.15348206203397002,0.0
2178,0.07555353620834149,0.0
2179,-0.01924822694235237,0.0
2180,0.022110771285137325,0.0
2181,0.18171994943702452,0.0
2182,0.06421929554601018,0.0
2183,0.08446331597656162,0.0
2184,3.106606131039021,0.0
2185,6.637617858403157,0.0
2186,-2.330286008048984,0.0
2187,0.7661645663261584,0.0
2188,-0.11930687551676686,0.0
2189,0.05991405744650965,0.0
2190,0.042788216409183816,0.0
2191,-0.030986099430060546,0.0
2192,-0.03487218662047802,0.0
2193,0.03974148651697605,0.0
2194,0.09199506785904832,0.0
2195,-0.0123608030538013,0.0
2196,0.06990067791320913,0.0
2197,-0.011300604500912421,0.0
2198,0.03297293482468508,0.0
2199,0.09588814929394526,0.0
2200,0.47940698000222987,0.0
2201,5.224487206256428,0.0
2202,4.174822368984517,0.0
2203,-2.8684095384100874,0.0
2204,1.606617828133801,0.0
2205,-0.6910056312657737,0.0
2206,0.37754716257558435,0.0
2207,-0.048875050692261945,0.0
2208,-0.024932363528565038,0.0
2209,0.1284305402121317,0.0
2210,0.0013487723519134652,0.0
2211,0.07099671100850011,0.0
2212,0.0403968232185807,0.0
2213,0.1414999571563292,0.0
2214,0.06996815738052392,0.0
2215,0.13919309863736726,0.0
2216,0.009552184805461838,0.0
2217,1.3559580826959547,0.0
2218,6.700526486773066,0.0
2219,0.5150349952505463,0.0
2220,-1.2909854553413385,0.0
2221,0.9646485743474301,0.0
2222,-0.4912181777302565,0.0
2223,0.13371297355534378,0.0
2224,-0.10730806008618282,0.0
2225,0.11116104942922791,0.0
2226,-0.0441516503847336,0.0
2227,0.006434865914876058,0.0
2228,0.0730457421768953,0.0
2229,-0.002814511538592258,0.0
2230,-0.031560853497000496,0.0
2231,0.07741143017577105,0.0
2232,-0.04704461405886356,0.0
2233,0.07933361995126711,0.0
2234,3.0610663040111197,0.0
2235,6.673547098720389,0.0
2236,-2.4243829499597243,0.0
2237,0.6897854455511417,0.0
2238,-0.2276726670632045,0.0
2239,-0.04221560319468172,0.0
2240,-0.04080379860307187,0.0
2241,0.016280880154792156,0.0
2242,0.016547958524502228,0.0
2243,0.13040469503783314,0.0
2244,0.05250949956651057,0.0
2245,-0.012458186760630494,0.0
2246,-0.030325150100476976,0.0
2247,0.11217375694012799,0.0
2248,-0.0678570867804816,0.0
2249,0.03733141237964738,0.0
2250,0.40439362532693074,0.0
2251,5.167424721511195,0.0
2252,4.078084012950148,0.0
2253,-2.9149479611528757,0.0
2254,1.553081895216211,0.0
2255,-0.7134809932090802,0.0
2256,0.2924714053082078,0.0
2257,-0.08239482104928679,0.0
2258,0.060624501049661966,0.0
2259,0.06224314617079758,0.0
2260,-0.016713008031617686,0.0
2261,0.013701898272925995,0.0
2262,0.0136209181180535,0.0
2263,0.11338253131248001,0.0
2264,-0.05656423760929652,0.0
2265,0.07454923349724105,0.0
2266,0.0019347823585494379,0.0
2267,1.2552523724257594,0.0
2268,6.857343742936588,0.0
2269,0.5679113237883676,0.0
2270,-1.3326509691300856,0.0
2271,0.9556996953468414,0.0
2272,-0.5244364171816371,0.0
2273,0.1875073699305771,0.0
2274,-0.02611269464479026,0.0
2275,0.06190989797024938,0.0
2276,-0.010237339704629643,0.0
2277,-0.004123519245168275,0.0
2278,-0.003016550140340016,0.0
2279,-0.01720953748679383,0.0
2280,0.019489618234393075,0.0
2281,0.09648026821029994,0.0
2282,0.007571602111732801,0.0
2283,0.049877684190530056,0.0
2284,3.0046931687916643,0.0
2285,6.478794332490365,0.0
2286,-2.4658790878146877,0.0
2287,0.7995412969288385,0.0
2288,-0.2068978502802567,0.0
2289,0.015468387586621741,0.0
2290,-0.05618707693875863,0.0
2291,0.009333843433440348,0.0
2292,0.03645373134292753,0.0
2293,0.05515371478471607,0.0
2294,0.05086225079507721,0.0
2295,0.029794054190622477,0.0
2296,-0.04456044206965687,0.0
2297,0.07259739348363939,0.0
2298,0.0646204151532092,0.0
2299,-0.02606974679914422,0.0
2300,0.4241310074764832,0.0
2301,5.300261479492057,0.0
2302,4.063770448010178,0.0
2303,-2.8257529804110697,0.0
2304,1.5826090092159208,0.0
2305,-0.7977765216910466,0.0
2306,0.34132070693665817,0.0
2307,0.04746121032052063,0.0
2308,0.07276276567747184,0.0
2309,0.03576434246040582,0.0
2310,0.11630576761941747,0.0
2311,0.018774793906850128,0.0
2312,0.023784089749800674,0.0
2313,0.03144527255452359,0.0
2314,0.06030300105753257,0.0
2315,0.08980070792023037,0.0
2316,0.04463098642085617,0.0
2317,1.3593149499920238,0.0
2318,6.854154951944536,0.0
2319,0.37401922102547913,0.0
2320,-1.2825573800417203,0.0
2321,0.921839839075232,0.0
2322,-0.5611511141231205,0.0
2323,0.15332738879959668,0.0
2324,-0.01203079144338872,0.0
2325,0.030548877912190856,0.0
2326,0.055567340913517324,0.0
2327,-0.004792870461864414,0.0
2328,-0.07290964691225074,0.0
2329,0.029776188344666013,0.0
2330,-0.09210888804414356,0.0
2331,-0.01367098312991642,0.0
2332,0.06869572490538599,0.0
2333,-0.04128787675098717,0.0
2334,3.101109664168889,0.0
2335,6.566870894135619,0.0
2336,-2.3718301791918215,0.0
2337,0.7664902098461501,0.0
2338,-0.10692685354009354,0.0
2339,0.049294935113410425,0.0
2340,0.08826583851538548,0.0
2341,0.016435304285447837,0.0
2342,-0.037137816418750656,0.0
2343,0.09314281301626084,0.0
2344,0.06912102830832459,0.0
2345,0.12055703498725855,0.0
2346,-0.015163665290395638,0.0
2347,0.054138571429955686,0.0
2348,0.061806148115218854,0.0
2349,-0.029780329535099626,0.0
2350,0.5131164290312017,0.0
2351,5.22378504558754,0.0
2352,4.018229547775864,0.0
2353,-2.9175513976907066,0.0
2354,1.5573244566913893,0.0
2355,-0.8663554800133833,0.0
2356,0.3152499403550856,0.0
2357,-0.16922533424690966,0.0
2358,0.10773337354564685,0.0
2359,0.0698089855093068,0.0
2360,0.0667375548413042,0.0
2361,0.013238294506465059,0.0
2362,-0.09803111233295245,0.0
2363,0.026341258124469417,0.0
2364,-0.022380104690255146,0.0
2365,0.06496261389117422,0.0
2366,0.04169648506503598,0.0
2367,1.4008061923783648,0.0
2368,6.810438555711359,0.0
2369,0.4588108734291428,0.0
2370,-1.3493241398498326,0.0
2371,1.0337325698664344,0.0
2372,-0.5289335354015041,0.0
2373,0.34358538434309693,0.0
2374,-0.05332490277472986,0.0
2375,0.04529615031396672,0.0
2376,0.1158267319512825,0.0
2377,-0.08919413864539488,0.0
2378,-0.11676145626439324,0.0
2379,0.0012403243253867402,0.0
2380,-0.016877651623754215,0.0
2381,0.04556484270567907,0.0
2382,0.006425670239104391,0.0
2383,0.06810155836507238,0.0
2384,3.1672544697546674,0.0
2385,6.566124266427442,0.0
2386,-2.4805920301842734,0.0
2387,0.7801721110257329,0.0
2388,-0.17127764464126893,0.0
2389,0.07970857598315953,0.0
2390,-0.05758293765750526,0.0
2391,0.09743060403402981,0.0
2392,-0.05239022343040517,0.0
2393,0.04595087369329839,0.0
2394,0.012418079264213044,0.0
2395,0.013340978251712172,0.0
2396,-0.008981364608728646,0.0
2397,0.04296523720375252,0.0
2398,0.005305546590674599,0.0
2399,0.04808740993805343,0.0
2400,0.4068653473419731,0.0
2401,5.187378902689804,0.0
2402,4.050726958534722,0.0
2403,-2.8763488025871555,0.0
2404,1.6130821650586271,0.0
2405,-0.6900910301722707,0.0
2406,0.3914910182669522,0.0
2407,-0.055669169696531406,0.0
2408,0.03403684778901796,0.0
2409,0.029948960052638855,0.0
2410,0.0681550131088879,0.0
2411,0.02886521530670303,0.0
2412,0.046814782755116746,0.0
2413,0.10729983567402282,0.0
2414,0.01659356988493959,0.0
2415,0.11175532620674547,0.0
2416,0.08667950546289169,0.0
2417,1.4132196136466237,0.0
2418,6.813872853997211,0.0
2419,0.4014371906920592,0.0
2420,-1.2668695814198743,0.0
2421,0.9561925146918571,0.0
2422,-0.40262094157881595,0.0
2423,0.24300004565794234,0.0
2424,-0.11797437009635714,0.0
2425,-0.002459765418633318,0.0
2426,0.14786777466050186,0.0
2427,0.026606341942448847,0.0
2428,0.03408306044117047,0.0
2429,0.04538315416813837,0.0
2430,-0.061599469926480806,0.0
2431,0.012562428080920418,0.0
2432,0.06417346491988306,0.0
2433,0.07236827331348483,0.0
2434,3.138205935202521,0.0
2435,6.645782269358318,0.0
2436,-2.4410301337741602,0.0
2437,0.7781584214087603,0.0
2438,-0.20717897238935928,0.0
2439,0.09041004843635563,0.0
2440,-0.01761911619115175,0.0
2441,0.09267140224390238,0.0
2442,0.015369384734615674,0.0
2443,-0.029159069069110165,0.0
2444,-0.01724655252482523,0.0
2445,-0.021095382567762486,0.0
2446,0.12205818352994809,0.0
2447,0.002637255774006848,0.0
2448,-0.06580875310736531,0.0
2449,0.041685979194942865,0.0
2450,0.48747317322100137,0.0
2451,5.296293773722265,0.0
2452,3.9976291371578054,0.0
2453,-2.8803679451795206,0.0
2454,1.6586838458828281,0.0
2455,-0.7981235813773787,0.0
2456,0.2701829226606214,0.0
2457,-0.11954799676795588,0.0
2458,0.002726426454478438,0.0
2459,0.07429321719180276,0.0
2460,-0.05407707976648329,0.0
2461,-0.06384268685432451,0.0
2462,-0.0005464799546643813,0.0
2463,0.03126111880316897,0.0
2464,-0.00295904860074387,0.0
2465,0.06547649643735112,0.0
2466,-0.06943421435261173,0.0
2467,1.4640477630121351,0.0
2468,6.828287697823631,0.0
2469,0.43655978567417986,0.0
2470,-1.2591264102288977,0.0
2471,1.0463685089695198,0.0
2472,-0.5142279253410281,0.0
2473,0.24896228617900093,0.0
2474,-0.14649445612957088,0.0
2475,0.057726978630501365,0.0
2476,0.05995522892339802,0.0
2477,0.030218082801287512,0.0
2478,-0.011527067448884043,0.0
2479,-0.021358255913841342,0.0
2480,-0.0979000969225617,0.0
2481,0.02911074360051127,0.0
2482,-0.06446937448627724,0.0
2483,-0.0035953494849752105,0.0
2484,3.1959440289433356,0.0
2485,6.442186066240866,0.0
2486,-2.5083677979455716,0.0
2487,0.8729132990263103,0.0
2488,-0.20031376080400012,0.0
2489,0.10271014197156379,0.0
2490,0.003454472181428324,0.0
2491,0.001581342828499587,0.0
2492,-0.0360181021885865,0.0
2493,-0.0725582431245263,0.0
2494,0.036631074626928675,0.0
2495,0.019715397243760348,0.0
2496,0.07968380804758733,0.0
2497,0.0035143812683905915,0.0
2498,0.0338304326581636,0.0
2499,0.10004490044742959,0.0
2500,0.4699451955113268,0.0
2501,5.355223724703845,0.0
2502,4.019257361372051,0.0
2503,-2.8664471110954466,0.0
2504,1.6360919801293385,0.0
2505,-0.7693058982825729,0.0
2506,0.34556908132451003,0.0
2507,-0.09715203624045306,0.0
2508,0.033680932573852365,0.0
2509,0.08705108337304956,0.0
2510,0.059345324751972434,0.0
2511,0.04727542292341964,0.0
2512,0.05424380448484882,0.0
2513,-0.03349036422087748,0.0
2514,-0.1060387484099468,0.0
2515,-0.061457675311509266,0.0
2516,0.06974219448073574,0.0
2517,1.4539652210921563,0.0
2518,6.866954982132855,0.0
2519,0.23293293707057536,0.0
2520,-1.3209069300031129,0.0
2521,1.0776297291648311,0.0
2522,-0.5554516808906216,0.0
2523,0.3060425199981856,0.0
2524,0.00506309068690549,0.0
2525,0.050501539375324846,0.0
2526,-0.038888137325035745,0.0
2527,-0.07585432090519684,0.0
2528,-0.000777787442037322,0.0
2529,0.031466951270360484,0.0
2530,0.05845039835127051,0.0
2531,0.0713711503280812,0.0
2532,0.030454978151440534,0.0
2533,0.08997346756753341,0.0
2534,3.196368247266305,0.0
2535,6.452976921124917,0.0
2536,-2.489764569501844,0.0
2537,0.7721344041813016,0.0
2538,-0.20645619962301542,0.0
2539,0.10486006091475011,0.0
2540,-0.06267096202586231,0.0
2541,0.06089194614193025,0.0
2542,0.01816142644732953,0.0
2543,0.002509761040031089,0.0
2544,-0.014853511340928688,0.0
2545,-0.006926921107046442,0.0
2546,0.02341633023120262,0.0
2547,-0.02338588435181234,0.0
2548,0.00835447259178835,0.0
2549,-0.03152591125441128,0.0
2550,0.5879936700994344,0.0
2551,5.2584119351149,0.0
2552,3.9573142516700472,0.0
2553,-2.9387890088519972,0.0
2554,1.5797808427212718,0.0
2555,-0.7833387708826784,0.0
2556,0.22724089666031072,0.0
2557,-0.16764263019226117,0.0
2558,0.02459362922470473,0.0
2559,0.031244926574201123,0.0
2560,-0.07537520312419735,0.0
2561,-0.011339456420587656,0.0
2562,0.030318803780244676,0.0
2563,-0.037122136896463404,0.0
2564,0.0674198364202647,0.0
2565,0.09312268526691218,0.0
2566,0.11252355668655346,0.0
2567,1.4646997614966957,0.0
2568,6.803352928210349,0.0
2569,0.3491796019211254,0.0
2570,-1.2937362839631434,0.0
2571,1.0068319406177118,0.0
2572,-0.5203413205795783,0.0
2573,0.17492047194377536,0.0
2574,-0.06272309113107855,0.0
2575,0.001260016944737874,0.0
2576,0.09528535206305062,0.0
2577,-0.053009311015196306,0.0
2578,-0.004176802539719795,0.0
2579,0.09273313633874876,0.0
2580,0.05909145843667291,0.0
2581,-0.08222741162129009,0.0
2582,-0.033255289498965564,0.0
2583,0.13398709240940776,0.0
2584,3.217788802392472,0.0
2585,6.4962934690274965,0.0
2586,-2.542401383668631,0.0
2587,0.8299078074936892,0.0
2588,-0.1598253227158139,0.0
2589,0.18826939542498067,0.0
2590,-0.08428939092397403,0.0
2591,0.01266055158948491,0.0
2592,-0.008012472048400833,0.0
2593,-0.025293687767250276,0.0
2594,-0.07131095194732284,0.0
2595,-0.08833921080837895,0.0
2596,-0.01942506850098993,0.0
2597,0.015722748864979267,0.0
2598,0.01614599023262365,0.0
2599,-0.07384686396946137,0.0
2600,0.365770173065982,0.0
2601,5.303188361029563,0.0
2602,3.914397899015337,0.0
2603,-2.9272344458478736,0.0
2604,1.583959090410187,0.0
2605,-0.8219545707949166,0.0
2606,0.2702929501904323,0.0
2607,-0.10968610519438653,0.0
2608,-0.004484824420200494,0.0
2609,-0.04158481272001341,0.0
2610,-0.013457943551846853,0.0
2611,0.05061931928569238,0.0
2612,-0.009877189257950584,0.0
2613,-0.01598472545648344,0.0
2614,-0.03930193772413855,0.0
2615,-0.034045690639509595,0.0
2616,-0.01638386474369276,0.0
2617,1.5068924705856241,0.0
2618,6.7236294281379605,0.0
2619,0.2524867794444318,0.0
2620,-1.3209107734596555,0.0
2621,0.908458625702332,0.0
2622,-0.6091942284739106,0.0
2623,0.22336634022577873,0.0
2624,-0.17525749078847083,0.0
2625,-0.034806815020224806,0.0
2626,0.001965985892057112,0.0
2627,0.0035101931451379763,0.0
2628,-0.12377473500605657,0.0
2629,0.027112988797466202,0.0
2630,-0.08715261475198269,0.0
2631,0.03804932717310193,0.0
2632,0.060570293923974936,0.0
2633,0.09750914841784707,0.0
2634,3.1680632026547486,0.0
2635,6.582964975326039,0.0
2636,-2.5019478666987336,0.0
2637,0.9737547659676862,0.0
2638,-0.25576632468485994,0.0
2639,0.017580982300849216,0.0
2640,-0.0179577784290686,0.0
2641,0.07862940258374766,0.0
2642,0.07672914314004702,0.0
2643,0.09199653995516636,0.0
2644,0.11241918662761032,0.0
2645,0.07482309406870205,0.0
2646,0.007260499381699082,0.0
2647,0.020823764725730047,0.0
2648,0.057095618572458776,0.0
2649,-0.12288796747046465,0.0
2650,0.4757170528521828,0.0
2651,5.473840383124534,0.0
2652,3.9583984501079423,0.0
2653,-2.9540824169844995,0.0
2654,1.6145399523685218,0.0
2655,-0.7033866639271954,0.0
2656,0.4134368700864553,0.0
2657,-0.09628170545889764,0.0
2658,-0.025992983074060574,0.0
2659,0.03077773320665011,0.0
2660,0.09099802779157704,0.0
2661,0.06151446272062132,0.0
2662,0.08126583496661874,0.0
2663,0.05130092561204065,0.0
2664,-0.020604712823894658,0.0
2665,0.02922203970100178,0.0
2666,0.056203108692985,0.0
2667,1.4580717233882887,0.0
2668,6.856020999472787,0.0
2669,0.2988728985202974,0.0
2670,-1.2334571636129896,0.0
2671,0.9157173055251985,0.0
2672,-0.4216799683609683,0.0
2673,0.13189459837410134,0.0
2674,-0.022803835497615072,0.0
2675,0.08336989716260923,0.0
2676,-0.05399460203186701,0.0
2677,0.057243465892791084,0.0
2678,0.11125162424611627,0.0
2679,-0.001690082794021549,0.0
2680,0.012395565607722517,0.0
2681,0.08664629824014376,0.0
2682,-0.061735200018458496,0.0
2683,0.1406757162362753,0.0
2684,3.1714970765228907,0.0
2685,6.422741899113137,0.0
2686,-2.542342134301807,0.0
2687,0.8671569000574677,0.0
2688,-0.27199017447690843,0.0
2689,0.07935799702604712,0.0
2690,-0.08093412404797168,0.0
2691,0.11086391165798039,0.0
2692,0.01467397883521912,0.0
2693,0.014055784052204163,0.0
2694,0.11435069472142398,0.0
2695,0.12038571253747993,0.0
2696,0.05360082065971933,0.0
2697,0.03801091490934673,0.0
2698,0.03424996703415937,0.0
2699,0.10596370359491998,0.0
2700,0.5012487139258767,0.0
2701,5.481874508418428,0.0
2702,4.01763322213175,0.0
2703,-2.7843756341546024,0.0
2704,1.7723903161328205,0.0
2705,-0.7289520486502434,0.0
2706,0.356071841337052,0.0
2707,-0.011617192064718325,0.0
2708,0.13298509712689513,0.0
2709,0.07730460296255857,0.0
2710,0.06343269499998708,0.0
2711,0.009981911571795912,0.0
2712,0.13750714411796663,0.0
2713,0.10889472094037632,0.0
2714,0.05471944550423377,0.0
2715,0.029266863922332048,0.0
2716,0.06593169824575837,0.0
2717,1.5030555972954875,0.0
2718,6.82358432090112,0.0
2719,0.35886296086013303,0.0
2720,-1.1951903102601782,0.0
2721,0.9314782875697422,0.0
2722,-0.44531625534973557,0.0
2723,0.2951275670367414,0.0
2724,-0.09290243433489616,0.0
2725,0.10933429046466848,0.0
2726,0.09619808936128144,0.0
2727,0.03544312300425768,0.0
2728,-0.016807633144459454,0.0
2729,0.10689900020036971,0.0
2730,0.07160654174790557,0.0
2731,0.07754570366447117,0.0
2732,-0.11103046503977114,0.0
2733,0.11869502455424842,0.0
2734,3.2518840233393362,0.0
2735,6.459802355815919,0.0
2736,-2.552389880892515,0.0
2737,0.895040690095076,0.0
2738,-0.2584620303819798,0.0
2739,0.061619434874143585,0.0
2740,-0.07742923643917814,0.0
2741,0.05328205182817422,0.0
2742,0.07270380213694828,0.0
2743,0.04178387142939348,0.0
2744,0.01953579675010471,0.0
2745,0.07084605593253937,0.0
2746,-0.025223402885253328,0.0
2747,-0.12582160276418486,0.0
2748,0.09960757369680778,0.0
2749,0.07050740569634703,0.0
2750,0.48753832573146644,0.0
2751,5.423766821973124,0.0
2752,3.846250039608969,0.0
2753,-2.8938638094322875,0.0
2754,1.6267158923479472,0.0
2755,-0.7686991723697718,0.0
2756,0.35892746575130463,0.0
2757,-0.0347124129620233,0.0
2758,0.13317804962278368,0.0
2759,-0.07451592243027727,0.0
2760,0.0363027693991016,0.0
2761,-0.03852528091702896,0.0
2762,0.14657046234031262,0.0
2763,0.11931783913342797,0.0
2764,0.11603813881044414,0.0
2765,0.09480715981339374,0.0
2766,0.09157535232272598,0.0
2767,1.4722741569796887,0.0
2768,6.953083846934571,0.0
2769,0.30363970169657434,0.0
2770,-1.1339746139232256,0.0
2771,1.038978796961205,0.0
2772,-0.30863751076393003,0.0
2773,0.18648300676284219,0.0
2774,-0.015778932613933087,0.0
2775,0.09333694376210688,0.0
2776,0.06014199795794542,0.0
2777,0.0771567511319024,0.0
2778,0.07340517843493678,0.0
2779,0.10838300802330497,0.0
2780,0.03720597765166132,0.0
2781,0.036168792123275006,0.0
2782,0.034300727306373124,0.0
2783,0.16636343871417372,0.0
2784,3.304029752241674,0.0
2785,6.536680240983564,0.0
2786,-2.5876891882793016,0.0
2787,0.9040424302200795,0.0
2788,-0.35542612895701003,0.0
2789,0.08489249251645765,0.0
2790,0.00851682756307421,0.0
2791,0.07032815077053439,0.0
2792,0.0299643772332717,0.0
2793,0.09148351684200359,0.0
2794,0.1579411409207238,0.0
2795,0.03836705737991298,0.0
2796,0.036710229494597124,0.0
2797,0.04599208125833855,0.0
2798,0.015110550988406087,0.0
2799,0.11412336954494527,0.0
2800,0.5885645869789581,0.0
2801,5.317542185944028,0.0
2802,3.8882908604966167,0.0
2803,-2.8473348334847897,0.0
2804,1.6225258656099755,0.0
2805,-0.7559843491676169,0.0
2806,0.31423571701114195,0.0
2807,-0.056579015724032844,0.0
2808,0.11689596448613632,0.0
2809,0.07368605197308832,0.0
2810,-0.07266787069334649,0.0
2811,-0.023798495330360613,0.0
2812,-0.050918653405536085,0.0
2813,0.00480063971596778,0.0
2814,-0.02479563502517148,0.0
2815,-0.010604064529966708,0.0
2816,0.0017772758937120115,0.0
2817,1.3834511784265033,0.0
2818,6.845288415284741,0.0
2819,0.14335428254173116,0.0
2820,-1.1723442182018873,0.0
2821,0.8380210104498866,0.0
2822,-0.44029605100270963,0.0
2823,0.1931169062439187,0.0
2824,-0.1140441790575247,0.0
2825,-0.0540264909359737,0.0
2826,0.030534948347021064,0.0
2827,-0.045084840308132486,0.0
2828,-0.035811083535238736,0.0
2829,0.004665835533606282,0.0
2830,-0.01762292606620912,0.0
2831,0.025733429343274085,0.0
2832,-6.546209871095398e-05,0.0
2833,0.12173256406616303,0.0
2834,3.290572225357388,0.0
2835,6.461315323485548,0.0
2836,-2.510005745819831,0.0
2837,0.9246848332690301,0.0
2838,-0.1820694013701183,0.0
2839,0.17329302802096164,0.0
2840,0.008149303838991765,0.0
2841,0.12968513877821786,0.0
2842,0.019204163940983468,0.0
2843,0.01555336900299504,0.0
2844,-0.016738777804518375,0.0
2845,-0.02041899712213807,0.0
2846,0.0988534460476473,0.0
2847,-0.01919222471473772,0.0
2848,0.008407614567189308,0.0
2849,0.03844322564285495,0.0
2850,0.49016521072468194,0.0
2851,5.375625156276052,0.0
2852,3.800614062108215,0.0
2853,-2.870806773503377,0.0
2854,1.4898311350789544,0.0
2855,-0.916452880274771,0.0
2856,0.2568073628997338,0.0
2857,-0.19046830335716083,0.0
2858,0.047590624951059916,0.0
2859,-0.022389756200484157,0.0
2860,0.06326460281655231,0.0
2861,-0.05590238488812585,0.0
2862,0.012412076518426539,0.0
2863,0.007495154111428311,0.0
2864,-0.05062624587586685,0.0
2865,-0.017466296647540486,0.0
2866,0.01322304626996421,0.0
2867,1.440432948842535,0.0
2868,6.938748861718031,0.0
2869,0.12113936837305511,0.0
2870,-1.138541406224765,0.0
2871,0.8261327200559713,0.0
2872,-0.5515868683926601,0.0
2873,0.21770618505079412,0.0
2874,-0.09373960191244377,0.0
2875,-0.06940002503263948,0.0
2876,-0.010205606650015861,0.0
2877,0.023898947045390834,0.0
2878,-0.04301574435232637,0.0
2879,-0.03824006222898386,0.0
2880,-0.06010515926018177,0.0
2881,-0.07470804507115827,0.0
2882,-0.009055135676305004,0.0
2883,0.07020138580620544,0.0
2884,3.1933122514310144,0.0
2885,6.3684976743660595,0.0
2886,-2.5854567857513784,0.0
2887,0.8071187080181638,0.0
2888,-0.17310778585521794,0.0
2889,0.0685847849089003,0.0
2890,-0.08649771808762585,0.0
2891,-0.0975202574003726,0.0
2892,-0.03648109095862014,0.0
2893,-0.03170361145777545,0.0
2894,-0.0542166213491168,0.0
2895,-0.04843971371745383,0.0
2896,-0.0828977021257791,0.0
2897,0.017858535707305258,0.0
2898,-0.04254363506765538,0.0
2899,0.009972169507296173,0.0
2900,0.43330639534919024,0.0
2901,5.341106016264066,0.0
2902,3.777432497196167,0.0
2903,-2.842654011349281,0.0
2904,1.4186299803562081,0.0
2905,-0.8054137803342047,0.0
2906,0.3084518350890867,0.0
2907,-0.11834918342665537,0.0
2908,-0.015574274118322434,0.0
2909,-0.06522082328995024,0.0
2910,-0.007399065091251987,0.0
2911,-0.030046640171275674,0.0
2912,0.052560453282188654,0.0
2913,-0.016765337982353447,0.0
2914,-0.08822778428770113,0.0
2915,-0.06173078058246742,0.0
2916,0.12070783257710183,0.0
2917,1.3937244623685152,0.0
2918,6.950224456792273,0.0
2919,0.0808660189736485,0.0
2920,-1.2021368252773599,0.0
2921,0.8513173789144443,0.0
2922,-0.4481789271230792,0.0
2923,0.1126499988735035,0.0
2924,-0.06093625547461419,0.0
2925,0.07161815250972844,0.0
2926,-0.06374459475267412,0.0
2927,0.002208184660367034,0.0
2928,-0.036465235092696904,0.0
2929,-0.00394049372660504,0.0
2930,-0.0889628124374096,0.0
2931,0.09383254980199543,0.0
2932,-0.01521380235270817,0.0
2933,0.0759568180018553,0.0
2934,3.243841337542071,0.0
2935,6.471226900411228,0.0
2936,-2.520446011289048,0.0
2937,0.9275492609296446,0.0
2938,-0.30372544641349564,0.0
2939,0.020704551632414504,0.0
2940,-0.011701828837523603,0.0
2941,0.03085608506353589,0.0
2942,-0.1173347817836165,0.0
2943,-0.0077219808335868695,0.0
2944,-0.08717074782506348,0.0
2945,0.010156239377357802,0.0
2946,-0.03513004743934971,0.0
2947,-0.11071733540951724,0.0
2948,-0.03382854148147242,0.0
2949,-0.04278874586604617,0.0
2950,0.49400020138528167,0.0
2951,5.36625423833987,0.0
2952,3.746282803683668,0.0
2953,-2.79738392479903,0.0
2954,1.6014410739377203,0.0
2955,-0.8035171596176636,0.0
2956,0.3409074018772152,0.0
2957,-0.12461352700598763,0.0
2958,-0.016322280187784075,0.0
2959,-0.009372930896774703,0.0
2960,-0.0033151544449743055,0.0
2961,0.03659712011498701,0.0
2962,0.03780465536347514,0.0
2963,0.04688585345976733,0.0
2964,-0.017446332604348802,0.0
2965,0.019494833618303602,0.0
2966,-0.010571957694084467,0.0
2967,1.4794464854212694,0.0
2968,6.812450589328822,0.0
2969,0.1222717795978053,0.0
2970,-1.152013400033942,0.0
2971,0.8674229771434551,0.0
2972,-0.518596029437074,0.0
2973,0.12441957798676526,0.0
2974,-0.20064078544338615,0.0
2975,0.0026414424112216617,0.0
2976,-0.08718117783603234,0.0
2977,-0.06665562296296876,0.0
2978,0.044596876519019155,0.0
2979,-0.1549516354081559,0.0
2980,-0.03415785478365382,0.0
2981,-0.05140999893057031,0.0
2982,-0.0430616979233577,0.0
2983,0.08733705593076604,0.0
2984,3.3236457256118506,0.0
2985,6.39816800673313,0.0
2986,-2.6856052582072527,0.0
2987,0.80534771219736,0.0
2988,-0.3323682605405967,0.0
2989,-0.0006152987233317662,0.0
2990,-0.09235889854450152,0.0
2991,-0.02219498458455898,0.0
2992,-0.08366300016645604,0.0
2993,-0.051404271784319375,0.0
2994,-0.05249849625363498,0.0
2995,-0.05939151544172959,0.0
2996,-0.046372299425943495,0.0
2997,-0.03460431777478253,0.0
2998,0.026130682945204483,0.0
2999,0.024624303583826446,0.0
3000,0.4937001149144791,0.0
3001,5.46760827733151,0.0
3002,3.8474581920332946,0.0
3003,-2.830790835226949,0.0
3004,1.6673312155653008,0.0
3005,-0.8036914659059854,0.0
3006,0.44568843290435356,0.0
3007,-0.07870584708985848,0.0
3008,0.04589050598145177,0.0
3009,-0.023611342635932682,0.0
3010,-0.04494595838138899,0.0
3011,0.025711774778032895,0.0
3012,0.027367944795375493,0.0
3013,-0.0008199495179155251,0.0
3014,0.037680728697324486,0.0
3015,-0.09523969214100812,0.0
3016,-0.005805397455895351,0.0
3017,1.5193059755804486,0.0
3018,6.932495402720076,0.0
3019,0.04323841676793978,0.0
3020,-1.046427937441003,0.0
3021,0.8450104142318778,0.0
3022,-0.4322466381191745,0.0
3023,0.2664782114829647,0.0
3024,0.03786782062828796,0.0
3025,0.05477041874285985,0.0
3026,0.05984997617090508,0.0
3027,0.03992791405811657,0.0
3028,0.09431383822336831,0.0
3029,0.07662088769576435,0.0
3030,-0.027411462313094055,0.0
3031,0.001597547967123799,0.0
3032,0.05389925782368117,0.0
3033,0.137630370892119,0.0
3034,3.269400505581938,0.0
3035,6.342066439550564,0.0
3036,-2.621014352571177,0.0
3037,0.9609007431379456,0.0
3038,-0.2665088188180984,0.0
3039,0.13262858613246475,0.0
3040,-0.026615263962551684,0.0
3041,0.012527378462933315,0.0
3042,0.027234854926934535,0.0
3043,0.05167188846165523,0.0
3044,0.17115260670013502,0.0
3045,0.06342169008057137,0.0
3046,0.06363868879422377,0.0
3047,0.022008347293882125,0.0
3048,0.07551553908296371,0.0
3049,0.06700455671088157,0.0
3050,0.552908527964683,0.0
3051,5.4495230931296605,0.0
3052,3.677659586062521,0.0
3053,-2.8028507350870315,0.0
3054,1.4869371961124287,0.0
3055,-0.8149922710482005,0.0
3056,0.2333760079443596,0.0
3057,-0.09633312754835335,0.0
3058,0.1779871784679153,0.0
3059,0.05609594372416371,0.0
3060,0.04888821010097742,0.0
3061,0.13515944143911082,0.0
3062,-0.10961658233630664,0.0
3063,0.012839959288238533,0.0
3064,0.03120132043716954,0.0
3065,0.0687332278236948,0.0
3066,0.043403527098344066,0.0
3067,1.51086321966871,0.0
3068,6.932089690878731,0.0
3069,0.08741031755601897,0.0
3070,-1.1018612226324145,0.0
3071,0.8910252290016171,0.0
3072,-0.47001605813477776,0.0
3073,0.20064395028976192,0.0
3074,-0.019006327365453966,0.0
3075,-0.03454610425245008,0.0
3076,0.03043287895462444,0.0
3077,0.08030445141188834,0.0
3078,-0.006459135615340645,0.0
3079,0.08229315417423264,0.0
3080,0.03416091459085849,0.0
3081,0.02698842034295843,0.0
3082,-0.05013894944712187,0.0
3083,0.06530282033420254,0.0
3084,3.2354192593220907,0.0
3085,6.400345577512328,0.0
3086,-2.6267039881438814,0.0
3087,0.8832588495655087,0.0
3088,-0.31654439195165135,0.0
3089,0.14971286556852234,0.0
3090,0.007607781809833384,0.0
3091,0.14264197094186326,0.0
3092,0.019786125631201593,0.0
3093,0.020488556219607844,0.0
3094,0.06602324167076569,0.0
3095,0.046883218011391364,0.0
3096,0.07252586003832652,0.0
3097,0.015173649726946598,0.0
3098,0.10006725239973305,0.0
3099,-0.02776580190371789,0.0
3100,0.5362800407890219,0.0
3101,5.479442414934426,0.0
3102,3.7237225633900812,0.0
3103,-2.7321729435145232,0.0
3104,1.5712092581082802,0.0
3105,-0.7206731713468904,0.0
3106,0.3451624429115464,0.0
3107,-0.12781895845108474,0.0
3108,0.013283343553264248,0.0
3109,-0.07010322954691724,0.0
3110,-0.0020770325739233467,0.0
3111,-0.023476107468624257,0.0
3112,-0.06038693926072415,0.0
3113,-0.0013291770907244002,0.0
3114,-0.03742456453300512,0.0
3115,0.04243948973777681,0.0
3116,-0.023701645909228106,0.0
3117,1.4491341390896895,0.0
3118,6.900242077662576,0.0
3119,0.13676428896113518,0.0
3120,-1.0264587820315805,0.0
3121,0.8833463844562366,0.0
3122,-0.45872644108771593,0.0
3123,0.09556724945152764,0.0
3124,0.0006013566560352894,0.0
3125,-0.029794762893482818,0.0
3126,0.032481382749358356,0.0
3127,-0.007458400836549747,0.0
3128,-0.054969429188772644,0.0
3129,0.10968825712804457,0.0
3130,0.03836199509022297,0.0
3131,-0.016610385254864107,0.0
3132,0.05797449927512958,0.0
3133,0.14924610915941464,0.0
3134,3.218755881341366,0.0
3135,6.419248116239142,0.0
3136,-2.6709281595381844,0.0
3137,0.8752295340731648,0.0
3138,-0.23937048918236895,0.0
3139,0.11978910740524945,0.0
3140,-0.07467321642647896,0.0
3141,-0.010594537385664415,0.0
3142,-0.0035413000393572326,0.0
3143,-0.040828676406818136,0.0
3144,0.07350105200622582,0.0
3145,-0.06758404517899055,0.0
3146,-0.04609490522679902,0.0
3147,0.006208210337813521,0.0
3148,0.03480476839372661,0.0
3149,0.06371106692688278,0.0
3150,0.5666456106343147,0.0
3151,5.5053628224801345,0.0
3152,3.6842532902462914,0.0
3153,-2.7737862688201003,0.0
3154,1.616984056558557,0.0
3155,-0.6833756717966156,0.0
3156,0.3843828473938405,0.0
3157,-0.045620541948237225,0.0
3158,0.14941989448194704,0.0
3159,0.14697408635738898,0.0
3160,-0.054004188838694324,0.0
3161,0.05019864578555354,0.0
3162,0.017456576352821412,0.0
3163,0.008046944915594746,0.0
3164,0.043272248436154015,0.0
3165,0.06538058402686775,0.0
3166,-0.0026996855817851342,0.0
3167,1.4968259704014462,0.0
3168,6.915246544066,0.0
3169,0.13846736833251702,0.0
3170,-0.9645990853593804,0.0
3171,0.8578179215286695,0.0
3172,-0.4177677293055551,0.0
3173,0.24197550571639617,0.0
3174,-0.07958383297699449,0.0
3175,0.14004883833406492,0.0
3176,0.05312333161789089,0.0
3177,0.04938878983484317,0.0
3178,0.015529203339789834,0.0
3179,0.059937159251606545,0.0
3180,0.009822896114470538,0.0
3181,0.09318239996741426,0.0
3182,0.0704033098284765,0.0
3183,0.07303673833513971,0.0
3184,3.3177364944471743,0.0
3185,6.414748682629201,0.0
3186,-2.516186823437947,0.0
3187,1.0326555553916916,0.0
3188,-0.3242812269781386,0.0
3189,0.13020549919312535,0.0
3190,-0.047546141174257386,0.0
3191,0.020632585798608192,0.0
3192,-0.061137875238642746,0.0
3193,0.00017010670090353806,0.0
3194,-0.002650958887508114,0.0
3195,0.0037042146229834816,0.0
3196,0.03531440759562161,0.0
3197,0.02989126102072888,0.0
3198,-0.003963717504848561,0.0
3199,0.07990322467513833,0.0
3200,0.6040316131713438,0.0
3201,5.484152188033453,0.0
3202,3.7137324821135405,0.0
3203,-2.724219810771981,0.0
3204,1.5454931283642288,0.0
3205,-0.7922555258813173,0.0
3206,0.31979240545492943,0.0
3207,-0.06618509483170892,0.0
3208,0.07375124283244522,0.0
3209,-0.03950267722491111,0.0
3210,-0.13430493390552317,0.0
3211,0.0002623143889607729,0.0
3212,0.02087253145070426,0.0
3213,-0.06061368448306652,0.0
3214,-0.032716932539306263,0.0
3215,0.06914195618393264,0.0
3216,0.0694778957895554,0.0
3217,1.5471167671400463,0.0
3218,6.855629329807753,0.0
3219,0.08454842011439388,0.0
3220,-1.0403639890332332,0.0
3221,0.9085936761734981,0.0
3222,-0.24831364281947357,0.0
3223,0.26024503439174107,0.0
3224,0.026241723440718213,0.0
3225,0.22868648460624458,0.0
3226,0.05195193848224036,0.0
3227,-0.008707335300482372,0.0
3228,0.07810130978961717,0.0
3229,0.04803089682619728,0.0
3230,0.13200929405512055,0.0
3231,0.06455653421415315,0.0
3232,0.12243215891013295,0.0
3233,0.11075510215859294,0.0
3234,3.4546123462809146,0.0
3235,6.4600293375294475,0.0
3236,-2.696308677426905,0.0
3237,0.9891477622683001,0.0
3238,-0.26588025856575187,0.0
3239,0.11103813888253247,0.0
3240,-0.08701032662934705,0.0
3241,-0.030257635602702504,0.0
3242,-0.0016657587195790038,0.0
3243,0.04273362284277381,0.0
3244,0.0825343372832718,0.0
3245,0.052339783350095745,0.0
3246,0.00895937147106668,0.0
3247,0.07962631939671828,0.0
3248,0.019101844376998023,0.0
3249,-0.04203237914247523,0.0
3250,0.553203061255144,0.0
3251,5.545130313083067,0.0
3252,3.6120326650426438,0.0
3253,-2.8202610009948277,0.0
3254,1.5644224723545423,0.0
3255,-0.8876299706477456,0.0
3256,0.2716888546459358,0.0
3257,-0.07938481476023217,0.0
3258,0.07528415025366011,0.0
3259,-0.04011238081640494,0.0
3260,0.07198615730288546,0.0
3261,0.02325619348358128,0.0
3262,0.0457780043507657,0.0
3263,0.029158291031084648,0.0
3264,-0.02366204139184731,0.0
3265,-0.014315046223753358,0.0
3266,0.09351736139449571,0.0
3267,1.592810448403069,0.0
3268,6.780827267733339,0.0
3269,0.02658611846626237,0.0
3270,-0.9903752381196778,0.0
3271,0.7464745915678823,0.0
3272,-0.40500720792618344,0.0
3273,0.18015881657177799,0.0
3274,-0.04388313857206174,0.0
3275,-0.09603322333287781,0.0
3276,-0.03870495073506571,0.0
3277,-0.09678339241179082,0.0
3278,-0.05130157874639832,0.0
3279,-0.031100729017140283,0.0
3280,-0.106028797447095,0.0
3281,0.03725872169335186,0.0
3282,-0.014692567798378464,0.0
3283,0.009520624693747736,0.0
3284,3.2816823557253216,0.0
3285,6.196502941758775,0.0
3286,-2.747330463784358,0.0
3287,0.9628553656625995,0.0
3288,-0.30380268088916096,0.0
3289,0.07680882971770861,0.0
3290,-0.08055352467926227,0.0
3291,-0.052120603662194,0.0
3292,-0.07850291995983213,0.0
3293,0.027191262670929882,0.0
3294,-0.09967990623647455,0.0
3295,-0.026644218480632934,0.0
3296,-0.03422763043067749,0.0
3297,-0.07475521937086352,0.0
3298,-0.09670043921559926,0.0
3299,-0.06552118210852793,0.0
3300,0.46136365563846293,0.0
3301,5.412944420350775,0.0
3302,3.5502252108726124,0.0
3303,-2.7958200276280443,0.0
3304,1.5601684418794441,0.0
3305,-0.7938670768294976,0.0
3306,0.32878004939367733,0.0
3307,-0.19012588071364686,0.0
3308,0.02374033894161207,0.0
3309,-0.011809971951175467,0.0
3310,-0.02586067438581639,0.0
3311,0.10637063219117843,0.0
3312,-0.018504197135711865,0.0
3313,-0.06872290466246184,0.0
3314,-0.10945200112748091,0.0
3315,-0.08522794482156762,0.0
3316,-0.09518089270338193,0.0
3317,1.496100031862123,0.0
3318,6.881637182466621,0.0
3319,-0.1159416786717431,0.0
3320,-1.1175544021017823,0.0
3321,0.7447338914903674,0.0
3322,-0.5470890508884203,0.0
3323,0.18054392596856383,0.0
3324,-0.199922447833106,0.0
3325,-0.14275367696759467,0.0
3326,-0.06569052842286642,0.0
3327,-0.04246775180893991,0.0
3328,-0.12369586933911422,0.0
3329,-0.08200476549684955,0.0
3330,-0.07896713769676052,0.0
3331,-0.00450475807511385,0.0
3332,-0.003157687378567059,0.0
3333,0.06605557840031438,0.0
3334,3.3165787541476344,0.0
3335,6.2999596770708095,0.0
3336,-2.7318673790689947,0.0
3337,0.934748392643467,0.0
3338,-0.43512122466163566,0.0
3339,-0.015517735140121336,0.0
3340,-0.12187914888529375,0.0
3341,-0.10747454461393105,0.0
3342,-0.08607382258750328,0.0
3343,0.02816325976426034,0.0
3344,-0.06136951952832217,0.0
3345,-0.04650642940121067,0.0
3346,-0.08843380199869785,0.0
3347,-0.011649567808411886,0.0
3348,-0.08223008479635842,0.0
3349,0.05513532743979668,0.0
3350,0.527541725670739,0.0
3351,5.396846008139125,0.0
3352,3.5498416419642815,0.0
3353,-2.7887058833495986,0.0
3354,1.5499649041269241,0.0
3355,-0.8886105542868226,0.0
3356,0.23327770068722842,0.0
3357,-0.1837448006473498,0.0
3358,0.037665182621191326,0.0
3359,-0.09115705032339261,0.0
3360,-0.07883721859482723,0.0
3361,-0.018423279047436604,0.0
3362,0.02019791533970098,0.0
3363,-0.009662181630248588,0.0
3364,-0.04537303569866757,0.0
3365,-0.03450061844136645,0.0
3366,0.032536265172696754,0.0
3367,1.5633591618769247,0.0
3368,6.741900724256972,0.0
3369,-0.15680204165494183,0.0
3370,-1.1100765831911235,0.0
3371,0.7006787365432868,0.0
3372,-0.5068096922248269,0.0
3373,0.07467201857604948,0.0
3374,-0.17811210364563512,0.0
3375,-0.06168539880999932,0.0
3376,-0.037122759858958965,0.0
3377,-0.09281474201765444,0.0
3378,-0.1011415470708562,0.0
3379,0.05040164900189507,0.0
3380,-0.09716399541002596,0.0
3381,-0.16334849594278286,0.0
3382,-0.1087238852634054,0.0
3383,0.07632400129075505,0.0
3384,3.2591055849686725,0.0
3385,6.207361782868097,0.0
3386,-2.715014505601543,0.0
3387,0.9983556535102656,0.0
3388,-0.33088126502195214,0.0
3389,0.1159039940100231,0.0
3390,-0.19344291790373838,0.0
3391,0.032044781950113406,0.0
3392,-0.026773757724229394,0.0
3393,0.01874312562390969,0.0
3394,0.02183805539113404,0.0
3395,-0.018842688734723268,0.0
3396,-0.050956232333497706,0.0
3397,-0.0753979379458749,0.0
3398,-0.04654883705940986,0.0
3399,-0.026941541015098314,0.0
3400,0.44426495762316115,0.0
3401,5.420055440630002,0.0
3402,3.5286894057405274,0.0
3403,-2.832243826910019,0.0
3404,1.4982859905047854,0.0
3405,-0.8614744606443886,0.0
3406,0.3138569936149076,0.0
3407,-0.131238312831311,0.0
3408,0.01579174842502596,0.0
3409,-0.07184922217258631,0.0
3410,0.02850133829317173,0.0
3411,-0.06730062026803071,0.0
3412,-0.11714508988671965,0.0
3413,-0.07628715515916762,0.0
3414,-0.06861729681340722,0.0
3415,-0.0022560572689615185,0.0
3416,-0.1543540684349855,0.0
3417,1.5683996462623657,0.0
3418,6.885987785703951,0.0
3419,-0.06667227037082388,0.0
3420,-1.047805066306894,0.0
3421,0.6797596582882631,0.0
3422,-0.5311131120660101,0.0
3423,0.02878404257030978,0.0
3424,-0.15539269172642559,0.0
3425,0.0003335146388993085,0.0
3426,-0.10744798238272618,0.0
3427,-0.0487111968771855,0.0
3428,-0.022509012376607716,0.0
3429,-0.01524018252591347,0.0
3430,-0.07180567720336553,0.0
3431,-0.0010570716986285297,0.0
3432,-0.011076590910538885,0.0
3433,0.06236582600105166,0.0
3434,3.2394414464458188,0.0
3435,6.225139518919848,0.0
3436,-2.7652019468726854,0.0
3437,0.9907254328915845,0.0
3438,-0.4148837236056898,0.0
3439,0.040123280196391914,0.0
3440,-0.12293590741735935,0.0
3441,-0.11569503440944093,0.0
3442,-0.11127215646933294,0.0
3443,0.005036735472202528,0.0
3444,-0.15170760734497052,0.0
3445,-0.11630601318169272,0.0
3446,-0.0594730849157592,0.0
3447,-0.08648384678738283,0.0
3448,-0.10790082623711827,0.0
3449,-0.07463094295815527,0.0
3450,0.4341142549001644,0.0
3451,5.548912820827895,0.0
3452,3.526622017975094,0.0
3453,-2.7907726865950546,0.0
3454,1.5957121252028261,0.0
3455,-0.823833326592328,0.0
3456,0.23447309075827621,0.0
3457,-0.07778373351383715,0.0
3458,0.0038491400933899217,0.0
3459,-0.03513917201564712,0.0
3460,-0.013017672454952424,0.0
3461,-0.09354050227671265,0.0
3462,0.04511959790937184,0.0
3463,-0.12519919078132816,0.0
3464,-0.030777841280808235,0.0
3465,-0.01859309709584847,0.0
3466,0.07204159226685114,0.0
3467,1.5957097705770176,0.0
3468,6.913739118003441,0.0
3469,-0.041450146489333164,0.0
3470,-1.0145126622059455,0.0
3471,0.8311098135670507,0.0
3472,-0.49341131635270863,0.0
3473,0.13685068742512585,0.0
3474,-0.014313924758413603,0.0
3475,0.15970527213096097,0.0
3476,0.019060399780731506,0.0
3477,0.0029128650836271718,0.0
3478,0.030636687945718187,0.0
3479,0.09179247746146463,0.0
3480,-0.09261232567717945,0.0
3481,0.01589702761822434,0.0
3482,-0.0925264008065829,0.0
3483,0.13421734718398642,0.0
3484,3.3753650862127325,0.0
3485,6.300906741943928,0.0
3486,-2.692442095467499,0.0
3487,0.9677907952340952,0.0
3488,-0.34979548442761277,0.0
3489,-0.021757430519441137,0.0
3490,-0.04040047315349932,0.0
3491,0.06272108633423684,0.0
3492,0.018348720105850633,0.0
3493,-0.14211974788673937,0.0
3494,-0.15049869697363674,0.0
3495,-0.009817646636943247,0.0
3496,-0.062451466148684756,0.0
3497,0.003188692530971163,0.0
3498,0.07306923208391403,0.0
3499,-0.0733532253419534,0.0
3500,0.5680954071051961,0.0
3501,5.4883242300205515,0.0
3502,3.493888712191656,0.0
3503,-2.6777151896570643,0.0
3504,1.4859036540687742,0.0
3505,-0.8306629323761588,0.0
3506,0.38737503236293525,0.0
3507,-0.14144152593426149,0.0
3508,-0.10769987839587099,0.0
3509,-0.019229943179053417,0.0
3510,-0.020009414186571726,0.0
3511,-0.1096147908287696,0.0
3512,-0.14571938446571792,0.0
3513,-0.08341188628135238,0.0
3514,-0.04133938686057386,0.0
3515,-0.06690851110717157,0.0
3516,-0.02301498346058692,0.0
3517,1.457923667382504,0.0
3518,6.906502828695316,0.0
3519,-0.07251502388931574,0.0
3520,-1.0574480711946137,0.0
3521,0.8197545003264627,0.0
3522,-0.4530239117810954,0.0
3523,0.0785127018242109,0.0
3524,-0.039828643775573026,0.0
3525,-0.0632963943018546,0.0
3526,-0.026936216368870475,0.0
3527,-0.08151445985629388,0.0
3528,0.006540411035322668,0.0
3529,-0.03365243624705043,0.0
3530,0.004225223341130992,0.0
3531,-0.005989020622932998,0.0
3532,-0.05562933364060295,0.0
3533,0.1388134311028661,0.0
3534,3.4774523430857847,0.0
3535,6.207326048388772,0.0
3536,-2.734493572672656,0.0
3537,0.9063034580783573,0.0
3538,-0.36656502522122975,0.0
3539,0.10855776397858793,0.0
3540,-0.04934386913959935,0.0
3541,0.011283691324847214,0.0
3542,0.08332341280091926,0.0
3543,-0.12207455626239758,0.0
3544,-0.0288520192810116,0.0
3545,0.045823236590922356,0.0
3546,-0.1317915369494208,0.0
3547,0.05367353598991827,0.0
3548,0.05480815393354643,0.0
3549,-0.020362095376739144,0.0
3550,0.5567238962702682,0.0
3551,5.624489684949425,0.0
3552,3.5436532243359475,0.0
3553,-2.747935152514887,0.0
3554,1.6309825779654774,0.0
3555,-0.7913253013300197,0.0
3556,0.41128260400208716,0.0
3557,-0.10852827759007852,0.0
3558,0.11969250984328267,0.0
3559,0.03248698237437651,0.0
3560,0.014926611531407712,0.0
3561,0.03647258837238092,0.0
3562,0.036497204321974334,0.0
3563,0.0858106894260755,0.0
3564,-0.015311593052095732,0.0
3565,-0.032626329504836724,0.0
3566,0.0702474730218004,0.0
3567,1.6429033844887704,0.0
3568,6.924844566770818,0.0
3569,-0.12131101248533686,0.0
3570,-0.9274493342773706,0.0
3571,0.698784954006178,0.0
3572,-0.3582748302998439,0.0
3573,0.11068656515145729,0.0
3574,-0.005278910024247137,0.0
3575,0.0657922362993972,0.0
3576,-0.004230440050434018,0.0
3577,0.020672722614899577,0.0
3578,-0.008591040301215987,0.0
3579,-0.07272611907792065,0.0
3580,-0.05580804084911309,0.0
3581,-0.007793817730760082,0.0
3582,-0.006110464073727717,0.0
3583,0.18523228065613478,0.0
3584,3.4694222749373713,0.0
3585,6.353708781914383,0.0
3586,-2.6207363600570353,0.0
3587,1.0389775598106061,0.0
3588,-0.3663422818946135,0.0
3589,0.15009976451651771,0.0
3590,0.0009314571817687772,0.0
3591,0.10124123257200066,0.0
3592,0.12029142939527318,0.0
3593,0.0623968852527721,0.0
3594,0.08332348701648962,0.0
3595,0.06038505156662215,0.0
3596,0.06955576174947464,0.0
3597,0.05038294456358259,0.0
3598,0.0999301367842635,0.0
3599,0.03972025375502031,0.0
3600,0.5400705893309219,0.0
3601,5.591975661205503,0.0
3602,3.4672553648550175,0.0
3603,-2.750719726245993,0.0
3604,1.611716348096474,0.0
3605,-0.8288721928644931,0.0
3606,0.389707337960294,0.0
3607,-0.15610060810349916,0.0
3608,0.10670004766045749,0.0
3609,0.17182076006106548,0.0
3610,0.12200674373726267,0.0
3611,0.1013231078467709,0.0
3612,0.06688153071896452,0.0
3613,0.057714453993557825,0.0
3614,0.1048406378854721,0.0
3615,0.06790984960370669,0.0
3616,0.12365338057372166,0.0
3617,1.5821904837192873,0.0
3618,6.995864474260519,0.0
3619,-0.08459718902846228,0.0
3620,-0.9383449745056581,0.0
3621,0.8831987376086049,0.0
3622,-0.36204496215452914,0.0
3623,0.20225833621299055,0.0
3624,-0.030388743340465395,0.0
3625,0.06588444381195505,0.0
3626,0.046353505686374814,0.0
3627,0.0719174349693067,0.0
3628,-0.038868879609848195,0.0
3629,-0.04176789909732542,0.0
3630,0.01743622847337244,0.0
3631,0.07155615809323822,0.0
3632,0.09325118715690833,0.0
3633,0.08890209990542913,0.0
3634,3.453984895152117,0.0
3635,6.286532151324699,0.0
3636,-2.7262061347780473,0.0
3637,1.0372552015523833,0.0
3638,-0.32756247211079503,0.0
3639,0.11895715089251449,0.0
3640,-0.15422108006771715,0.0
3641,0.08933869318189905,0.0
3642,0.04060692350318702,0.0
3643,-0.010506517177810495,0.0
3644,0.08072779270839961,0.0
3645,0.0223458670864447,0.0
3646,0.04614011238666774,0.0
3647,0.04677025545413637,0.0
3648,0.08256276481025666,0.0
3649,0.024731609519117823,0.0
3650,0.5592107050142976,0.0
3651,5.566443996310467,0.0
3652,3.4777165759430275,0.0
3653,-2.69445194620388,0.0
3654,1.5808239932903276,0.0
3655,-0.7605766798744048,0.0
3656,0.401745730813507,0.0
3657,-0.023242667561729213,0.0
3658,0.12681089544628482,0.0
3659,0.020959857101388125,0.0
3660,0.017015091243136833,0.0
3661,-0.07997538737088007,0.0
3662,0.008808335334052626,0.0
3663,-0.0933232385114505,0.0
3664,0.04218155213564072,0.0
3665,0.061112862457904524,0.0
3666,0.06017005980693532,0.0
3667,1.6670098366457857,0.0
3668,6.934898773241648,0.0
3669,-0.13239624073232178,0.0
3670,-0.9373709095225036,0.0
3671,0.74232202839859,0.0
3672,-0.3921357050319863,0.0
3673,0.30251829313303746,0.0
3674,-0.0035191471243064334,0.0
3675,-0.008956704935769257,0.0
3676,0.0327625181525637,0.0
3677,0.06387684305965013,0.0
3678,0.06226087485802015,0.0
3679,0.04366822371741834,0.0
3680,0.040721779327515764,0.0
3681,0.017360942555307762,0.0
3682,-0.005530934493144554,0.0
3683,0.10375924581429527,0.0
3684,3.437578603630859,0.0
3685,6.266057600869202,0.0
3686,-2.7339472289802775,0.0
3687,1.1007200554971877,0.0
3688,-0.31441035749242435,0.0
3689,0.12766120189737273,0.0
3690,-0.021474576969279215,0.0
3691,0.06463094429692919,0.0
3692,-0.009201369152489217,0.0
3693,0.015853246383887458,0.0
3694,0.002912011144670462,0.0
3695,-0.015986329568946564,0.0
3696,0.050374839391934004,0.0
3697,0.008492747100965942,0.0
3698,0.03772699121276302,0.0
3699,0.06149743601817098,0.0
3700,0.551507881958246,0.0
3701,5.715749287685674,0.0
3702,3.464934044082892,0.0
3703,-2.7620234039302876,0.0
3704,1.630641017060731,0.0
3705,-0.8013215883410427,0.0
3706,0.44367714678128173,0.0
3707,-0.0034019641576591153,0.0
3708,-0.05168672359920799,0.0
3709,0.03451492822736249,0.0
3710,-0.07861500547172234,0.0
3711,0.02077282715334619,0.0
3712,0.009424408294717829,0.0
3713,0.02243031707534985,0.0
3714,0.041723342341924145,0.0
3715,-0.04989316873652528,0.0
3716,-0.0214174531864071,0.0
3717,1.493700086439806,0.0
3718,6.886219231848723,0.0
3719,-0.27025171699694395,0.0
3720,-0.9932933060453389,0.0
3721,0.7865470537461735,0.0
3722,-0.31689871095692546,0.0
3723,0.2144680365333888,0.0
3724,-0.1089201165223479,0.0
3725,0.09271318437070095,0.0
3726,0.05153787347913123,0.0
3727,0.0416681291111753,0.0
3728,0.026929846804214466,0.0
3729,0.01151506889976598,0.0
3730,-0.017925303193230407,0.0
3731,0.08839481930653842,0.0
3732,0.08657102416962069,0.0
3733,0.25406682247409396,0.0
3734,3.5299176573173154,0.0
3735,6.279508920070354,0.0
3736,-2.6820539693102567,0.0
3737,1.0903645452021362,0.0
3738,-0.3563728984611185,0.0
3739,0.13809969269492167,0.0
3740,0.03180627001081008,0.0
3741,0.18436430886114125,0.0
3742,-0.03266824480672785,0.0
3743,0.14878910314078206,0.0
3744,0.05430477297891567,0.0
3745,0.07477915833658565,0.0
3746,0.03469611107140387,0.0
3747,0.09558828741294062,0.0
3748,0.12984343490123296,0.0
3749,0.034476644325154425,0.0
3750,0.5873235393104007,0.0
3751,5.631982855632638,0.0
3752,3.46770028121519,0.0
3753,-2.57093840698443,0.0
3754,1.6874701016967455,0.0
3755,-0.7903003885970219,0.0
3756,0.2919761508133435,0.0
3757,-0.06847956482862305,0.0
3758,0.030903152509056647,0.0
3759,0.04783167201467015,0.0
3760,0.11833271900356496,0.0
3761,-0.008186229215440599,0.0
3762,0.0606959340699682,0.0
3763,0.04167158895561595,0.0
3764,0.06459535601940915,0.0
3765,-0.019103473213325384,0.0
3766,0.06475887974869071,0.0
3767,1.7122931524269978,0.0
3768,6.9355956604058395,0.0
3769,-0.18868421620587458,0.0
3770,-0.9438712696039773,0.0
3771,0.7385062066384174,0.0
3772,-0.42719028492965205,0.0
3773,0.13138098322338174,0.0
3774,-0.005497518767372124,0.0
3775,-0.04189144701168042,0.0
3776,-0.1030387236813774,0.0
3777,0.009980259361227121,0.0
3778,0.03908409583644951,0.0
3779,0.025684833524893737,0.0
3780,7.322062212402128e-05,0.0
3781,0.0107164854585034,0.0
3782,0.07632645573629418,0.0
3783,0.1665384406815362,0.0
3784,3.5668030129405,0.0
3785,6.293342011465811,0.0
3786,-2.6819640816341557,0.0
3787,1.186703347649388,0.0
3788,-0.26607054044527273,0.0
3789,0.2148793592665144,0.0
3790,-0.05745944218995333,0.0
3791,0.11544292424253101,0.0
3792,0.0892442342954522,0.0
3793,0.060006503113970225,0.0
3794,0.023950680659779844,0.0
3795,0.04760686659557593,0.0
3796,0.04432005908496128,0.0
3797,0.1802611483000866,0.0
3798,0.06422192929879443,0.0
3799,0.08200221495484204,0.0
3800,0.6091155242706712,0.0
3801,5.706531697101919,0.0
3802,3.4518672007709914,0.0
3803,-2.5987315177618675,0.0
3804,1.602736252669671,0.0
3805,-0.7427040511780517,0.0
3806,0.3587876025775467,0.0
3807,-0.09298889212390493,0.0
3808,0.041341128574546526,0.0
3809,0.0952568821333935,0.0
3810,0.010162273350868743,0.0
3811,0.11098785240967698,0.0
3812,0.03775869635159079,0.0
3813,0.07378970010846936,0.0
3814,0.051347236375402255,0.0
3815,0.03310547893041622,0.0
3816,0.14833799290214078,0.0
3817,1.5885976354372848,0.0
3818,6.964150797106887,0.0
3819,-0.2584150693928084,0.0
3820,-0.9129482449236727,0.0
3821,0.7222585019703107,0.0
3822,-0.38991908197690694,0.0
3823,0.11505260658089966,0.0
3824,-0.1007346184048476,0.0
3825,0.02604159009688293,0.0
3826,-0.059339176326382526,0.0
3827,-0.01879298840453142,0.0
3828,-0.005867120672972261,0.0
3829,-0.016975952763547894,0.0
3830,0.11883655236659885,0.0
3831,0.0969118353472379,0.0
3832,-0.042652749300602665,0.0
3833,0.173106969094653,0.0
3834,3.6035324678818537,0.0
3835,6.2071373090710305,0.0
3836,-2.713829001487845,0.0
3837,1.156555336881181,0.0
3838,-0.3700072711313428,0.0
3839,0.1408326227972743,0.0
3840,0.022069566242318192,0.0
3841,0.08832916280696099,0.0
3842,-0.056305653808749107,0.0
3843,-0.02549700607290173,0.0
3844,-0.009759661316674346,0.0
3845,-0.051956180666804075,0.0
3846,0.023981004519563517,0.0
3847,0.045332070789819365,0.0
3848,0.08211220699957925,0.0
3849,0.06527401034450868,0.0
3850,0.6324818028257227,0.0
3851,5.724006714570751,0.0
3852,3.4429427895329052,0.0
3853,-2.613622547227417,0.0
3854,1.59307742801308,0.0
3855,-0.7054292427788386,0.0
3856,0.3823694787847542,0.0
3857,-0.025149449148378907,0.0
3858,0.011579735719555034,0.0
3859,-0.018669995665405364,0.0
3860,0.17592090055876472,0.0
3861,0.028016592930500323,0.0
3862,0.017617828634514707,0.0
3863,-0.026110326088939973,0.0
3864,0.00379850827579218,0.0
3865,-0.10928922550156088,0.0
3866,-0.07737347689913364,0.0
3867,1.6456885426659984,0.0
3868,6.9151267799784675,0.0
3869,-0.35520848132544963,0.0
3870,-0.9475000410066172,0.0
3871,0.701590055605837,0.0
3872,-0.37351193677916905,0.0
3873,0.15644489754591154,0.0
3874,-0.040857684277668144,0.0
3875,-0.03307995995904636,0.0
3876,0.0187862697709855,0.0
3877,-0.0036773848426448243,0.0
3878,0.02424662369481622,0.0
3879,0.034611026811280435,0.0
3880,0.022584649327322945,0.0
3881,-0.052684248799525116,0.0
3882,-0.051347694803945014,0.0
3883,0.1457384883783803,0.0
3884,3.5431934640472047,0.0
3885,6.172650588217845,0.0
3886,-2.8015073403665727,0.0
3887,1.0413493069066488,0.0
3888,-0.3705737655423461,0.0
3889,0.13922057090905127,0.0
3890,-0.1228285146350327,0.0
3891,-0.049502096928141295,0.0
3892,-0.06017106725986907,0.0
3893,0.046264643391728866,0.0
3894,-0.023364860845633634,0.0
3895,0.018523693129952654,0.0
3896,0.03139826829226668,0.0
3897,-0.04036598158355082,0.0
3898,0.03498638539208897,0.0
3899,-0.037354267957701935,0.0
3900,0.5549767140019066,0.0
3901,5.561280725082216,0.0
3902,3.3438209480823082,0.0
3903,-2.70893278092048,0.0
3904,1.6165763470376442,0.0
3905,-0.7682519833404668,0.0
3906,0.33007403488166853,0.0
3907,-0.0780848821384011,0.0
3908,0.051183797976789625,0.0
3909,0.0032269525302988447,0.0
3910,0.07471691388462959,0.0
3911,0.03227363096271597,0.0
3912,0.014046779593240306,0.0
3913,0.12727842695045533,0.0
3914,-0.021652810614187716,0.0
3915,0.061590359573972984,0.0
3916,0.08924281010814147,0.0
3917,1.6021579532930699,0.0
3918,6.886678388326024,0.0
3919,-0.35957774662129666,0.0
3920,-0.8842829628733263,0.0
3921,0.7192991203628335,0.0
3922,-0.3428996731880646,0.0
3923,0.10721243949898424,0.0
3924,-0.04381824060028372,0.0
3925,-0.027506123413897764,0.0
3926,-0.05429651958173934,0.0
3927,-0.0402607256361487,0.0
3928,-0.03940543042147997,0.0
3929,-0.015423420945234087,0.0
3930,-0.07145851872599934,0.0
3931,-0.015110089744536363,0.0
3932,-0.07248349428969532,0.0
3933,0.10201405804052686,0.0
3934,3.559865240307778,0.0
3935,6.162044052427735,0.0
3936,-2.704510876116477,0.0
3937,1.084680677083608,0.0
3938,-0.32527867090613866,0.0
3939,0.17001630064682116,0.0
3940,-0.13405049608769515,0.0
3941,0.06927486200590516,0.0
3942,-0.011993929489325938,0.0
3943,0.03921136906003656,0.0
3944,-0.039973996207685415,0.0
3945,0.04544320329697979,0.0
3946,0.01989867165961122,0.0
3947,-0.05388945833850072,0.0
3948,0.051991522977501856,0.0
3949,-0.011680716140489787,0.0
3950,0.46854344101877066,0.0
3951,5.608057003375447,0.0
3952,3.3088128366976277,0.0
3953,-2.6791582269888403,0.0
3954,1.5185836332486995,0.0
3955,-0.693594892204686,0.0
3956,0.3766935735959589,0.0
3957,-0.11122817473015299,0.0
3958,0.05345958712260371,0.0
3959,0.0313731738627603,0.0
3960,-0.0063806076134126435,0.0
3961,-0.022909679038335393,0.0
3962,0.003942831053499457,0.0
3963,0.022209062420518826,0.0
3964,0.058159357868468445,0.0
3965,-0.11233924692064093,0.0
3966,-0.07834875006431202,0.0
3967,1.6470570355768055,0.0
3968,6.932142416157247,0.0
3969,-0.30351569923965405,0.0
3970,-0.8897524107848097,0.0
3971,0.6928910826470602,0.0
3972,-0.43925827530585093,0.0
3973,0.18969758896895647,0.0
3974,-0.07287244560635653,0.0
3975,0.008175498523972032,0.0
3976,-0.026741572894215082,0.0
3977,-0.03939157971943716,0.0
3978,-0.03164855672058804,0.0
3979,-0.15316535088738087,0.0
3980,0.006421675772218131,0.0
3981,-0.028788230104773598,0.0
3982,-0.04487773810656335,0.0
3983,0.10527834293292673,0.0
3984,3.4693005769736436,0.0
3985,6.158481821060417,0.0
3986,-2.854101918553572,0.0
3987,1.0497462910265356,0.0
3988,-0.3825305060432633,0.0
3989,0.15615880675942392,0.0
3990,-0.0869799433711489,0.0
3991,0.024633045132558953,0.0
3992,-0.04110656288542183,0.0
3993,0.08097874387869386,0.0
3994,-0.055724463482916924,0.0
3995,0.018303227075088354,0.0
3996,0.07525398716175831,0.0
3997,-0.06966863854697325,0.0
3998,0.07263622740738396,0.0
3999,0.022011637082215162,0.0
4000,0.5927561845311047,0.0
4001,5.7563157694886415,0.0
4002,3.315700179348163,0.0
4003,-2.5976544186791317,0.0
4004,1.5099109802474249,0.0
4005,-0.7171338764029587,0.0
4006,0.35799653525726055,0.0
4007,-0.005754885778048016,0.0
4008,0.02310251613283191,0.0
4009,0.05375575236978694,0.0
4010,0.04960807233768055,0.0
4011,0.045881024843961865,0.0
4012,0.016586286186074908,0.0
4013,-0.08758401014190942,0.0
4014,0.0382217345799213,0.0
4015,-0.09440577854822653,0.0
4016,0.0174197889350026,0.0
4017,1.7246399633827914,0.0
4018,6.861318301195867,0.0
4019,-0.37082003784451467,0.0
4020,-0.8914951572729042,0.0
4021,0.6234761882951974,0.0
4022,-0.3893133442427783,0.0
4023,0.18009970773492115,0.0
4024,-0.05146345155321471,0.0
4025,0.08464211676021792,0.0
4026,0.0471190858548023,0.0
4027,0.01742485019736998,0.0
4028,0.030446413859610635,0.0
4029,0.061873376312508235,0.0
4030,-0.11091099787717322,0.0
4031,-0.010609172195136947,0.0
4032,0.07690247815825196,0.0
4033,0.18496376751643687,0.0
4034,3.6388311230612853,0.0
4035,6.12817268766102,0.0
4036,-2.762082484962677,0.0
4037,1.1923855246036381,0.0
4038,-0.37276225680428393,0.0
4039,0.2147487476711793,0.0
4040,-0.0684997557598539,0.0
4041,0.1385857628759469,0.0
4042,0.07249376762350179,0.0
4043,-0.06133658825985343,0.0
4044,-0.0364133177707405,0.0
4045,0.03508615109076937,0.0
4046,0.0443150665981011,0.0
4047,-0.013207342570805856,0.0
4048,0.0075857496172191275,0.0
4049,-0.03321273483683373,0.0
4050,0.5856572709923471,0.0
4051,5.674818098254993,0.0
4052,3.248189664160939,0.0
4053,-2.7586591723801717,0.0
4054,1.4546748234039253,0.0
4055,-0.8612934523347316,0.0
4056,0.33791170333443393,0.0
4057,-0.14659489107699405,0.0
4058,-0.0783044054760528,0.0
4059,0.025983746008018754,0.0
4060,-0.05708792751510044,0.0
4061,0.0349982609130275,0.0
4062,-0.08866061743870156,0.0
4063,-0.0339001646815891,0.0
4064,-0.008793755320261696,0.0
4065,-0.022224443302342554,0.0
4066,-0.11515196663370428,0.0
4067,1.671081448244252,0.0
4068,6.873626696380131,0.0
4069,-0.38032239570554943,0.0
4070,-0.8364742211292115,0.0
4071,0.7209384656550222,0.0
4072,-0.30042964564083063,0.0
4073,0.21765819161789435,0.0
4074,-0.011931449877414013,0.0
4075,-0.07569328768267984,0.0
4076,-0.10165250650018136,0.0
4077,-0.005645328168881343,0.0
4078,-0.02033111905916402,0.0
4079,-0.1395075246154565,0.0
4080,-0.006121940299522809,0.0
4081,-0.05857976615926502,0.0
4082,0.021293243241013168,0.0
4083,0.039770557512343756,0.0
4084,3.5607443631024873,0.0
4085,6.123120455641326,0.0
4086,-2.877954259557708,0.0
4087,1.0849611506133656,0.0
4088,-0.45701890582508903,0.0
4089,0.07646638331864003,0.0
4090,-0.07047570012996571,0.0
4091,0.037238846130607524,0.0
4092,-0.025629445033350816,0.0
4093,-0.06582266898812875,0.0
4094,-0.04086046478182273,0.0
4095,0.03411189013303273,0.0
4096,-0.05767050320145412,0.0
4097,0.03100817851863088,0.0
4098,-0.1355807105254895,0.0
4099,-0.028967629815813772,0.0
4100,0.5035504989666608,0.0
4101,5.647433237947504,0.0
4102,3.166574975452989,0.0
4103,-2.7160173891230355,0.0
4104,1.4264148887833787,0.0
4105,-0.7947371687052148,0.0
4106,0.3488775543688954,0.0
4107,-0.08273298684777089,0.0
4108,-0.11487425367481685,0.0
4109,-0.11175242302442966,0.0
4110,0.08117674429947182,0.0
4111,-0.1828569237936105,0.0
4112,-0.10135120070296542,0.0
4113,-0.11998811325543984,0.0
4114,-0.10161727682998867,0.0
4115,-0.0017086708053433118,0.0
4116,0.04384340150565897,0.0
4117,1.6296607167268924,0.0
4118,6.837826909747882,0.0
4119,-0.4208488601487711,0.0
4120,-0.8304694885037739,0.0
4121,0.85210427076382,0.0
4122,-0.37087001867199254,0.0
4123,0.2176309050783301,0.0
4124,-0.016320873572703225,0.0
4125,-0.011649641563308109,0.0
4126,-0.10499588963302332,0.0
4127,-0.07615127047458571,0.0
4128,-0.02961006706251569,0.0
4129,0.02196826356022937,0.0
4130,-0.11977270339474447,0.0
4131,-0.040381025389216646,0.0
4132,-0.03127460026877094,0.0
4133,0.1026402749139973,0.0
4134,3.587352429300604,0.0
4135,6.055125554872804,0.0
4136,-2.7532614227067165,0.0
4137,1.0985938912378623,0.0
4138,-0.44384034602038264,0.0
4139,0.11524853594758097,0.0
4140,-0.0428195167157155,0.0
4141,0.023017958791172275,0.0
4142,0.06763415547025256,0.0
4143,0.006986954856284742,0.0
4144,0.03693266231382969,0.0
4145,0.022115835660597084,0.0
4146,0.12588106800091697,0.0
4147,0.06855381066322377,0.0
4148,-0.029344937496478145,0.0
4149,-0.09770231214763828,0.0
4150,0.5813497129533541,0.0
4151,5.731886017148579,0.0
