timestamp,value-0,is_anomaly
0,0.23837029668512721,0
1,4.570127611710895,0
2,4.957529467585078,0
3,-2.984325884866834,0
4,1.4947422448852992,0
5,-0.6828503135764723,0
6,0.27961447191328254,0
7,-0.1432925561065206,0
8,0.08893045959049228,0
9,0.015872661362181517,0
10,-0.009373395750537167,0
11,0.11222517052907227,0
12,0.06440319370974595,0
13,0.0733056841109746,0
14,0.010138846606713665,0
15,-0.05222421734595235,0
16,0.007608492839986741,0
17,1.0324238830885375,0
18,6.609790749734719,0
19,1.6274728844460085,0
20,-1.9195972432796418,0
21,1.2600102671078377,0
22,-0.6907097911260462,0
23,0.30423280604734976,0
24,0.013162988559921998,0
25,0.023330744670563865,0
26,0.024117955861373126,0
27,0.016194247677511923,0
28,-0.023308532527431394,0
29,-0.04587160896335667,0
30,0.03390117407037694,0
31,-0.015519574268117113,0
32,0.10368109898434921,0
33,0.011177638568538609,0
34,2.5216905929326536,0
35,6.946901832768856,0
36,-1.7118509424491353,0
37,0.23428503226878505,0
38,0.1886311360626487,0
39,-0.018737159011137747,0
40,0.0765462951682466,0
41,-0.033459279562556295,0
42,-0.06142919098896643,0
43,0.07644195568255348,0
44,-0.02395245514451573,0
45,0.03723224924657828,0
46,-0.010798931457600303,0
47,0.06505424604558194,0
48,0.10266885866071011,0
49,0.07144752149489735,0
50,0.2956084074146706,0
51,4.562201562999002,0
52,4.997627347867594,0
53,-2.9315429855527477,0
54,1.4879633448738765,0
55,-0.611028785366835,0
56,0.25209560787791796,0
57,-0.09535461269621098,0
58,-0.012538767740763013,0
59,0.026297382719363903,0
60,0.044148694270965766,0
61,0.047868893380602906,0
62,0.03594459286492725,0
63,0.013385105597916237,0
64,0.07321869276745359,0
65,0.020941313619651427,0
66,-0.005505791619471651,0
67,0.9944077685155085,0
68,6.391562374194433,0
69,1.4692176468512432,0
70,-1.9184932221742896,0
71,1.2803919887036275,0
72,-0.6678884066326478,0
73,0.36511534087508823,0
74,-0.0714224799019369,0
75,-0.027698429707160466,0
76,0.09348355214655156,0
77,0.021833245678451844,0
78,0.14629336725978417,0
79,0.027589039026111296,0
80,0.03124377256467617,0
81,-0.027446282090885198,0
82,-0.026536579639753886,0
83,0.11508333999938623,0
84,2.438415476636152,0
85,6.865811365603776,0
86,-1.81740586303783,0
87,0.2214758135622281,0
88,0.17975830370441215,0
89,-0.03261228070442514,0
90,0.09439211783763982,0
91,0.04262630446835742,0
92,0.04498190227509425,0
93,0.018833265431256734,0
94,-0.029563193351157552,0
95,0.02887016006121509,0
96,0.032014983662002464,0
97,0.01751413253347727,0
98,0.012892634986627736,0
99,0.01558667804734598,0
100,0.2418921498717363,0
101,4.689464289632023,0
102,5.017455074398714,0
103,-2.906884025272586,0
104,1.5357314654595713,0
105,-0.6839900485242395,0
106,0.31835023632632503,0
107,-0.052505451143535845,0
108,0.09889475326832856,0
109,0.1155999440501844,0
110,0.07460144910683193,0
111,0.07527050792964496,0
112,0.056576351692395624,0
113,0.08688893945850738,0
114,-0.012983844911270533,0
115,0.06439968247411736,0
116,0.1389252619826918,0
117,0.9311437443339471,0
118,6.455125010862169,0
119,1.6064897834566854,0
120,-1.9150309224915782,0
121,1.3006316557716682,0
122,-0.5806861334850905,0
123,0.2557693537387671,0
124,0.002006467693150202,0
125,-0.002324076583109666,0
126,0.0463420955870749,0
127,0.059578665969339605,0
128,0.15867109599935125,0
129,0.11165125831686228,0
130,0.1421830307645472,0
131,-0.028835920481264106,0
132,-0.012662338919286004,0
133,0.07685878953838747,0
134,2.613693751374339,0
135,6.975181080927687,0
136,-1.7644659447491433,0
137,0.24886836254000372,0
138,0.17962912334033299,0
139,-0.09912688688139995,0
140,0.06647828690356014,0
141,0.03764644026643911,0
142,0.020433784634395782,0
143,0.11331064379561609,0
144,0.10502197085351535,0
145,0.0005827340794291869,0
146,-0.03078708217062953,0
147,0.04811534844837766,0
148,0.010881894678336883,0
149,0.05484424574001108,0
150,0.2864656113979811,0
151,4.726305427837685,0
152,4.969769973063718,0
153,-2.909403463949577,0
154,1.6409409954080099,0
155,-0.5181798145516239,0
156,0.3571509418479191,0
157,-0.04386389924181768,0
158,0.11759885763698856,0
159,0.10402915086292774,0
160,0.0013948259108858135,0
161,0.04472847972332191,0
162,0.08229433856512133,0
163,0.14199708478016593,0
164,0.006515354024160189,0
165,0.00884687302519685,0
166,0.08111077710475856,0
167,1.0257557527760919,0
168,6.517669110910003,0
169,1.503809611527548,0
170,-1.8585544671459207,0
171,1.3543402616045668,0
172,-0.520821574531596,0
173,0.4759253096703273,0
174,0.11374167351729736,0
175,0.22218461912033852,0
176,0.15394038810979935,0
177,0.09573598484828767,0
178,0.13514409977259872,0
179,0.19666750403971192,0
180,0.11935843798530772,0
181,0.13563707199812547,0
182,0.11315556909430358,0
183,0.0875347108521796,0
184,2.66239873341869,0
185,6.983618104854071,0
186,-1.7547121791314197,0
187,0.2960041392464169,0
188,0.20179163105132375,0
189,0.03735545320505009,0
190,0.21878386739202862,0
191,0.031858514897972895,0
192,0.08326144203279637,0
193,0.18138199572231914,0
194,0.1773738054232872,0
195,0.08443846874991248,0
196,0.15478241671240878,0
197,0.1582850526828151,0
198,0.15248342261605183,0
199,0.11726266278039635,0
200,0.44626752973472783,0
201,4.849102165155328,0
202,5.055716166886684,0
203,-2.844706317279633,0
204,1.6956735194846817,0
205,-0.5619456159254466,0
206,0.4023940671042924,0
207,0.015357045013893716,0
208,0.16273693852589835,0
209,0.13614542692635978,0
210,0.1065682378252484,0
211,0.1280706504587463,0
212,0.09535258587545344,0
213,0.09389817467887697,0
214,0.09110745733557207,0
215,0.08981242614318774,0
216,0.10453590072285313,0
217,1.1127636894574244,0
218,6.6529211986769985,0
219,1.6383952230348537,0
220,-1.882373082498824,0
221,1.3787998005622593,0
222,-0.47173358161321227,0
223,0.4105607961438264,0
224,-0.03569545322722494,0
225,0.2003210798996321,0
226,0.139976544693598,0
227,0.15100965004442218,0
228,0.14233150311849443,0
229,0.08597573293321818,0
230,0.13508989971197496,0
231,0.11434912409491647,0
232,0.12487298353191699,0
233,0.06899611068558692,0
234,2.644323219639873,0
235,7.00432843428222,0
236,-1.7508313956785313,0
237,0.2758008658502292,0
238,0.22613082202116447,0
239,-0.022373899765992196,0
240,0.10844788457233925,0
241,0.05350907809498574,0
242,0.05556450100791509,0
243,0.1421838532053168,0
244,0.10711886768411588,0
245,0.07625338166133172,0
246,0.08332915891772659,0
247,0.08648824606166994,0
248,0.03214771626957986,0
249,0.12615290095941775,0
250,0.2682664891958753,0
251,4.7493870661179525,0
252,5.015823953007594,0
253,-2.9886270401626938,0
254,1.6480557406151792,0
255,-0.6712139052913465,0
256,0.36710650889376645,0
257,-0.029139261881732215,0
258,0.11402957242750128,0
259,-0.01711424436184257,0
260,0.15334811762917872,0
261,0.1430638031562367,0
262,0.1262443555715484,0
263,0.08348429236268105,0
264,0.03595106019533813,0
265,0.15955888347879305,0
266,0.02383757045941068,0
267,1.1400742494176428,0
268,6.631568575381171,0
269,1.4844432452949279,0
270,-1.8638862857646248,0
271,1.2861735288649945,0
272,-0.6278229046449109,0
273,0.3856305317560587,0
274,0.010953004284646219,0
275,0.02730693612833173,0
276,-0.04707319693542884,0
277,0.08905059354831377,0
278,0.013683824734598816,0
279,0.05772241922475966,0
280,0.06293115569674292,0
281,0.0391238025583494,0
282,0.045151113649622154,0
283,0.10548483733537181,0
284,2.5183431332525115,0
285,6.937731971086642,0
286,-1.8376227093054642,0
287,0.4264169624140458,0
288,0.15849811657980764,0
289,0.026376679158266317,0
290,0.036365365577570835,0
291,0.06605977264968738,0
292,0.06937882841404072,0
293,0.040298425899382456,0
294,0.028912823996642453,0
295,0.02771252087148929,0
296,0.03807081630902262,0
297,0.017824126793985505,0
298,-0.043665626472952995,0
299,0.06322600438719388,0
300,0.2285569478767112,0
301,4.817286027996519,0
302,4.86826703967578,0
303,-2.9219928406834605,0
304,1.6459532056009636,0
305,-0.6865864788059002,0
306,0.33685432474550014,0
307,-0.02128721251603717,0
308,-0.015679770392478573,0
309,-0.015132527259015715,0
310,0.041602599498981915,0
311,0.11337638633497787,0
312,0.05326315726858466,0
313,0.12545777943065323,0
314,0.04469069260904399,0
315,0.041864689328260804,0
316,-0.04226223271727112,0
317,1.093240153934756,0
318,6.543108520258306,0
319,1.4992114698173824,0
320,-1.9778803833701897,0
321,1.2027412723370852,0
322,-0.6083881678730231,0
323,0.278697863225408,0
324,-0.1264715622388291,0
325,0.049292196656835534,0
326,0.0016164302517169757,0
327,-0.02257328144915486,0
328,-0.0140996468043127,0
329,0.058618964085317124,0
330,0.037737249233910496,0
331,0.1627297284613258,0
332,0.09294247177460724,0
333,0.07017493524819449,0
334,2.5097010229243395,0
335,6.963914456173605,0
336,-1.8123620312730053,0
337,0.2821821285058639,0
338,0.18064260565653012,0
339,-0.08570866696246993,0
340,0.10275870444132772,0
341,0.03162788704441863,0
342,0.10608802837951752,0
343,0.021968291850223587,0
344,-0.07063004272380194,0
345,0.04915795454473681,0
346,-0.060033453049472565,0
347,0.09690154561915862,0
348,-0.003033448769048418,0
349,-0.027491505790848993,0
350,0.3281410181099262,0
351,4.674052447930746,0
352,4.8851684647037406,0
353,-3.0450604820717078,0
354,1.6132013807541334,0
355,-0.7618642756479045,0
356,0.26985181300970995,0
357,-0.13903971651581498,0
358,0.055110585075311413,0
359,-0.05362576462814927,0
360,0.08424094863352292,0
361,0.057575432348398306,0
362,-0.02794314520387963,0
363,-0.07231276496069763,0
364,-0.031037704822643647,0
365,0.11507839181185135,0
366,0.07455830718867133,0
367,1.0868398024298382,0
368,6.426159908102696,0
369,1.4881722614374937,0
370,-1.8582594762983258,0
371,1.1159581600226152,0
372,-0.7115700904124557,0
373,0.2614098553281308,0
374,-0.21259246696788792,0
375,-0.04598235816466115,0
376,-0.030989233195247105,0
377,-0.022211555509351194,0
378,0.07492738865728205,0
379,-0.0825850999594852,0
380,-0.0076025811802915115,0
381,0.007322481886085877,0
382,-0.11353804143332308,0
383,0.012698446482343122,0
384,2.388694783263287,0
385,6.866354262726718,0
386,-1.9547886885015524,0
387,0.2103238599130273,0
388,0.04201925202447338,0
389,-0.09082012921785404,0
390,-0.08328546844421911,0
391,-0.008615933654084168,0
392,-0.06657446362629432,0
393,-0.05130671624089038,0
394,-0.044478757896011814,0
395,0.0022964475705443757,0
396,-0.14506931623160202,0
397,-0.13268315361563165,0
398,-0.05409596702609097,0
399,-0.06370780873511644,0
400,0.2661439630040343,0
401,4.65459669393737,0
402,4.866594303921512,0
403,-3.1292331194670586,0
404,1.6003051956770138,0
405,-0.7253307868190578,0
406,0.2932988153860093,0
407,-0.1945141358197089,0
408,-0.03986609029059095,0
409,-0.17742373673100548,0
410,-0.0037468609086650367,0
411,-0.11803815177186869,0
412,-0.01608916913989114,0
413,-0.11841855993167597,0
414,-0.14419984074551723,0
415,-0.1779107570131414,0
416,-0.012375420842402007,0
417,1.0174028038753173,0
418,6.482263991134434,0
419,1.2549764894521254,0
420,-1.9295380007983984,0
421,1.0423304411572871,0
422,-0.6624535610035037,0
423,0.19800202603943962,0
424,-0.16465915506023945,0
425,-0.126239656646038,0
426,-0.12036931279402127,0
427,-0.1263564421693637,0
428,-0.09941021378765741,0
429,-0.11582760319184024,0
430,-0.0838548675997826,0
431,-0.050056507268651705,0
432,-0.04576670653332338,0
433,-0.06222579245680914,0
434,2.5559003399396403,0
435,6.834647674016752,0
436,-1.9480902496636476,0
437,0.25561433413005624,0
438,0.05655299061625385,0
439,-0.14677783306226544,0
440,-0.036214886086322166,0
441,-0.024610928519002664,0
442,0.050854180876706415,0
443,-0.04378592050643738,0
444,-0.09492799391358439,0
445,-0.027524026493001723,0
446,0.018349404786015586,0
447,0.023036887030091505,0
448,0.022598784785873086,0
449,-0.08784917855190251,0
450,0.2814562521818457,0
451,4.65533035825932,0
452,4.835885677147735,0
453,-3.1133831755334933,0
454,1.5683809255044832,0
455,-0.6791825522528976,0
456,0.29894303080279694,0
457,-0.22040104049645767,0
458,-0.01860600767933993,0
459,0.01399216900091084,0
460,-0.03847583842080145,0
461,-0.03074028443910004,0
462,-0.07899154700118366,0
463,0.030492784855452842,0
464,-0.09797106986752564,0
465,0.0014368814189382392,0
466,0.04113356649514571,0
467,1.0389114751537394,0
468,6.544485507090832,0
469,1.2631405516567435,0
470,-1.795163315933042,0
471,1.1892871851470261,0
472,-0.6658459726991482,0
473,0.19131908699990582,0
474,-0.1322832161637071,0
475,0.011635007381751071,0
476,-0.04409559100587955,0
477,-0.08332500633195902,0
478,-0.09870409318385823,0
479,-0.056394181181767325,0
480,-0.03535245577880662,0
481,-0.0017618584168456915,0
482,0.03097039642065835,0
483,0.07814684751309635,0
484,2.578472859603395,0
485,6.784086514837567,0
486,-1.9204781341268735,0
487,0.31770943948395114,0
488,0.09569182856351308,0
489,-0.0749806485974486,0
490,-0.02388764521713359,0
491,-0.034325531449330586,0
492,0.021249571343512533,0
493,-0.10148392958703223,0
494,-0.02724652837479508,0
495,-0.1621477356285247,0
496,-0.024521639765849437,0
497,-0.04186483989667376,0
498,0.0029173592571398385,0
499,-0.12433056551644242,0
500,0.20900941529088282,0
501,4.634250049759501,0
502,4.751791754765195,0
503,-3.028526497982803,0
504,1.6054958824587005,0
505,-0.7029156032491614,0
506,0.381206093764474,0
507,-0.10444019430565316,0
508,-0.015389578779708632,0
509,0.038079413372809706,0
510,0.04696016824311092,0
511,0.16520220911425934,0
512,-0.0009731565291868846,0
513,0.0826216249799265,0
514,-0.022196241162122293,0
515,0.04540569820923949,0
516,0.15420381228129365,0
517,1.0463400978950192,0
518,6.680500235757547,0
519,1.296480500668878,0
520,-1.8875563307799603,0
521,1.1332638201764713,0
522,-0.5535427793186453,0
523,0.2548394567478348,0
524,-0.10889407054569131,0
525,-0.03291020569094401,0
526,-0.07444129951460533,0
527,-0.03488246263681898,0
528,0.051085851372549056,0
529,0.06405363547194794,0
530,0.06814515629716682,0
531,0.037104962651024725,0
532,-0.012405663196771171,0
533,0.041747957480418915,0
534,2.5784880831344914,0
535,6.976732942553508,0
536,-2.0254016363891023,0
537,0.37958183477635926,0
538,0.10778322137472446,0
539,-0.09138566048832904,0
540,0.09948060855246169,0
541,-0.018261171029272077,0
542,-0.12212542592192488,0
543,0.021213503264452767,0
544,-0.007523026686318757,0
545,0.04082015747130029,0
546,0.001740339303871484,0
547,-0.010926483437380497,0
548,0.10511338147054214,0
549,0.11738940505947384,0
550,0.3753063127240361,0
551,4.747273131116549,0
552,4.674593784555668,0
553,-2.9576938434490683,0
554,1.6096816813021009,0
555,-0.6713536541918268,0
556,0.3113415152372442,0
557,-0.1847409426180175,0
558,0.00031666059658590207,0
559,-0.044397876294431635,0
560,0.07073302258640264,0
561,0.060729098811429974,0
562,-0.05873426127145606,0
563,0.04492599684981607,0
564,0.005031631430073432,0
565,-0.02149634114694832,0
566,0.06924016395808195,0
567,1.125726233349545,0
568,6.535276941698666,0
569,1.1934290044894105,0
570,-1.731835791855948,0
571,1.121266647210605,0
572,-0.5898794328462813,0
573,0.2329119509433323,0
574,-0.13946633434564049,0
575,0.0823380861139008,0
576,-0.05444532551418613,0
577,-0.021739350807191582,0
578,0.015954842104342545,0
579,-0.039872099150412746,0
580,-0.009356407181941372,0
581,0.02174331876712441,0
582,0.04561930835856376,0
583,0.0498320929921761,0
584,2.660835525797854,0
585,6.852668638597,0
586,-1.8936288403105788,0
587,0.2965317071960242,0
588,0.08954512159928714,0
589,-0.08297734580845179,0
590,0.14725653763456975,0
591,0.04583880971307728,0
592,0.024274125659392153,0
593,0.0823390024606955,0
594,0.05321782006925832,0
595,0.1492461154056226,0
596,0.09973972832626188,0
597,0.16966092919467637,0
598,0.031274201790560396,0
599,0.016441558268849937,0
600,0.4167012576011735,0
601,4.895267442145265,0
602,4.826161872229597,0
603,-2.98479204619954,0
604,1.6521010534889544,0
605,-0.7672993249190697,0
606,0.2863171048428727,0
607,-0.05835877834983223,0
608,0.10924054740506103,0
609,-0.054469484312791985,0
610,0.12567558840442827,0
611,0.025449657873012795,0
612,0.03913121655235962,0
613,-0.0669410358670963,0
614,-0.10738183849279381,0
615,0.06706163859618997,0
616,-0.047172672477566506,0
617,1.0125242610799492,0
618,6.554348174877201,0
619,1.293412501428151,0
620,-1.7762585113979892,0
621,1.2575454645712587,0
622,-0.578567720868981,0
623,0.30436249421789674,0
624,-0.05631739504179285,0
625,-0.004895586747041412,0
626,0.03842596104626522,0
627,0.08156253617801912,0
628,0.07429983444257131,0
629,-0.0278510735994468,0
630,0.03960149500193462,0
631,0.024656164526021616,0
632,-0.027641673119919156,0
633,-0.010743107285334091,0
634,2.660723301193444,0
635,6.8124155183319965,0
636,-1.9487169227584118,0
637,0.3388359034793652,0
638,0.09792664974274054,0
639,-0.0808788833370407,0
640,0.09901102929349664,0
641,-0.007113878804919045,0
642,0.03973877719428451,0
643,0.004344030950108321,0
644,-0.004047236211064488,0
645,0.055344969021136906,0
646,-0.008174699587123312,0
647,0.018965996254542927,0
648,0.04254662072735281,0
649,0.10208345999125057,0
650,0.35779372199767007,0
651,4.817573038867112,0
652,4.752390795064736,0
653,-2.9947369089880835,0
654,1.5812511225691155,0
655,-0.7389106347484282,0
656,0.24877768034072756,0
657,-0.2077721620128245,0
658,0.02584535379042519,0
659,0.08088037311026325,0
660,-0.0020516805212258127,0
661,-0.018196732468473614,0
662,0.03369389809841022,0
663,0.011204900154109803,0
664,-0.07003556907058295,0
665,0.07798237086649278,0
666,0.012453571361529676,0
667,1.1146537948192163,0
668,6.664384387963024,0
669,1.289761910944851,0
670,-1.6727000227547648,0
671,1.139678963355118,0
672,-0.6107043148036185,0
673,0.3192957836821361,0
674,-0.06546503877810327,0
675,0.038621418760489676,0
676,-0.002735638264913967,0
677,-0.05786428904130233,0
678,-0.02303037373658844,0
679,0.001858017416877958,0
680,-0.04357185726242923,0
681,-0.06112182673051375,0
682,-0.011543005463431844,0
683,0.0061730821015747,0
684,2.6215044111013297,0
685,6.858029660157627,0
686,-2.010275093966053,0
687,0.3723291394728125,0
688,0.0005857121299528215,0
689,-0.041706438756229515,0
690,0.11050652270711259,0
691,-0.03678430840881728,0
692,0.05522773255189834,0
693,0.003720701862425492,0
694,0.07128208345355873,0
695,0.08953877741424277,0
696,0.023641463860917256,0
697,0.03992655258125672,0
698,0.06723942669805903,0
699,0.08267777715859095,0
700,0.3787462783867741,0
701,4.935766791245366,0
702,4.839545673699539,0
703,-2.96154026765155,0
704,1.625703530319322,0
705,-0.5524494452201523,0
706,0.3531877151907334,0
707,-0.09843262176077153,0
708,0.1622638062318493,0
709,0.0498705451697809,0
710,0.05263163354527799,0
711,-0.04417817204755858,0
712,-0.008694642176503122,0
713,-0.13896533631708385,0
714,-0.004988080280671665,0
715,-0.07693493756053336,0
716,-0.03269102169611578,0
717,1.0950850071403706,0
718,6.536798533782658,0
719,1.2077169523788367,0
720,-1.742969630573265,0
721,1.202212442720354,0
722,-0.6268206646936302,0
723,0.28114115055962347,0
724,-0.03836086727607093,0
725,-0.060820843084815016,0
726,0.01566585961168963,0
727,0.07841972726920517,0
728,-0.0098066143697466,0
729,-0.05812104141952243,0
730,-0.018296814834073805,0
731,0.02584496574019241,0
732,-0.04373048792472807,0
733,0.09029681868684963,0
734,2.596165085785756,0
735,6.8272433635118945,0
736,-1.9618137235651598,0
737,0.3546890906442507,0
738,0.12239917603075796,0
739,-0.04014319363942078,0
740,0.06542406149714489,0
741,0.03299153444828454,0
742,-0.0724231415599366,0
743,0.0348100305139538,0
744,-0.0838601491601575,0
745,0.07374247973087217,0
746,0.04667535110335551,0
747,0.016566644045593902,0
748,0.09399189034474786,0
749,0.022384194996948097,0
750,0.29293766291504,0
751,4.867201200810065,0
752,4.744926998061627,0
753,-2.9467682807414857,0
754,1.6587179100264742,0
755,-0.7311251048433435,0
756,0.33484132223317775,0
757,-0.021687746247090536,0
758,0.055086940935469904,0
759,-0.050025110175314906,0
760,0.09501067721281858,0
761,-0.025573603717367215,0
762,0.03482876782160593,0
763,-0.048836778351050505,0
764,0.001578278062128213,0
765,0.1505864938553485,0
766,-0.02114027586391505,0
767,1.1061003277736863,0
768,6.569966577187624,0
769,1.1898899765584119,0
770,-1.7576184406794442,0
771,1.1723347093829972,0
772,-0.5863035035457378,0
773,0.26550034515676535,0
774,-0.09736795339074826,0
775,0.1266168792138784,0
776,-0.02484870393864595,0
777,-0.047019452265891215,0
778,0.019513260306808552,0
779,0.009265944052087322,0
780,0.05440238012515854,0
781,0.04531654567054235,0
782,-0.031875003280260106,0
783,0.02738986661232001,0
784,2.718531127136124,0
785,6.821647391245343,0
786,-2.0373144138403996,0
787,0.43274373949731576,0
788,0.0485254368095407,0
789,-0.10938958734262755,0
790,0.038013868798915246,0
791,0.04242341685886686,0
792,-0.008531261573260937,0
793,-0.06297713161932861,0
794,0.16180207142270545,0
795,0.09916748242705835,0
796,-0.029611009999234838,0
797,-0.09552917859670068,0
798,0.02904906375243207,0
799,-0.000447670819872948,0
800,0.3133611516504333,0
801,4.779749870755849,0
802,4.688028171965966,0
803,-2.9561663720295135,0
804,1.6183841213807404,0
805,-0.775413577073922,0
806,0.4397030835046213,0
807,-0.0664859498080198,0
808,0.033366033083109266,0
809,0.11252087673623183,0
810,0.03802421424531113,0
811,0.10488841779623316,0
812,0.05491019807825885,0
813,0.022992230762339375,0
814,-0.014981997277168937,0
815,0.11696641183677911,0
816,0.06522070688926562,0
817,1.1174386574466857,0
818,6.601669425434731,0
819,1.2406103018116528,0
820,-1.7411147501413098,0
821,1.0463584868381686,0
822,-0.5721190979956001,0
823,0.3173763983264677,0
824,-0.18532786290833314,0
825,0.06940266730114336,0
826,0.06351715873594696,0
827,-0.07879633980246756,0
828,0.03958196562928874,0
829,0.043093376551046114,0
830,0.015097624760288367,0
831,0.010724799424408092,0
832,0.12283843717560217,0
833,0.11480819609121737,0
834,2.713536080016747,0
835,6.91338496630748,0
836,-1.9831349300788534,0
837,0.4161076045999966,0
838,0.05127282118487396,0
839,-0.015626742189241247,0
840,0.09075510194861094,0
841,0.12538427529206167,0
842,0.01577768804269155,0
843,0.05333217232186397,0
844,0.11543548662391723,0
845,0.03674362926425642,0
846,-0.04316271534102553,0
847,0.05493474562084719,0
848,0.0407436762119664,0
849,0.004670871673260529,0
850,0.283946399940932,0
851,4.785861661815711,0
852,4.731869281392827,0
853,-2.939917706472557,0
854,1.5970204269812034,0
855,-0.7436480159812958,0
856,0.30970075232730615,0
857,-0.002850071517030539,0
858,0.10563619275079869,0
859,0.06028074819951416,0
860,-0.02159750313571825,0
861,0.03504476986767828,0
862,-0.02215522512223376,0
863,0.05795568376312221,0
864,0.022545422877675254,0
865,-0.01757986568269992,0
866,0.013831400806126829,0
867,1.0757346158415646,0
868,6.484397960308273,0
869,1.1560470801908889,0
870,-1.8126305198071493,0
871,1.13796785650921,0
872,-0.6413288603930182,0
873,0.2732332113619547,0
874,-0.03980851406022309,0
875,0.0171078689171238,0
876,-0.04019175745478412,0
877,0.05792788228852339,0
878,-0.04225324893627699,0
879,0.06011115759312153,0
880,-0.08812715859317095,0
881,-0.007533562213268823,0
882,0.039967756213214925,0
883,0.09149072921225437,0
884,2.7142708414975845,0
885,6.781151174495965,0
886,-2.1330781955211187,0
887,0.40015406541122445,0
888,0.054419052957312704,0
889,-0.07464681606581834,0
890,0.012439664255360836,0
891,-0.013700305125658485,0
892,0.0027010037745344335,0
893,-0.05096308812422409,0
894,-0.11057482877670291,0
895,-0.05634339725303712,0
896,0.0002383170259874466,0
897,-0.0050987544652320894,0
898,-0.05858365635271964,0
899,0.09709911582567038,0
900,0.32139807470374787,0
901,4.823467575664846,0
902,4.585640476905812,0
903,-3.02294549962017,0
904,1.4953050401553512,0
905,-0.7699433027728979,0
906,0.26581832542103545,0
907,-0.16280583335754054,0
908,0.004372799872197503,0
909,-0.00802878916463089,0
910,-0.02932418251690522,0
911,-0.07233131085833841,0
912,-0.059501037152504585,0
913,-0.009519537500241267,0
914,-0.03680279596997623,0
915,0.02179569275745262,0
916,-0.06220946623632466,0
917,1.027799151024125,0
918,6.594220146864447,0
919,1.0444029227636666,0
920,-1.73887255440737,0
921,1.0842866234016888,0
922,-0.6085057304991984,0
923,0.2252765137747945,0
924,-0.040221206807161056,0
925,-0.003491623068022349,0
926,-0.07845748919169582,0
927,0.06519926614046065,0
928,-0.09273449707839931,0
929,-0.03183482239285416,0
930,0.041642240425466666,0
931,-0.016548684804697775,0
932,0.044735892093713786,0
933,0.06525391739684085,0
934,2.678284726985096,0
935,6.746682479283824,0
936,-2.1288219341287657,0
937,0.37994317338593125,0
938,0.07407996747753137,0
939,-0.06228968797576808,0
940,-0.009355892432818109,0
941,-0.014654934738587522,0
942,0.019562771408089753,0
943,-0.09414570486824209,0
944,-0.03425546116636511,0
945,0.025324164440990605,0
946,0.0017635614407337948,0
947,-0.013831308577816571,0
948,0.02971346294851876,0
949,-0.04538861904058293,0
950,0.2358305224013782,0
951,4.9391040589265245,0
952,4.626506165785276,0
953,-3.0116295072490753,0
954,1.564153997972593,0
955,-0.8039023929082678,0
956,0.30678748136441375,0
957,-0.14013519955908157,0
958,-0.0502769585920252,0
959,-0.09103091267623357,0
960,0.05446540064764667,0
961,0.07101219390212597,0
962,-0.04382278955463996,0
963,-0.0689358143441969,0
964,-7.563165890454512e-06,0
965,-0.02433100438855756,0
966,0.014080624181984382,0
967,1.170088102762034,0
968,6.693574479205649,0
969,1.133254599716184,0
970,-1.7087197643098448,0
971,1.121026359626555,0
972,-0.510505191117248,0
973,0.259083616879844,0
974,-0.06428814164517188,0
975,0.09255823570552314,0
976,-0.05185693287879507,0
977,-0.018464810397846896,0
978,-0.0458916448617003,0
979,0.010437453711282386,0
980,-0.03566257059191648,0
981,-0.061810170194549874,0
982,-0.13553642920579145,0
983,-0.019872976645349726,0
984,2.759603167845571,0
985,6.737687679186339,0
986,-2.132655110008955,0
987,0.4069812512710296,0
988,0.08286183016460724,0
989,-0.1450969862835372,0
990,-0.057140451543424224,0
991,0.08106007923080522,0
992,-0.052481221820386004,0
993,-0.0759496563649145,0
994,0.01603073928623789,0
995,0.021302853182670042,0
996,0.008153682254781927,0
997,-0.059114859199930245,0
998,-0.052271577938762,0
999,-0.08144908644592845,0
1000,0.3622682464328051,0
1001,4.875233716874899,0
1002,4.612268020371926,0
1003,-3.061218700522573,0
1004,1.6822826841972587,0
1005,-0.8803251078056482,0
1006,0.2604533759893416,0
1007,-0.061721259087932294,0
1008,0.013535894451205543,0
1009,-0.07933224892923899,0
1010,0.0431470342013277,0
1011,0.01884584339300165,0
1012,0.06198446780355813,0
1013,0.007885595317242231,0
1014,0.014127676636225255,0
1015,-0.035101381377889956,0
1016,0.013847977058908476,0
1017,1.1587270687822848,0
1018,6.4704756034374995,0
1019,1.080755274452727,0
1020,-1.7704976018229155,0
1021,1.0406042352494245,0
1022,-0.615355952237473,0
1023,0.31376103344378004,0
1024,-0.16297289828889888,0
1025,0.06384159706536849,0
1026,0.03331642768212866,0
1027,0.03863901849918041,0
1028,0.15736324048136366,0
1029,0.12053584792600407,0
1030,-0.01655962714792964,0
1031,0.0006529538923172387,0
1032,-0.009465532607608247,0
1033,0.08712245696542317,0
1034,2.7358570019474904,0
1035,6.747116095199879,0
1036,-2.136171001961977,0
1037,0.45748429591267065,0
1038,0.003540570772409662,0
1039,-0.08356909180530848,0
1040,-0.019622683976499185,0
1041,-0.07901652523936513,0
1042,0.05916059666555981,0
1043,-0.07625856293802838,0
1044,0.020401114314235476,0
1045,-0.07123152478896465,0
1046,-0.08849905565200222,0
1047,0.07988470245532614,0
1048,0.02335453400967018,0
1049,-0.0350543184308619,0
1050,0.28220891522662256,0
1051,4.796704088011318,0
1052,4.583567807113379,0
1053,-2.990392891289414,0
1054,1.6446779729257088,0
1055,-0.7402927155935997,0
1056,0.3918395990599462,0
1057,-0.16559290304033297,0
1058,0.08147891251581477,0
1059,-0.028396704904068253,0
1060,-0.031143084023227546,0
1061,0.0743268507470335,0
1062,0.0925198496130253,0
1063,0.08958979697142595,0
1064,-0.009190073459308704,0
1065,-0.01057656546617363,0
1066,0.1172017394638308,0
1067,1.0816839536676235,0
1068,6.5092706896585595,0
1069,1.0647589252689436,0
1070,-1.6593031225857608,0
1071,1.0844880582179104,0
1072,-0.6309817485423364,0
1073,0.32139045232885893,0
1074,-0.02900977138012016,0
1075,0.026675267861258116,0
1076,0.03330787593516555,0
1077,-0.0619225756003073,0
1078,0.015903311915551423,0
1079,0.04077142389655631,0
1080,-0.012567379389121159,0
1081,-0.0313904595471162,0
1082,-0.02063491834034925,0
1083,0.044988605966828764,0
1084,2.7469196742629522,0
1085,6.764440221344521,0
1086,-2.1217977168606463,0
1087,0.4695961581854975,0
1088,0.008263554162946007,0
1089,-0.051745897443928476,0
1090,-0.002732279083191778,0
1091,-0.03323085369473787,0
1092,-0.02843108945062179,0
1093,-0.02903509856943533,0
1094,-0.08248797765302918,0
1095,-0.012676454321911564,0
1096,-0.04030535268631469,0
1097,-0.013671321803281719,0
1098,-0.06299971948430846,0
1099,-0.09782162844779146,0
1100,0.29850573556959403,0
1101,4.845466192045891,0
1102,4.426948888035562,0
1103,-2.970885253807125,0
1104,1.58797902398813,0
1105,-0.7256215316285078,0
1106,0.30633077965211575,0
1107,-0.17391729823432148,0
1108,-0.007259261567246995,0
1109,-0.08756313061228353,0
1110,0.07619127639943611,0
1111,-0.035820824410944474,0
1112,-0.04393007751047236,0
1113,0.01900203221284064,0
1114,0.051611462715698914,0
1115,0.021705261126701528,0
1116,-0.02431981732293514,0
1117,1.1921466039104696,0
1118,6.606498130832059,0
1119,0.9633815511037037,0
1120,-1.7082490456653303,0
1121,1.1514598938778857,0
1122,-0.5195015800548299,0
1123,0.10283284746431633,0
1124,-0.05605585352084247,0
1125,-0.021244045819591988,0
1126,-0.08871088485620915,0
1127,0.020377722243878356,0
1128,-0.07483031463466701,0
1129,-0.013124366419779189,0
1130,-0.07640795533800922,0
1131,-0.18192078291549085,0
1132,0.0025913214736076745,0
1133,0.04347325635247601,0
1134,2.7249195039746343,0
1135,6.66691108541776,0
1136,-2.233322996371424,0
1137,0.4151335541010943,0
1138,-0.12284201980638813,0
1139,-0.05917880115451325,0
1140,-0.052896793985045674,0
1141,-0.05777196597272864,0
1142,-0.06602629829576893,0
1143,-0.04400884882350944,0
1144,-0.04585700234117223,0
1145,-0.038240122519972636,0
1146,0.04153955352621042,0
1147,0.08192233889620287,0
1148,0.01848370331441361,0
1149,-0.06441917960156741,0
1150,0.25137722406399154,0
1151,4.8095700257623095,0
1152,4.595308350782782,0
1153,-3.034339841573798,0
1154,1.483261247533959,0
1155,-0.8677898605246959,0
1156,0.2997867252762523,0
1157,-0.1603998130717916,0
1158,-0.03230292782869673,0
1159,-0.06360240335495111,0
1160,-0.10823586047245655,0
1161,-0.06008802780666214,0
1162,0.010027066144778364,0
1163,-0.00883900733849674,0
1164,-0.1063218358388121,0
1165,-0.05401777580490942,0
1166,-0.05796800161601908,0
1167,1.0676161521095433,0
1168,6.478071041524592,0
1169,0.8324293266874407,0
1170,-1.611660363453897,0
1171,1.0075871406271477,0
1172,-0.5966239163597095,0
1173,0.20250034142397502,0
1174,-0.20518657958518138,0
1175,0.06550546733334456,0
1176,-0.0927713509470134,0
1177,-0.13408997704885683,0
1178,-0.05111432752364514,0
1179,-0.08035630169216013,0
1180,-0.027843212900812594,0
1181,-0.04182267936713946,0
1182,-0.04163097235400198,0
1183,0.034287704013974615,0
1184,2.7018432423925183,0
1185,6.81325807758464,0
1186,-2.166001463808981,0
1187,0.40020026928804814,0
1188,-0.1148116805291208,0
1189,-0.06587769761141847,0
1190,-0.10712589524804501,0
1191,-0.011845591616117562,0
1192,-0.05779635390081204,0
1193,-0.00017684076678772115,0
1194,-0.07989450377357758,0
1195,0.036619737081652344,0
1196,-0.11968278526161667,0
1197,0.002075499476759418,0
1198,-0.015309141918440829,0
1199,-0.04394314176279703,0
1200,0.3005353416817518,0
1201,4.845163247526157,0
1202,4.472619180031376,0
1203,-2.9999829338270967,0
1204,1.487200173940278,0
1205,-0.8032488978128292,0
1206,0.24386151092040725,0
1207,-0.16832599110656707,0
1208,-0.04147751006406045,0
1209,-3.4494507206647707e-05,0
1210,0.0758251177162702,0
1211,-0.03421811342625862,0
1212,0.015555300234209896,0
1213,-0.09973796689851887,0
1214,-0.1238646670170938,0
1215,-0.07344689051898154,0
1216,-0.15461216427575927,0
1217,1.1789881185219815,0
1218,6.6002581718856375,0
1219,0.936223313296426,0
1220,-1.5696628141872149,0
1221,1.0924541116785793,0
1222,-0.6687578032095786,0
1223,0.1681178691531473,0
1224,-0.1575204494717697,0
1225,0.11886117746455069,0
1226,0.008461847448976528,0
1227,-0.0753320185941281,0
1228,-0.013097221537247853,0
1229,-0.009663634066780962,0
1230,-0.0569586803057606,0
1231,-0.050451201491907106,0
1232,0.017252282848932397,0
1233,-0.029926119259454778,0
1234,2.7604620994088163,0
1235,6.738494318074072,0
1236,-2.161291056911072,0
1237,0.48687475675373293,0
1238,-0.1293935733616588,0
1239,-0.09259978432771766,0
1240,-0.13539654786751956,0
1241,0.01414664531590875,0
1242,-0.057822892662755324,0
1243,-0.05964330748784462,0
1244,0.015510414602468034,0
1245,-0.05348241782532302,0
1246,-0.020499962955705178,0
1247,-0.022132291880217314,0
1248,0.005228423439523094,0
1249,-0.0025651000685397163,0
1250,0.3034088302326316,0
1251,4.8901666168767575,0
1252,4.4357024108961784,0
1253,-3.0012820349149076,0
1254,1.5691120858801209,0
1255,-0.8069919593722291,0
1256,0.31227718776983754,0
1257,-0.20819282346128876,0
1258,-0.03142114224206023,0
1259,-0.03962024388770546,0
1260,0.12108640193712494,0
1261,0.0031550541244189066,0
1262,-0.04990565841213947,0
1263,0.013009076794401745,0
1264,0.02780553060937023,0
1265,-0.03978640183698587,0
1266,0.03262413843248685,0
1267,1.2145460918927398,0
1268,6.7000711973239975,0
1269,0.9913419921043585,0
1270,-1.6413965901467238,0
1271,1.057078242455288,0
1272,-0.5513701021537836,0
1273,0.21656189896528047,0
1274,-0.02122781219861969,0
1275,-0.08517836890287538,0
1276,0.00702635974439951,0
1277,-0.07695465188966516,0
1278,0.06542912697015825,0
1279,-0.004639213787929749,0
1280,-0.017820903037861685,0
1281,0.0030086242938680476,0
1282,0.020996901239899536,0
1283,0.1370301830377948,0
1284,2.785934411377834,0
1285,6.670592247764385,0
1286,-2.1978750802874725,0
1287,0.5037509197775217,0
1288,0.07139995922487406,0
1289,-0.006614852621483827,0
1290,0.012945664981104587,0
1291,-0.07337777061225521,0
1292,0.014496125553141184,0
1293,0.0132205616335887,0
1294,-0.03701578375679464,0
1295,-0.09164109255468433,0
1296,0.006942881220459034,0
1297,-0.01815241877620073,0
1298,-0.03528677957534063,0
1299,0.05577376747336222,0
1300,0.3243216692017128,0
1301,4.945520500160229,0
1302,4.4662861933775,0
1303,-3.0139712471594127,0
1304,1.5004883509129896,0
1305,-0.762432646728062,0
1306,0.32099254685944306,0
1307,-0.09238596162697504,0
1308,-0.017367297154532738,0
1309,0.007639259609287569,0
1310,0.06649298476694587,0
1311,0.08402582188377665,0
1312,0.015159010284252032,0
1313,0.004229645882430044,0
1314,0.023876931153004374,0
1315,-0.02225385889738959,0
1316,-0.03569397673054846,0
1317,1.184457417512477,0
1318,6.727580036984003,0
1319,0.8728859824733032,0
1320,-1.600626844854921,0
1321,1.0694757939319406,0
1322,-0.5713752391198875,0
1323,0.17524753546943048,0
1324,-0.16153832181367317,0
1325,0.012920960557473406,0
1326,0.00850877349260442,0
1327,-0.08488042199255366,0
1328,-0.018800134868995476,0
1329,0.019844207964402102,0
1330,-0.0036594008702986666,0
1331,0.02980794901774257,0
1332,-0.1002535254812068,0
1333,0.06042052905620229,0
1334,2.9372511867603306,0
1335,6.619558944161776,0
1336,-2.1819309510167804,0
1337,0.5287262712256998,0
1338,-0.09386216929578833,0
1339,-0.014175666619202922,0
1340,0.007071034951547789,0
1341,-0.05283780072933001,0
1342,0.03881384493712397,0
1343,0.024312216960614676,0
1344,0.027040807059615136,0
1345,0.05451763848513048,0
1346,0.06452728987440348,0
1347,-0.0829443822545177,0
1348,-0.09663989538686402,0
1349,-0.05703395054525038,0
1350,0.3553267433206793,0
1351,4.933953139391965,0
1352,4.358777494085488,0
1353,-3.000368758744806,0
1354,1.5623526337636315,0
1355,-0.8577267822879224,0
1356,0.25582709154364636,0
1357,-0.12832891793797832,0
1358,0.005733203418630551,0
1359,-0.10410609335110636,0
1360,-0.010492294986215622,0
1361,-0.017223329289531554,0
1362,-0.03584396803515533,0
1363,-0.1142600812830217,0
1364,-0.0009290189500464306,0
1365,-0.0025429583432126333,0
1366,0.02033385266470513,0
1367,1.2431141385237265,0
1368,6.64824426243519,0
1369,0.7868444270582811,0
1370,-1.7204747142269625,0
1371,1.1201827026093862,0
1372,-0.5810464314435992,0
1373,0.21553532093863392,0
1374,-0.1561583331951072,0
1375,-0.01752711947564136,0
1376,0.015360777751484846,0
1377,-0.030712069591843517,0
1378,0.018975414563715258,0
1379,-0.07831283998031376,0
1380,-0.00589365287927953,0
1381,-0.11939586120187828,0
1382,-0.07038315337016557,0
1383,-0.05102557376867169,0
1384,2.804047227093539,0
1385,6.670429388230907,0
1386,-2.2581845880263205,0
1387,0.496293526817198,0
1388,0.022662396797075948,0
1389,-0.023756325927083932,0
1390,-0.009082910330245025,0
1391,-0.09940434561649186,0
1392,-0.008508031799790795,0
1393,-0.1001127897067674,0
1394,-0.0538596201624828,0
1395,-0.14383003607987355,0
1396,-0.12390746854466486,0
1397,-0.04150853957696996,0
1398,0.03650936579551333,0
1399,0.017667522956513575,0
1400,0.2596984240907523,0
1401,4.872321444103596,0
1402,4.440724408463867,0
1403,-2.966614116810794,0
1404,1.5154437090596797,0
1405,-0.8278039328364868,0
1406,0.23370393150491714,0
1407,-0.2390438757491374,0
1408,-0.06842547949318745,0
1409,-0.06312655342391787,0
1410,-0.09760384818937731,0
1411,0.03678148475620373,0
1412,-0.08441039872660046,0
1413,-0.046858956580413655,0
1414,-0.1390480951355179,0
1415,-0.11579779943203787,0
1416,-0.13850055286815335,0
1417,1.035544800187179,0
1418,6.487068452272795,0
1419,0.8285599974254673,0
1420,-1.6183576854887427,0
1421,0.960121339265701,0
1422,-0.6280679357884088,0
1423,0.13494750738416783,0
1424,-0.10960326131383145,0
1425,-0.09908389483769944,0
1426,-0.1300854735824209,0
1427,-0.04913073535253204,0
1428,-0.12549905939484965,0
1429,-0.08755144932904371,0
1430,-0.10674075246818236,0
1431,-0.0014230840739626327,0
1432,-0.05182145501116887,0
1433,-0.008580251155017548,0
1434,2.6886383034877914,0
1435,6.626511107968084,0
1436,-2.305858543653121,0
1437,0.4691404750957899,0
1438,-0.15993546475039977,0
1439,-0.004466835401174263,0
1440,-0.0819634846486853,0
1441,-0.04641430436011178,0
1442,-0.10877270764419913,0
1443,-0.05875199986411821,0
1444,-0.021474589203974374,0
1445,-0.07543110698360941,0
1446,-0.03078284342386354,0
1447,-0.06575093378500386,0
1448,-0.04277253728740919,0
1449,-0.031231907244344388,0
1450,0.266039962404847,0
1451,4.807005229186193,0
1452,4.3409033693345,0
1453,-3.109708517362268,0
1454,1.485567166488428,0
1455,-0.817647676857494,0
1456,0.2550104788397163,0
1457,-0.16011526388625816,0
1458,-0.0815973044597286,0
1459,-0.0152330592732174,0
1460,-0.10669019593024287,0
1461,-0.05157415429065498,0
1462,-0.1603423109466241,0
1463,-0.05454155977839063,0
1464,-0.02954110767008307,0
1465,-0.01740164547022014,0
1466,-0.11911593613913402,0
1467,1.1817558539859405,0
1468,6.685713434666358,0
1469,0.7120073324778092,0
1470,-1.6693349408173814,0
1471,1.093074397067176,0
1472,-0.6969361241976151,0
1473,0.1360803847444259,0
1474,-0.17027619876763053,0
1475,0.03469937569971025,0
1476,-0.1618649608551982,0
1477,-0.08301205678501034,0
1478,-0.04917166663707434,0
1479,-0.017759415930097243,0
1480,-0.06499446199613279,0
1481,0.1164205915181181,0
1482,-0.06804469743196978,0
1483,-0.04915775493083785,0
1484,2.790210117776738,0
1485,6.671865876060622,0
1486,-2.180436720962465,0
1487,0.5537918576294883,0
1488,-0.1400790052353214,0
1489,0.006383506553074203,0
1490,0.004576879239065691,0
1491,-0.010828162760662997,0
1492,0.026543814637665034,0
1493,0.01300202994807351,0
1494,-0.0010530719557158643,0
1495,-0.046943018326280506,0
1496,-0.031903606295458034,0
1497,-0.04755195667803897,0
1498,0.03693087380603987,0
1499,0.02799167016177748,0
1500,0.3218556530650257,0
1501,4.973204264128766,0
1502,4.40514908956373,0
1503,-3.059640456982486,0
1504,1.5371749122094818,0
1505,-0.7720240135438836,0
1506,0.1669340216352505,0
1507,-0.22227218498910037,0
1508,-0.06981789655033419,0
1509,-0.057221536785475646,0
1510,-0.15599926028301853,0
1511,-0.1110569998699788,0
1512,0.01382905089079979,0
1513,-0.050804340696850386,0
1514,0.03685589640340846,0
1515,0.0063328942588926854,0
1516,0.012132621225222084,0
1517,1.1696151978615885,0
1518,6.776873374587314,0
1519,0.8902326898235325,0
1520,-1.5180055528450234,0
1521,1.1335157665822424,0
1522,-0.4634702311406796,0
1523,0.1932941675521182,0
1524,-0.050318556970426434,0
1525,0.0803492336720428,0
1526,-0.01347215035302727,0
1527,-0.006768266377498146,0
1528,-0.009496351896194872,0
1529,-0.05165069127108929,0
1530,0.07404931117022534,0
1531,-0.014567815656181739,0
1532,-0.0269792364610225,0
1533,0.07766723542785235,0
1534,2.809495778495379,0
1535,6.605978169346993,0
1536,-2.2396362759181665,0
1537,0.4009564796391288,0
1538,-0.10822842242074675,0
1539,-0.09982568963203266,0
1540,-0.008265154421006178,0
1541,-0.03307684362849954,0
1542,-0.10050422624128044,0
1543,0.00039823574914737286,0
1544,0.018083169576265296,0
1545,-0.07298868932845434,0
1546,-0.06517132611678098,0
1547,-0.008776213052635533,0
1548,-0.16850053057705028,0
1549,-0.10318950531568735,0
1550,0.3404138925760737,0
1551,5.0149882525131675,0
1552,4.3086669244712255,0
1553,-2.9852223091543197,0
1554,1.5479473286635315,0
1555,-0.826816666833257,0
1556,0.25312677701410785,0
1557,-0.2206614906509777,0
1558,-0.05796752527477159,0
1559,0.009328246721893113,0
1560,-0.0020560992333256978,0
1561,-0.01862759693378513,0
1562,-0.02120492562220634,0
1563,-0.028423395441126882,0
1564,-0.053695366882220846,0
1565,0.03516400890907458,0
1566,-0.07901034232909152,0
1567,1.0915371964574567,0
1568,6.61742574767817,0
1569,0.8130164755096818,0
1570,-1.594502675831715,0
1571,1.0849301258032227,0
1572,-0.6021783910720795,0
1573,0.24945790207714752,0
1574,-0.06499237505967267,0
1575,-0.0887962701799904,0
1576,-0.09763665973651049,0
1577,-0.11898818322361132,0
1578,-0.00933503175972588,0
1579,-0.024714815735092897,0
1580,-0.1748432965144064,0
1581,-0.057721160737279315,0
1582,-0.09751507134716271,0
1583,0.0767148064772814,0
1584,2.7178867814592564,0
1585,6.6626474315473905,0
1586,-2.3762444824178286,0
1587,0.49109368589285973,0
1588,-0.1353060294252667,0
1589,-0.15041863906059003,0
1590,-0.07651105701077485,0
1591,-0.016393916174205145,0
1592,-0.019460659902545877,0
1593,-0.1127371512853371,0
1594,-0.044652937563349135,0
1595,-0.15360130789409715,0
1596,-0.06806561490068683,0
1597,-0.12680464356225174,0
1598,-0.09715624739836294,0
1599,-0.07482363177713225,0
1600,0.33014971738191423,0
1601,4.962503840260382,0
1602,4.325401537068888,0
1603,-3.063120314199816,0
1604,1.51404687550399,0
1605,-0.8088661404694119,0
1606,0.22359755761295838,0
1607,-0.21432844646494884,0
1608,0.023799258698371434,0
1609,-0.09286743738712255,0
1610,-0.06443155889825683,0
1611,-0.06413738173141331,0
1612,-0.04425920506331752,0
1613,-0.081893864687444,0
1614,-0.12867676202089978,0
1615,-0.049268464541131825,0
1616,-0.096431524295139,0
1617,1.0608525292695123,0
1618,6.531998602105381,0
1619,0.6542314662475381,0
1620,-1.662083015898383,0
1621,0.9264339561967675,0
1622,-0.6618465522881244,0
1623,0.08930310842428452,0
1624,-0.268475567926084,0
1625,-0.11391442844223751,0
1626,-0.12614235141888366,0
1627,-0.11860745520393104,0
1628,-0.09226961726406827,0
1629,-0.1373133704463449,0
1630,-0.06027860771122201,0
1631,-0.0546883258254649,0
1632,-0.031048796892926396,0
1633,0.00893363636899041,0
1634,2.7935944418815466,0
1635,6.608863766879454,0
1636,-2.362095543238693,0
1637,0.5293805637214309,0
1638,-0.1939447847956085,0
1639,-0.13285998734381688,0
1640,-0.1101282493248156,0
1641,-0.0829812729362634,0
1642,-0.08385012777666088,0
1643,-0.08330472736524772,0
1644,-0.08605641693499146,0
1645,-0.007828670209858349,0
1646,-0.047531225317264975,0
1647,0.016876731074290344,0
1648,-0.18482595187853557,0
1649,-0.08825703596099277,0
1650,0.26480924874657896,0
1651,4.939064547870466,0
1652,4.180966466218484,0
1653,-3.04790229572726,0
1654,1.5174885314511235,0
1655,-0.9003812582713187,0
1656,0.30736919129571433,0
1657,-0.1590156902648303,0
1658,-0.10846850480312117,0
1659,-0.07651139627932574,0
1660,-0.13971898274120736,0
1661,-0.05382989514556204,0
1662,-0.11147131355568254,0
1663,-0.020886579642236322,0
1664,-0.13083245372023872,0
1665,-0.03980331368863302,0
1666,-0.14753403962906414,0
1667,1.2058292196895626,0
1668,6.73072909641874,0
1669,0.7473572382596553,0
1670,-1.555755422001642,0
1671,0.9354474944497904,0
1672,-0.6257580006367895,0
1673,0.12862990748982947,0
1674,-0.15489006859294663,0
1675,-0.035096350256201385,0
1676,-0.07798656054216015,0
1677,-0.009034104915435284,0
1678,-0.13694332649965482,0
1679,-0.05446072670353863,0
1680,-0.0656433101358067,0
1681,-0.09766822904154968,0
1682,-0.01270037760881431,0
1683,0.013768675039698267,0
1684,2.891449714113459,0
1685,6.484980528853224,0
1686,-2.387364659783275,0
1687,0.6091567052450021,0
1688,-0.09958643096846653,0
1689,-0.07173643195919101,0
1690,-0.04474267491027799,0
1691,-0.04505103196061136,0
1692,-0.05924715566132215,0
1693,-0.11304654510221085,0
1694,-0.004083574587339496,0
1695,-0.08974079087794226,0
1696,-0.031959119894249315,0
1697,0.09923403063080417,0
1698,-0.0007445732687177513,0
1699,-0.0894515296089842,0
1700,0.34262510212141173,0
1701,4.983729835644617,0
1702,4.375906005275032,0
1703,-3.025839619032486,0
1704,1.5660857339858167,0
1705,-0.8598201068115445,0
1706,0.3784035015778931,0
1707,-0.10481863807776104,0
1708,0.09357335353705454,0
1709,-0.07364082728230252,0
1710,-0.004321879662165473,0
1711,-0.02943819982353814,0
1712,0.012569684920708039,0
1713,0.006957326658077576,0
1714,0.008936313891729214,0
1715,0.04894248829256431,0
1716,-0.0553583921939958,0
1717,1.2423759154809997,0
1718,6.653083622116209,0
1719,0.7058793937080359,0
1720,-1.6205598904695466,0
1721,1.0152993248873643,0
1722,-0.5346831185584227,0
1723,0.2501451241029411,0
1724,-0.13756915663009,0
1725,-0.002956433450375561,0
1726,0.07840851161162757,0
1727,0.060381451386771576,0
1728,-0.005835902694507813,0
1729,0.06955267010972566,0
1730,0.12599627173703123,0
1731,0.046929827702172286,0
1732,0.1270476593119459,0
1733,0.18565276729932567,0
1734,2.8984162044465416,0
1735,6.661968153796917,0
1736,-2.31879432747486,0
1737,0.5922064941255085,0
1738,-0.1377256085495282,0
1739,0.07592813950595226,0
1740,0.023627459568440142,0
1741,-0.0046864396486186385,0
1742,-0.04004618685717631,0
1743,0.07604964832539675,0
1744,-0.016991954387316904,0
1745,-0.0175490560374814,0
1746,0.08567631015770893,0
1747,0.0550635677770859,0
1748,0.00939690601606468,0
1749,0.050441277510982915,0
1750,0.3627898635199494,0
1751,5.050633312490506,0
1752,4.353093760049736,0
1753,-2.949899292183668,0
1754,1.5990658606789727,0
1755,-0.6745097249191453,0
1756,0.2690939846479493,0
1757,-0.07529624270322706,0
1758,0.013525765811687532,0
1759,-0.023506592711892503,0
1760,0.14690981367691264,0
1761,0.03870515904622988,0
1762,-0.04980377862957426,0
1763,-0.03582345802927761,0
1764,0.08298636533249182,0
1765,0.09920985898464839,0
1766,0.1573819220299294,0
1767,1.2289386101811608,0
1768,6.836011561285659,0
1769,0.775961187669852,0
1770,-1.4888707192416242,0
1771,0.9740519169101336,0
1772,-0.4653788928007726,0
1773,0.20608134972659223,0
1774,-0.05582807341566811,0
1775,0.022828299877488474,0
1776,0.012368503628555174,0
1777,0.01185701481458165,0
1778,-0.012121407294793132,0
1779,0.04733924673399691,0
1780,-0.06612446171572406,0
1781,-0.06059269909882871,0
1782,0.04869279434148038,0
1783,0.03225700624699598,0
1784,2.9515845400924987,0
1785,6.681020314468904,0
1786,-2.2720667423610292,0
1787,0.6280837545570148,0
1788,-0.10168306901112888,0
1789,0.026482598303360107,0
1790,0.03730188642615434,0
1791,0.02671310162449783,0
1792,0.08236539337786786,0
1793,-0.017598164220553384,0
1794,0.008048745981733949,0
1795,0.12079704641336367,0
1796,-0.009661542746024408,0
1797,-0.10350758014468989,0
1798,-0.05389598086617477,0
1799,0.04767040783546164,0
1800,0.41477655634848476,0
1801,4.982542033496611,0
1802,4.290238267170647,0
1803,-2.973322957462208,0
1804,1.644725414663127,0
1805,-0.8072221939575833,0
1806,0.25039875349735324,0
1807,-0.19117726818109146,0
1808,-0.028299989613900907,0
1809,-0.0028720632476919652,0
1810,0.07609475270195952,0
1811,-0.1211512946242791,0
1812,-0.034249247918624576,0
1813,0.03498129768365929,0
1814,-0.032848354689251784,0
1815,-0.03746737954938645,0
1816,0.038048501585592726,0
1817,1.2914988522103983,0
1818,6.737692783215585,0
1819,0.6673529492547232,0
1820,-1.4798599602788878,0
1821,0.9244975485915572,0
1822,-0.6204504523645155,0
1823,0.247326547935759,0
1824,-0.11629631505227372,0
1825,0.01978054755267302,0
1826,-0.03436388145626893,0
1827,-0.08397611356248895,0
1828,-0.07969837814268196,0
1829,-0.0743016946467187,0
1830,0.009447441916463389,0
1831,-0.03943024111195688,0
1832,-0.034566725808134025,0
1833,-0.016147017924519724,0
1834,3.010002029154983,0
1835,6.651633633556562,0
1836,-2.355343289223017,0
1837,0.582391468060809,0
1838,-0.12931076924967475,0
1839,-0.05147993938604176,0
1840,-0.05814948373576401,0
1841,0.0034853861714894754,0
1842,-0.04192775439681229,0
1843,-0.07146558647089546,0
1844,-0.02595568062600019,0
1845,-0.01920833361917312,0
1846,-0.051608355900381035,0
1847,0.007471796636087134,0
1848,0.05687357972045577,0
1849,-0.0958171876599678,0
1850,0.320945721757179,0
1851,5.010979220263176,0
1852,4.196788443235561,0
1853,-2.8575261697534793,0
1854,1.5260312504041236,0
1855,-0.8391446485164697,0
1856,0.30313563672282645,0
1857,-0.05006625121243395,0
1858,0.09740063163306126,0
1859,-0.048966775188986775,0
1860,0.014189329193621833,0
1861,-0.013848130108845225,0
1862,0.010708838872165215,0
1863,-0.05873602068531683,0
1864,0.006798055223814839,0
1865,-0.0982377809876124,0
1866,-0.02828882392259073,0
1867,1.2501641064202118,0
1868,6.738038331331857,0
1869,0.5545117600495877,0
1870,-1.556531400482015,0
1871,0.9302821768171377,0
1872,-0.5993619936172659,0
1873,0.2148823032849838,0
1874,-0.148294586729859,0
1875,-0.013786179030657056,0
1876,-0.022993387915505446,0
1877,-0.10991392597221847,0
1878,-0.12288354562070392,0
1879,-0.014990448364146529,0
1880,-0.03239768366518166,0
1881,-0.024102694486951435,0
1882,-0.07811573109344513,0
1883,0.02744224176863406,0
1884,2.9753017829622275,0
1885,6.582306401288086,0
1886,-2.416641627933759,0
1887,0.6618041818844566,0
1888,-0.18801266990038562,0
1889,0.008464279145045897,0
1890,-0.0328766248906678,0
1891,-0.035760222050876325,0
1892,-0.012698457633115875,0
1893,-0.0400513418957298,0
1894,0.03473771927324805,0
1895,0.01423387446348641,0
1896,-0.08962716583332819,0
1897,0.11257703803340749,0
1898,0.03851115163124436,0
1899,-0.09351126319529371,0
1900,0.31251831969658256,0
1901,5.095245442268685,0
1902,4.184902679521583,0
1903,-2.8901912400597225,0
1904,1.543400086053039,0
1905,-0.8225252376851104,0
1906,0.287040787457451,0
1907,-0.07424389048902083,0
1908,0.06222141329769388,0
1909,0.016549425898442667,0
1910,-0.0065523803028045315,0
1911,-0.06050442923611521,0
1912,0.033970663988805494,0
1913,-0.10067384410029215,0
1914,0.06028598046842341,0
1915,-0.03001542129588875,0
1916,0.08304499182848708,0
1917,1.2538449268809562,0
1918,6.6487401162749515,0
1919,0.6070805486956945,0
1920,-1.492251841679602,0
1921,0.9391255877971686,0
1922,-0.5725529642710864,0
1923,0.12241076050598447,0
1924,-0.07511505389991358,0
1925,-0.024564255020160464,0
1926,-0.1707659049140393,0
1927,-0.05785649946591229,0
1928,-0.16522435632136248,0
1929,-0.07935313422860436,0
1930,-0.11828835824334565,0
1931,-0.0028424066579215562,0
1932,-0.13182488399419715,0
1933,-0.057626159648140135,0
1934,3.0226641022692746,0
1935,6.519964689466546,0
1936,-2.507554021617704,0
1937,0.7074269049035732,0
1938,-0.2798333662746499,0
1939,-0.05118746801102626,0
1940,-0.16103086376260323,0
1941,-0.01925807629796121,0
1942,-0.10193602212657624,0
1943,-0.03719577693438808,0
1944,-0.06561614279912525,0
1945,0.008786572641483668,0
1946,-0.02031984540607242,0
1947,-0.02705605437023226,0
1948,-0.015078131970011979,0
1949,0.0007577370696102972,0
1950,0.3878473328999078,0
1951,5.130560800782134,0
1952,4.276288560554336,0
1953,-2.9422202609162365,0
1954,1.6345279051681845,0
1955,-0.7056332934020576,0
1956,0.39396715307477004,0
1957,-0.0206783201530066,0
1958,0.019309106449168834,0
1959,0.03342904045486153,0
1960,0.008667827987629495,0
1961,0.05652686552683668,0
1962,0.0157800033563618,0
1963,0.09124217989143728,0
1964,0.02245266052452584,0
1965,0.06751079800155474,0
1966,0.004747005383194492,0
1967,1.2884240325524783,0
1968,6.768011499582492,0
1969,0.6290689787598379,0
1970,-1.4442033028784207,0
1971,0.9533867910477529,0
1972,-0.5284087744487921,0
1973,0.17650004542746556,0
1974,0.005233507252792591,0
1975,0.03681092112184342,0
1976,-0.0061173370311608695,0
1977,0.008378912825193182,0
1978,0.04089323424202293,0
1979,-0.03281957850395424,0
1980,0.0037470206189260113,0
1981,0.06656050634741045,0
1982,0.06160611744426448,0
1983,0.05707771131112607,0
1984,3.0085243388863527,0
1985,6.6030939512531175,0
1986,-2.359860492946491,0
1987,0.7135845653091508,0
1988,-0.10481948424350092,0
1989,0.03744070762417596,0
1990,-0.030135881350224953,0
1991,-0.07086426194985804,0
1992,-0.06537916137419453,0
1993,-0.052499655525847275,0
1994,-0.005513002852519348,0
1995,0.001528354423610984,0
1996,0.02455870753815719,0
1997,-0.04523903072031364,0
1998,0.04805478986857964,0
1999,-0.02529956697102448,0
2000,0.41393141839421677,0
2001,5.200265256046862,0
2002,4.300932339767837,0
2003,-2.823594383792319,0
2004,1.6179616016738456,0
2005,-0.7306285282543448,0
2006,0.32289513505422335,0
2007,-0.10536015957712627,0
2008,0.014006837188148519,0
2009,-0.09883302021398184,0
2010,0.029965365810362653,0
2011,0.025476614486274533,0
2012,-0.08524587963383742,0
2013,0.031841813534034424,0
2014,0.04672470349697831,0
2015,0.10431690689738221,0
2016,-0.05043078583011976,0
2017,1.30635728863726,0
2018,6.6590333331296305,0
2019,0.5434894905129314,0
2020,-1.4832497520585752,0
2021,1.0011048838011578,0
2022,-0.5210491685556768,0
2023,0.17272748759371873,0
2024,-0.14336459402974927,0
2025,0.09998402608351284,0
2026,0.08036574056678501,0
2027,-0.01561249399937227,0
2028,0.020263552740066297,0
2029,-0.05039547645463277,0
2030,0.0136666816172402,0
2031,0.062219203585097846,0
2032,0.03418966804553984,0
2033,0.06899495318032609,0
2034,3.1354626525102547,0
2035,6.649386943911936,0
2036,-2.393990814207368,0
2037,0.6995005087691661,0
2038,-0.07435313760578183,0
2039,-0.015811893839931118,0
2040,-0.11457224340187382,0
2041,-0.0069292284050333705,0
2042,0.03915555200592813,0
2043,0.07892498670325605,0
2044,0.03171442140128415,0
2045,-0.11802118241157557,0
2046,0.02596929016608892,0
2047,0.07245992611479665,0
2048,0.023043642580624742,0
2049,0.03566020942711159,0
2050,0.4252268864885266,0
2051,5.133020238207295,0
2052,4.188522081413953,0
2053,-2.801228714900688,0
2054,1.6083353715193116,0
2055,-0.6915438602018167,0
2056,0.445621384910972,0
2057,-0.053679537489940296,0
2058,0.002034006481898498,0
2059,0.02878315010945276,0
2060,0.05372681393021214,0
2061,0.05257009861294115,0
2062,-0.011492150406730038,0
2063,0.06804701389051163,0
2064,0.06487661735682604,0
2065,0.06353334123989643,0
2066,0.013979580403600634,0
2067,1.342112221578064,0
2068,6.737299410826727,0
2069,0.5803625243745607,0
2070,-1.4114862937029988,0
2071,1.0338573260320882,0
2072,-0.45059940478368415,0
2073,0.2382110781835128,0
2074,-0.04608738144628942,0
2075,0.06657780490264971,0
2076,-0.10509755141208908,0
2077,0.008511708789753812,0
2078,0.02067032034422745,0
2079,0.0057817448056863415,0
2080,-0.025465008908009314,0
2081,0.0002937553579407297,0
2082,0.047309345055043986,0
2083,0.05497950574046724,0
2084,3.010830837005352,0
2085,6.546864726391356,0
2086,-2.3945936970385264,0
2087,0.7735042219375372,0
2088,-0.10458125438404661,0
2089,0.04875799875870056,0
2090,-0.06389763345766612,0
2091,0.06175888202592459,0
2092,0.012962655435508601,0
2093,0.028615179926385494,0
2094,0.017714453548676914,0
2095,0.01853267787200258,0
2096,-0.0309640862310603,0
2097,0.08720214269164356,0
2098,0.03737188760998383,0
2099,-0.04007942707878859,0
2100,0.453612899920246,0
2101,5.2306449097540915,0
2102,4.218387460063691,0
2103,-2.9748178875061804,0
2104,1.5947569154117303,0
2105,-0.778749284502505,0
2106,0.36418222159952796,0
2107,-0.182208187287968,0
2108,-0.018568645797056374,0
2109,-0.024779396272453173,0
2110,0.03711481335789598,0
2111,-0.03229170572916717,0
2112,0.004313313855246945,0
2113,0.022037608789491275,0
2114,0.012810329328533421,0
2115,-0.06834351263614508,0
2116,-0.09843702564123108,0
2117,1.326396459981943,0
2118,6.734383069749949,0
2119,0.4500777849767671,0
2120,-1.4106274768519245,0
2121,1.0420508372586503,0
2122,-0.5946275650650974,0
2123,0.1952283228491794,0
2124,-0.029950194643478617,0
2125,0.04603542708176239,0
2126,-0.056857866725471905,0
2127,-0.04483477678965145,0
2128,-0.0064953621762662795,0
2129,0.042185541075003594,0
2130,0.060198410850475344,0
2131,-0.04436543687427598,0
2132,-0.028250120128523567,0
2133,-0.023054620728357733,0
2134,3.0502923073701456,0
2135,6.669341979640343,0
2136,-2.4139073219656146,0
2137,0.8212006930708067,0
2138,-0.08091571386703836,0
2139,0.00963414241819252,0
2140,0.07454847304884986,0
2141,-0.0991290814327333,0
2142,0.07121282574700698,0
2143,0.05372464219940394,0
2144,0.006147884038645489,0
2145,-0.02472975602114365,0
2146,-0.0811149968958602,0
2147,0.0301641775545606,0
2148,-0.026756084823908306,0
2149,0.034038348650561094,0
2150,0.4707323741407342,0
2151,5.177165226279049,0
2152,4.094257874307109,0
2153,-2.836853416351973,0
2154,1.631144632245732,0
2155,-0.7758469888958769,0
2156,0.2936092718045414,0
2157,-0.19539286403609774,0
2158,0.08893364584578817,0
2159,-0.05545411735060084,0
2160,-0.09164777171936643,0
2161,-0.012622259612124527,0
2162,-0.033157116309899745,0
2163,-0.06701809802269476,0
2164,0.04434612607235405,0
2165,0.016013772577986845,0
2166,-0.022679251486470056,0
2167,1.3868158648266007,0
2168,6.7141084659121235,0
2169,0.5164189828656099,0
2170,-1.4252998061177575,0
2171,0.9814866952171044,0
2172,-0.4584125037369725,0
2173,0.21418860189046762,0
2174,-0.015614506312134492,0
2175,0.006551628039080489,0
2176,0.061848967325913225,0
2177,-0.025520388917703085,0
2178,0.03206235731043164,0
2179,0.08397363216471453,0
2180,-0.043599735804386044,0
2181,0.03152426259413288,0
2182,0.020464528569274255,0
2183,0.13041308076975477,0
2184,3.0504887926187423,0
2185,6.587280163280564,0
2186,-2.3894959619891614,0
2187,0.8151513882190015,0
2188,-0.043729747263504135,0
2189,0.12971945237477917,0
2190,0.034621755372163616,0
2191,0.013932690516632165,0
2192,0.04435320321413971,0
2193,0.11190114548639936,0
2194,0.07604861289123119,0
2195,0.009223939643203501,0
2196,-0.015443373797067578,0
2197,-0.09523909498616304,0
2198,-0.002896935885651679,0
2199,-0.026625498192997626,0
2200,0.3915506238923467,0
2201,5.174596612554975,0
2202,4.145177708527957,0
2203,-2.9309482695001763,0
2204,1.5668416342502625,0
2205,-0.742341977242252,0
2206,0.36599465474547155,0
2207,-0.05553327603628447,0
2208,0.17138313533152236,0
2209,0.09806057469666887,0
2210,0.10664592490627747,0
2211,0.16930559339235512,0
2212,0.16008547661955688,0
2213,0.21538403339664544,0
2214,0.1414874396483713,0
2215,0.10711824131702508,0
2216,0.10749281868475127,0
2217,1.4526876905667674,0
2218,6.942045217551891,0
2219,0.4727515073055569,0
2220,-1.2920893200487624,0
2221,0.9827737990785397,0
2222,-0.41378970862451225,0
2223,0.25704095400349564,0
2224,-0.0695021309940273,0
2225,0.05553669105960901,0
2226,0.00023996528914066104,0
2227,0.01799706182739353,0
2228,0.04696516351771228,0
2229,0.007333723801051156,0
2230,0.041916957576677794,0
2231,0.04235617603136796,0
2232,0.0995861578582095,0
2233,0.08513179313030639,0
2234,3.2142867023664947,0
2235,6.510180993705397,0
2236,-2.3410896237013366,0
2237,0.7121315122271976,0
2238,-0.1355557649800558,0
2239,0.06927560877189078,0
2240,0.05759100433800501,0
2241,0.08898473043520855,0
2242,-0.007583958220754625,0
2243,0.02386691098577883,0
2244,0.08227104750213235,0
2245,0.01616307896584908,0
2246,0.0068619408422492,0
2247,0.01353515304091236,0
2248,-0.016694777952620275,0
2249,-0.016999704115366263,0
2250,0.435964670845429,0
2251,5.274453407171228,0
2252,4.074761884898466,0
2253,-2.8877536500915006,0
2254,1.6225708233670006,0
2255,-0.7943339087448497,0
2256,0.26774400345802185,0
2257,-0.13316988654544304,0
2258,0.01574659887055536,0
2259,-0.04064111213503613,0
2260,0.04321319913213658,0
2261,0.032340483919620466,0
2262,0.007430507534573879,0
2263,-0.004748987461399227,0
2264,0.010764661832571094,0
2265,0.09462979170631976,0
2266,0.025198458641176653,0
2267,1.3658350505934824,0
2268,6.842088786839928,0
2269,0.5455818566989608,0
2270,-1.4039569012195767,0
2271,1.090002285834189,0
2272,-0.42196918235355363,0
2273,0.3130979115554136,0
2274,-0.041990059166719274,0
2275,0.1133280685864646,0
2276,0.1044023717288518,0
2277,0.1271645556936142,0
2278,0.0813473357804139,0
2279,0.1288211739671799,0
2280,0.12976052286425938,0
2281,0.09745137957235846,0
2282,0.08465672444709019,0
2283,0.12216648220882083,0
2284,3.155460345893484,0
2285,6.7464893973445905,0
2286,-2.4604013644751412,0
2287,0.7896035603991501,0
2288,-0.17388844922344576,0
2289,0.013428637639922594,0
2290,-0.0006415301421580574,0
2291,0.017144770804899193,0
2292,0.11185104767615273,0
2293,0.13545369704228383,0
2294,-0.05818159637345888,0
2295,0.03504685387479919,0
2296,-0.015003091326034286,0
2297,0.1939463419073279,0
2298,-0.013738600875286104,0
2299,0.11890950486952753,0
2300,0.5199007958364651,0
2301,5.2856149199642095,0
2302,4.146530696272048,0
2303,-2.810757170172422,0
2304,1.7485818497294048,0
2305,-0.7008410924690835,0
2306,0.33373427873094347,0
2307,-0.05060437681568432,0
2308,0.11314389405560255,0
2309,0.09681446923589124,0
2310,0.10219150333803127,0
2311,0.09472672845455918,0
2312,0.001295278717991441,0
2313,0.0994778767007831,0
2314,0.07219384180020476,0
2315,0.08303740836320589,0
2316,0.06232929796483134,0
2317,1.4320367313683622,0
2318,6.845583312245978,0
2319,0.5547973528279649,0
2320,-1.2133211191423818,0
2321,1.0821800525792744,0
2322,-0.478319661059237,0
2323,0.27201679847069604,0
2324,0.0899735830512504,0
2325,0.0721355939825541,0
2326,0.054784433077023235,0
2327,0.11143213083429945,0
2328,0.07617658397733683,0
2329,0.034559784489031665,0
2330,0.12191198204014742,0
2331,0.081809024635735,0
2332,-0.019810064993587395,0
2333,0.27802651755650143,0
2334,3.2233225225936564,0
2335,6.667760345069033,0
2336,-2.411104667774421,0
2337,0.8554649562363199,0
2338,-0.1221807677659506,0
2339,0.11754835057655542,0
2340,-0.0014247369694401074,0
2341,0.07173126173742658,0
2342,0.12693284206745312,0
2343,0.12079941747259776,0
2344,0.051815455463564655,0
2345,0.00791242901595185,0
2346,0.03288432076206592,0
2347,0.00992915718338297,0
2348,0.03923886023391237,0
2349,-0.005743607483077499,0
2350,0.4498606809906423,0
2351,5.358374848915924,0
2352,4.0577643055784325,0
2353,-2.824219966223465,0
2354,1.613757144639164,0
2355,-0.7063357834032928,0
2356,0.3932318703180071,0
2357,-0.1260463865508522,0
2358,0.12395223550391057,0
2359,0.03691894683379082,0
2360,0.004072994381552911,0
2361,0.03377222644822332,0
2362,0.08258028497410004,0
2363,0.09307954840212085,0
2364,-0.03724278344305734,0
2365,-0.017193662305439505,0
2366,0.05109106437625081,0
2367,1.3928718359103542,0
2368,6.8216794428173815,0
2369,0.45079526613285603,0
2370,-1.3400714041390955,0
2371,0.9892090673436232,0
2372,-0.4574959962415048,0
2373,0.13636396028519948,0
2374,0.0058242687440488855,0
2375,0.0030057028299989505,0
2376,-0.006430063705576585,0
2377,0.0320781168584183,0
2378,-0.051024272715194025,0
2379,0.016152296996255644,0
2380,-0.012163447764543592,0
2381,0.03968440864728709,0
2382,0.09544168137059222,0
2383,0.1079090866344368,0
2384,3.1159376979848132,0
2385,6.613603985143837,0
2386,-2.4417555200550787,0
2387,0.8792851937103712,0
2388,-0.20520849520339995,0
2389,0.09710550785518375,0
2390,0.1383326296971449,0
2391,0.16458530811958777,0
2392,0.04006409550409938,0
2393,0.021624765470296563,0
2394,0.11707839255123986,0
2395,0.01895081289965136,0
2396,-0.0414060871946209,0
2397,0.09651581350051361,0
2398,0.004633558398295032,0
2399,0.061888912495416254,0
2400,0.46589128504471417,0
2401,5.324084951630387,0
2402,4.020660906503249,0
2403,-2.831092642225277,0
2404,1.6504423613688943,0
2405,-0.8047005218466587,0
2406,0.28472427736458117,0
2407,-0.14966292410016513,0
2408,0.061382084244236024,0
2409,0.059153593985821984,0
2410,-0.09296760625087111,0
2411,-0.039307265618455454,0
2412,0.044504679074341656,0
2413,-0.04037946682233188,0
2414,0.08738335269191314,0
2415,-0.06111018926259375,0
2416,0.003032051519430791,0
2417,1.369130458822348,0
2418,6.7842845891960835,0
2419,0.4857505612703408,0
2420,-1.273496724287945,0
2421,0.9385364966147447,0
2422,-0.5458548338057465,0
2423,0.13132274593390791,0
2424,-0.021132610563899673,0
2425,0.06452903840870856,0
2426,-0.02470775768439125,0
2427,-0.062278080715857845,0
2428,-0.051276455878506565,0
2429,0.01847306855623501,0
2430,-0.041478280946321874,0
2431,-0.09173318906541794,0
2432,-0.0075736860712619265,0
2433,-0.05982045512573475,0
2434,3.168571881456096,0
2435,6.452697568382166,0
2436,-2.5867716695917373,0
2437,0.6922863637451905,0
2438,-0.20145767570130857,0
2439,-0.013260275632588709,0
2440,-0.0139428252485356,0
2441,0.0009949160446454377,0
2442,0.06244803101350002,0
2443,0.005039449681620057,0
2444,-0.011859574015408643,0
2445,-0.037114070599097396,0
2446,-0.08079347769513913,0
2447,0.005665331847196923,0
2448,-0.013428085520704989,0
2449,-0.0239600390957088,0
2450,0.38287297460107333,0
2451,5.206607966935149,0
2452,3.9892204445951305,0
2453,-2.8915885792474056,0
2454,1.4573425975471843,0
2455,-0.8100784816690481,0
2456,0.40100661844049335,0
2457,-0.19421154864561474,0
2458,0.04115809474565254,0
2459,0.05296089934335436,0
2460,-0.022508289887642446,0
2461,-0.11037896939268624,0
2462,-0.09280710510163775,0
2463,-0.08759609090393072,0
2464,0.04823653056701811,0
2465,-0.04431960845733647,0
2466,-0.04351827555142896,0
2467,1.3831843723647994,0
2468,6.778093034161883,0
2469,0.37283975463925395,0
2470,-1.3608291402705515,0
2471,0.9599267310221695,0
2472,-0.5459620902812827,0
2473,0.19995099001796238,0
2474,-0.04484501683179746,0
2475,0.03305790055288983,0
2476,0.0375474117359457,0
2477,-0.0722364139565405,0
2478,-0.05271014914209331,0
2479,-0.04556682377180922,0
2480,-0.11005465744844681,0
2481,-0.06268767745454856,0
2482,-0.037316348497050386,0
2483,0.14456946143869373,0
2484,3.095074052964597,0
2485,6.4983314753061725,0
2486,-2.5655761953941023,0
2487,0.7110382857343152,0
2488,-0.25932223736884036,0
2489,0.06109983648647735,0
2490,-0.06471302324868311,0
2491,0.009239501138286577,0
2492,0.006297745904915327,0
2493,-0.026622173807280956,0
2494,-0.0007866377995128446,0
2495,0.0005068225532912848,0
2496,-0.06844674677353285,0
2497,-0.0004870632243606961,0
2498,0.08306314068660492,0
2499,0.044528686040603095,0
2500,0.3497698824156333,0
2501,5.264393316711384,0
2502,3.912834402550676,0
2503,-2.9592636980996887,0
2504,1.5608622327789057,0
2505,-0.8438366724736867,0
2506,0.45315669490599,0
2507,-0.1465354357185662,0
2508,0.05241680733044152,0
2509,0.09688449216597167,0
2510,0.03833699348227991,0
2511,0.05216364038659936,0
2512,0.1471592325688736,0
2513,0.10267219519487059,0
2514,0.08786054200766302,0
2515,0.028457363895488155,0
2516,0.11135742304734225,0
2517,1.4901501105347292,0
2518,6.959985482435066,0
2519,0.3537179329239061,0
2520,-1.1464896139831673,0
2521,0.841290846815721,0
2522,-0.42643646858466744,0
2523,0.19229846841425252,0
2524,-0.05601541008772014,0
2525,0.0509197555986671,0
2526,-0.032507087584673286,0
2527,-0.06319464978454566,0
2528,-0.15624445544523796,0
2529,0.060079295604271415,0
2530,-0.004288031423450828,0
2531,-0.10723512837598274,0
2532,-0.009130150786681245,0
2533,0.07628873905132894,0
2534,3.027760792272466,0
2535,6.43883491865349,0
2536,-2.617717861478598,0
2537,0.7782628245064884,0
2538,-0.2845714171625869,0
2539,0.02762820895211595,0
2540,-0.0223752929293557,0
2541,-0.010227776767744647,0
2542,-0.07918742778022805,0
2543,-0.10412731720493423,0
2544,-0.029699990834579824,0
2545,-0.09187695138632472,0
2546,0.010432406168523058,0
2547,-0.062421641139270234,0
2548,-0.08877907675846683,0
2549,0.0032226597409753116,0
2550,0.47734375385331307,0
2551,5.243174230559028,0
2552,3.9689102190871757,0
2553,-2.988976879532008,0
2554,1.4892041883083946,0
2555,-0.8529778936566602,0
2556,0.29988554018579755,0
2557,-0.10947236523680383,0
2558,-0.006535480612616714,0
2559,-0.09899371655560497,0
2560,0.07878448527986626,0
2561,-0.03290799742411923,0
2562,-0.06497993880747818,0
2563,0.006638242046088514,0
2564,-0.019696039227088277,0
2565,-0.050272338001390075,0
2566,-0.018963133055250592,0
2567,1.375609751578657,0
2568,6.741187061839121,0
2569,0.30384701926450836,0
2570,-1.1842163898853797,0
2571,0.9287852934146161,0
2572,-0.534692678666827,0
2573,0.1375278920863508,0
2574,-0.08894466568369966,0
2575,0.072746069397808,0
2576,0.04631477646879185,0
2577,-0.015074608220830534,0
2578,0.07991329890298159,0
2579,-0.020116243435058617,0
2580,0.0744918516759005,0
2581,-0.01879727828157691,0
2582,0.05028649211847923,0
2583,0.04291794827283534,0
2584,3.1480799257233167,0
2585,6.398286069036612,0
2586,-2.503320815406818,0
2587,0.7800850135036418,0
2588,-0.23599060007248063,0
2589,0.04268524431517239,0
2590,-0.049795301388689296,0
2591,0.0248360833217878,0
2592,-0.04894343966239596,0
2593,0.0025119954385346976,0
2594,0.0039361681488018505,0
2595,-0.0024007496457652895,0
2596,-0.02075745258537323,0
2597,-0.0601288910026541,0
2598,-0.03595003042249533,0
2599,0.028950125383216237,0
2600,0.4858256225584509,0
2601,5.283364159300325,0
2602,3.959104160577916,0
2603,-2.824957223094302,0
2604,1.6771685287450941,0
2605,-0.7938231847117168,0
2606,0.33301298926851247,0
2607,-0.05606489048737827,0
2608,0.04800336685381151,0
2609,-0.06585178920052745,0
2610,0.11138884974607899,0
2611,-0.05762131033688602,0
2612,0.012421202205019558,0
2613,-0.009330779395718032,0
2614,-0.06509750461921351,0
2615,-0.019253940682639088,0
2616,0.04263610768988948,0
2617,1.3515990401345417,0
2618,6.8373592011400985,0
2619,0.23808850556021088,0
2620,-1.203771427905254,0
2621,0.8490670541853231,0
2622,-0.41588828430605024,0
2623,0.26603517530326315,0
2624,0.005833270201008191,0
2625,0.039771534900287335,0
2626,0.05643784664407931,0
2627,0.041714395805538124,0
2628,0.10423305022562979,0
2629,0.06155969419782274,0
2630,-0.025303908965900228,0
2631,-0.00244065901106167,0
2632,0.049897702033915775,0
2633,0.18001023604497082,0
2634,3.177860032153949,0
2635,6.364836026641605,0
2636,-2.519375588377196,0
2637,0.8061476326067454,0
2638,-0.33284801889682475,0
2639,-0.01611137906955768,0
2640,-0.04773730419286484,0
2641,-0.020620431806240937,0
2642,0.04177355241563737,0
2643,-0.0007904279041629422,0
2644,-0.023351652090988072,0
2645,0.030644409739934035,0
2646,0.012571896086751147,0
2647,0.10777310919211239,0
2648,0.0038678170638606173,0
2649,0.01791022932994952,0
2650,0.48232072536715126,0
2651,5.2428503712058685,0
2652,3.998670640471357,0
2653,-2.8264900604448013,0
2654,1.6325342980945625,0
2655,-0.7545788865786315,0
2656,0.4710550228321248,0
2657,-0.18990520893322987,0
2658,0.10683479945812294,0
2659,0.027716715327283238,0
2660,-0.02231693505763089,0
2661,0.009637747082342635,0
2662,0.013154857999218846,0
2663,0.016249512972399904,0
2664,-0.024134490831560204,0
2665,0.024247344234061528,0
2666,0.005648953026824943,0
2667,1.42369167019459,0
2668,6.945756066856101,0
2669,0.31515437420262327,0
2670,-1.1490808623344482,0
2671,0.9795286494391747,0
2672,-0.31306681394537,0
2673,0.26076047923880336,0
2674,0.007429706660430966,0
2675,0.10097636071964954,0
2676,0.13027129218627864,0
2677,0.08407854668891715,0
2678,0.03546068271090881,0
2679,0.0643722219600743,0
2680,0.035106170867909806,0
2681,0.06089973922912359,0
2682,0.08006857470797113,0
2683,0.08329075517935941,0
2684,3.2264311992625396,0
2685,6.493367059716663,0
2686,-2.5151240830200066,0
2687,0.8630165434261371,0
2688,-0.06754854647142841,0
2689,0.12081753714804991,0
2690,0.02726430987370329,0
2691,0.09909970832599448,0
2692,0.04433580174658032,0
2693,0.15094612764495216,0
2694,0.07970018227138209,0
2695,0.05921967401204021,0
2696,0.12260959405799322,0
2697,0.06896536479088866,0
2698,-0.011301086313275366,0
2699,0.09617744872576765,0
2700,0.4627082271923699,0
2701,5.358372182547357,0
2702,3.942595123529845,0
2703,-2.8603279291248307,0
2704,1.5859754798136185,0
2705,-0.7108647074937734,0
2706,0.30733257544198006,0
2707,-0.13220299363787555,0
2708,0.1072818784665178,0
2709,-0.03582175125255935,0
2710,0.04677076225644537,0
2711,0.1315476841044354,0
2712,0.1045654908643821,0
2713,-0.0022903320699062812,0
2714,0.06563147725407337,0
2715,0.06707643600167656,0
2716,-0.011169853919005254,0
2717,1.3322867958707603,0
2718,6.8231200650789665,0
2719,0.2674775101691123,0
2720,-1.167528172821068,0
2721,0.9145031668387831,0
2722,-0.4651291115769631,0
2723,0.16665097931088763,0
2724,-0.08767055929086444,0
2725,0.0867636429215948,0
2726,-0.018239544399235707,0
2727,0.04319693277226966,0
2728,0.044095700000669265,0
2729,0.07580713175744208,0
2730,-0.03328498079372111,0
2731,0.01374991269271962,0
2732,-0.0038318935150790548,0
2733,0.014546102750539698,0
2734,3.218165000230919,0
2735,6.426980105301059,0
2736,-2.5505887598382726,0
2737,0.907664398805842,0
2738,-0.24832374339614707,0
2739,-0.02599198762856038,0
2740,-0.09298774052817443,0
2741,0.05757682164934513,0
2742,0.015279580726511081,0
2743,-0.1151963370582178,0
2744,-0.0995746340768808,0
2745,-0.03569338209634616,0
2746,0.05425431152093677,0
2747,0.038836963624070145,0
2748,0.0036086144484681684,0
2749,0.009227460381632687,0
2750,0.4956980539852851,0
2751,5.234950736652849,0
2752,3.8719680303308612,0
2753,-2.7919966875373854,0
2754,1.502957567670488,0
2755,-0.8117060174462855,0
2756,0.26392758327361154,0
2757,-0.10656980979921225,0
2758,-0.013614488674347744,0
2759,-0.05657904669097644,0
2760,-0.08242445940453474,0
2761,-0.021781923758636405,0
2762,-0.03869582266731241,0
2763,-0.03217395842964674,0
2764,0.012092373437738863,0
2765,-0.10798566974282037,0
2766,-0.027191409614073146,0
2767,1.4330142201422322,0
2768,6.799635752117661,0
2769,0.2657161307278432,0
2770,-1.3225272855721126,0
2771,0.7852429479928077,0
2772,-0.4896950656441052,0
2773,0.17514262743768444,0
2774,-0.11975495724089438,0
2775,-0.06450232126954963,0
2776,-0.11198140850269567,0
2777,0.04600994798883747,0
2778,-0.028307530007346385,0
2779,-0.05629246517283783,0
2780,-0.12418029897509356,0
2781,-0.07287508255494546,0
2782,-0.041574363187626244,0
2783,-0.022543234495322806,0
2784,3.1275413311700966,0
2785,6.324160523056545,0
2786,-2.6641367789730515,0
2787,0.8390524490991567,0
2788,-0.3413509728592581,0
2789,0.1146692856506133,0
2790,-0.1463841586075554,0
2791,-0.03092805273999308,0
2792,-0.1237004404381443,0
2793,-0.14762292514559927,0
2794,-0.13691704049744896,0
2795,-0.08519632060860816,0
2796,-0.10436930513813286,0
2797,-0.11513726900301016,0
2798,-0.09389013985607486,0
2799,-0.12280071749902627,0
2800,0.4539035317377552,0
2801,5.240108967857242,0
2802,3.7054492960087426,0
2803,-2.9511193408519554,0
2804,1.5492996868499678,0
2805,-0.8605209209030601,0
2806,0.3161286713038588,0
2807,-0.20124267641706264,0
2808,-0.012410658178325026,0
2809,-0.03802372041535427,0
2810,-0.08967763856062624,0
2811,-0.10626990381982011,0
2812,-0.031269838036271674,0
2813,-0.15152643048344355,0
2814,-0.1457571521471751,0
2815,-0.07190367893980545,0
2816,-0.044101206234059866,0
2817,1.277998680727368,0
2818,6.72099110339037,0
2819,0.14050767980478387,0
2820,-1.333304952992007,0
2821,0.7539335456934901,0
2822,-0.5844130625665384,0
2823,0.08192948729036799,0
2824,-0.1628866637515261,0
2825,-0.08273873272422129,0
2826,-0.12030040680644617,0
2827,-0.07877140089338848,0
2828,-0.07189221921669126,0
2829,-0.017151253988241126,0
2830,-0.023219267399083005,0
2831,-0.030749698966395383,0
2832,-0.04016734607192214,0
2833,0.003703394981089507,0
2834,3.2313666075956053,0
2835,6.326166504874554,0
2836,-2.545600496590061,0
2837,0.7387755834667797,0
2838,-0.25266469236143974,0
2839,-0.029321945873822253,0
2840,-0.03992852816756489,0
2841,-0.03479670255606289,0
2842,-0.052616396489942145,0
2843,-0.039223110837065006,0
2844,-0.06084171997625289,0
2845,-0.11139961351230313,0
2846,-0.050500730435295564,0
2847,-0.007821470378612742,0
2848,-0.11139248525133699,0
2849,-0.06602998160902362,0
2850,0.4242236364450777,0
2851,5.324207669995128,0
2852,3.743129137532835,0
2853,-2.8389882116521052,0
2854,1.4040474186242857,0
2855,-0.7795336232990032,0
2856,0.21539611485836993,0
2857,-0.20023764121255946,0
2858,-0.07028382602178426,0
2859,-0.10955578290178444,0
2860,-0.07426804241822264,0
2861,-0.14353140536430328,0
2862,-0.09613283787273609,0
2863,-0.12290219796203666,0
2864,-0.11536550876064083,0
2865,-0.0679438719029086,0
2866,-0.09422509069411658,0
2867,1.3400360265792857,0
2868,6.835152304077105,0
2869,0.12510239012155636,0
2870,-1.1255403072839205,0
2871,0.879141481919469,0
2872,-0.42424673014880154,0
2873,0.18273407969332073,0
2874,-0.024375754580883084,0
2875,0.04624049726103811,0
2876,-0.07984216179108278,0
2877,-0.0216103108084783,0
2878,-0.11256898552276444,0
2879,-0.05606492395182872,0
2880,-0.0979043959601485,0
2881,-0.10572453670803067,0
2882,0.022144359911082517,0
2883,-0.02881102285081727,0
2884,3.2534838224550837,0
2885,6.399558733513592,0
2886,-2.6488929341232246,0
2887,0.8216491764040639,0
2888,-0.4452852371543461,0
2889,-0.006491051794162435,0
2890,-0.027353427046256457,0
2891,-0.020751079714406758,0
2892,-0.04540334281150806,0
2893,-0.05994277532586338,0
2894,-0.023037725898058137,0
2895,-0.04850229744445483,0
2896,-0.08226699043934915,0
2897,0.05264284468000894,0
2898,-0.03076086976788045,0
2899,-0.009868999025318495,0
2900,0.5320854628551434,0
2901,5.428134716772667,0
2902,3.744780367487307,0
2903,-2.8037067844847887,0
2904,1.5509541405775111,0
2905,-0.7207551000207055,0
2906,0.31871477927778635,0
2907,-0.06132354658860739,0
2908,-0.031217412526330073,0
2909,-0.006340582714489715,0
2910,-0.021817267284465695,0
2911,-0.00960677773840902,0
2912,-0.00604281371213755,0
2913,0.16183870855182805,0
2914,0.0004174791891147951,0
2915,0.033394421666380444,0
2916,-0.14320199118339613,0
2917,1.458812348709125,0
2918,6.895225396246537,0
2919,0.17522907034213425,0
2920,-1.111786818978048,0
2921,0.8313993759923398,0
2922,-0.4825698846043027,0
2923,0.25220443014519,0
2924,-0.019727411462371287,0
2925,0.029219523886736584,0
2926,0.09315491785797451,0
2927,-0.027857065645810374,0
2928,0.014886029784807327,0
2929,-0.02799822393096489,0
2930,-0.08718008004061206,0
2931,-0.016048307834190464,0
2932,0.008227383172242336,0
2933,-0.03389069573445002,0
2934,3.2412859232755467,0
2935,6.409020552523927,0
2936,-2.736475091762937,0
2937,0.8532147464346199,0
2938,-0.24416211029166507,0
2939,0.014847648329866785,0
2940,-0.06076707568939701,0
2941,0.055792804910148014,0
2942,-0.04370418885442329,0
2943,0.009507096810704174,0
2944,0.008136858058466711,0
2945,0.040645576861507104,0
2946,-0.12810253193305643,0
2947,-0.05128964925522847,0
2948,-0.01907560076620283,0
2949,0.03037037842890332,0
2950,0.3853456626381798,0
2951,5.283115172838912,0
2952,3.719438057715512,0
2953,-2.8518979868327947,0
2954,1.489809521164424,0
2955,-0.7816726710291697,0
2956,0.23548045980030158,0
2957,-0.12250691105520288,0
2958,0.00439161904934968,0
2959,0.0004754369022989865,0
2960,0.04429507986981918,0
2961,-0.06081896209657404,0
2962,-0.03599195246322417,0
2963,0.020914488678718746,0
2964,0.08005088955133434,0
2965,-0.032846367624053824,0
2966,0.10587591142522573,0
2967,1.4683710015269933,0
2968,6.8388141012649415,0
2969,0.06734998852586802,0
2970,-1.222234764406416,0
2971,0.874175007180334,0
2972,-0.28973016967437043,0
2973,0.1985499594631047,0
2974,0.027273222207652763,0
2975,0.02764544420386885,0
2976,0.03035172712592939,0
2977,-0.005769593661990053,0
2978,0.08037041781290341,0
2979,-0.06322816486896851,0
2980,-0.014120862979212525,0
2981,0.08580663505185496,0
2982,0.012688652414044517,0
2983,0.1386834891216704,0
2984,3.3543028705005087,0
2985,6.395860156159956,0
2986,-2.532725890163695,0
2987,0.9265736564105158,0
2988,-0.3137606750226759,0
2989,0.13799281469554409,0
2990,-0.010110629092655886,0
2991,0.044672337927060504,0
2992,0.014526542350789769,0
2993,0.032384990475319925,0
2994,-0.03223655247790816,0
2995,0.08917288698470759,0
2996,-0.07207182862280455,0
2997,-0.021673901377550736,0
2998,0.011919307600910027,0
2999,0.028375322854172498,0
3000,0.4125327792211164,0
3001,5.501725635733532,0
3002,3.769485826505839,0
3003,-2.8380415679226036,0
3004,1.5627913874127368,0
3005,-0.8803086021159576,0
3006,0.33299653710362254,0
3007,-0.12641455590073608,0
3008,-0.001607354715113557,0
3009,-0.02006002512335049,0
3010,-0.0539641164687808,0
3011,-0.012352084356459523,0
3012,-0.02780533160664688,0
3013,-0.028383410048100362,0
3014,-0.032294141167373176,0
3015,0.041055395517223384,0
3016,0.12443756574232175,0
3017,1.4556420536729546,0
3018,6.86216356333812,0
3019,0.1016881026075656,0
3020,-1.1942079374694612,0
3021,0.8787327609732162,0
3022,-0.3437833000447169,0
3023,0.15407586545291943,0
3024,-0.07454761128558746,0
3025,-0.007761175769758315,0
3026,0.03763724348109372,0
3027,-0.006012507721998143,0
3028,0.01846308535385906,0
3029,0.07108882505515565,0
3030,0.053939214870868786,0
3031,-0.011291746689984247,0
3032,-0.08958363004774507,0
3033,0.1134863087227863,0
3034,3.2805057474435686,0
3035,6.338398497491936,0
3036,-2.5701711796906985,0
3037,0.883275542237145,0
3038,-0.3293402149183574,0
3039,0.07472814943711308,0
3040,0.007531541360282459,0
3041,-0.0288393279682544,0
3042,-0.058597483160314746,0
3043,-0.011674030474426285,0
3044,0.006753161814484452,0
3045,0.02458713446052445,0
3046,0.01006742708446671,0
3047,0.008861518397108302,0
3048,-0.07859721346900592,0
3049,0.14935237513424474,0
3050,0.4160672339274633,0
3051,5.4719041946997145,0
3052,3.726274526117535,0
3053,-2.8308730244079743,0
3054,1.6312002480299297,0
3055,-0.7542027591809124,0
3056,0.2620948968219739,0
3057,-0.07267480837316273,0
3058,-0.02554712217297904,0
3059,0.034276101303842677,0
3060,0.16116641369692503,0
3061,-0.009008635761483605,0
3062,-0.014755655798409888,0
3063,-0.019606452966269505,0
3064,-0.07527789058354138,0
3065,0.013031074375659344,0
3066,0.13254479549151682,0
3067,1.5204533743266087,0
3068,7.041677361549463,0
3069,0.11649970420568001,0
3070,-1.090097364496014,0
3071,0.9261300610379918,0
3072,-0.32433994336918015,0
3073,0.37120224703072036,0
3074,0.03714682473251095,0
3075,0.08445915179299576,0
3076,0.03314561983005534,0
3077,0.0585225126226716,0
3078,0.01308080509501073,0
3079,0.05809504368990243,0
3080,0.09163658902924252,0
3081,-0.029709649594678422,0
3082,0.04879984943164834,0
3083,0.08457780088937875,0
3084,3.2743262942153133,0
3085,6.310622142678548,0
3086,-2.7073077611548704,0
3087,0.9151655514968791,0
3088,-0.3764777366366118,0
3089,-0.007593702639889774,0
3090,-0.07221378856005595,0
3091,0.07646577458540213,0
3092,-0.002388039402471287,0
3093,-0.033591136469044255,0
3094,-0.0519213336400436,0
3095,-0.01412541144144535,0
3096,0.004731337160673088,0
3097,-0.08233357740717107,0
3098,-0.006040924685294664,0
3099,-0.05423920730683793,0
3100,0.4001715856282255,0
3101,5.419265950570081,0
3102,3.7103472864612512,0
3103,-2.887117233104619,0
3104,1.577332946255313,0
3105,-0.7740907869428277,0
3106,0.1970382885989026,0
3107,-0.1472384271898134,0
3108,-0.06250917731216857,0
3109,0.015015019491410639,0
3110,-0.07866005392338551,0
3111,0.020920315113187045,0
3112,-0.05002366562462757,0
3113,-0.07664728121257947,0
3114,-0.02067785287885176,0
3115,-0.01393398989334342,0
3116,-0.18289987573638924,0
3117,1.4092500391749325,0
3118,6.910674183117607,0
3119,-0.020759960350071487,0
3120,-1.1727973634605895,0
3121,0.786543432782042,0
3122,-0.45676055537818105,0
3123,0.14339773619270219,0
3124,-0.0732017454564647,0
3125,-0.061967532020445935,0
3126,-0.06422462360553943,0
3127,0.055945619855272084,0
3128,0.003564069451675783,0
3129,0.07745835765383982,0
3130,0.04311543895769439,0
3131,0.05183004211198682,0
3132,0.08912390312593643,0
3133,0.1565400410215812,0
3134,3.4227164510496784,0
3135,6.350838018249747,0
3136,-2.5886273780658553,0
3137,1.0063046603479435,0
3138,-0.2658826783138757,0
3139,0.13544766015321763,0
3140,0.03017522874619799,0
3141,-0.01544752931037931,0
3142,-0.060848423018410716,0
3143,-0.020758704014299252,0
3144,-0.1490841940632172,0
3145,0.005475193999305891,0
3146,0.07840780613279909,0
3147,-0.07720559770763996,0
3148,-0.016569204240923383,0
3149,-0.06952723474281736,0
3150,0.49791772652815464,0
3151,5.412550805273526,0
3152,3.653884907309589,0
3153,-2.9048258464103367,0
3154,1.5762691682331311,0
3155,-0.787732850986933,0
3156,0.22029775579207628,0
3157,-0.13365600392393928,0
3158,-0.15331121115300467,0
3159,-0.10762949033976231,0
3160,-0.09074360043054987,0
3161,-0.07288841823798714,0
3162,-0.1875606651007961,0
3163,-0.11527270808400292,0
3164,-0.12115826991540572,0
3165,-0.08471683147192328,0
3166,-0.06050941863830173,0
3167,1.4285311670627148,0
3168,6.836311825182833,0
3169,-0.02791260418198425,0
3170,-1.05596217546702,0
3171,0.7967869418406233,0
3172,-0.47793839200969435,0
3173,0.21691495272431027,0
3174,-0.04144362468636857,0
3175,0.0153826339773037,0
3176,0.15191191411317703,0
3177,0.03874804842381697,0
3178,0.04687073084485821,0
3179,0.05181117170724649,0
3180,0.00541743964277481,0
3181,0.02510596048269693,0
3182,-0.022817090879254757,0
3183,0.14184797512304453,0
3184,3.371183968635285,0
3185,6.251614913175027,0
3186,-2.667164214914268,0
3187,0.903965115044517,0
3188,-0.36226204940965245,0
3189,-0.02944509773573796,0
3190,-0.13145323264699926,0
3191,-0.12028480475383352,0
3192,-0.11843236381596615,0
3193,-0.18657991762782936,0
3194,-0.0994466086407861,0
3195,-0.07725322300887988,0
3196,-0.19624494995567698,0
3197,-0.1643729890874189,0
3198,-0.08310187374130182,0
3199,-0.04251717209014732,0
3200,0.4810390508571365,0
3201,5.39518128941244,0
3202,3.603598836769444,0
3203,-2.8107521689087074,0
3204,1.5373605086319493,0
3205,-0.924122393266915,0
3206,0.2649606477684975,0
3207,-0.1969268957533285,0
3208,-0.06387358809332684,0
3209,-0.012009054439276565,0
3210,-0.015430843052725948,0
3211,-0.07839102433707786,0
3212,-0.11291772327137625,0
3213,-0.09960870085755333,0
3214,-0.08570713608912774,0
3215,-0.15567528694656002,0
3216,-0.11634278794153693,0
3217,1.4568998124865948,0
3218,6.843291093846871,0
3219,-0.10897731012466183,0
3220,-1.1280398277978296,0
3221,0.7458101145368093,0
3222,-0.6049459433380523,0
3223,0.16110211868693933,0
3224,-0.11115184886393628,0
3225,-0.015396441919210933,0
3226,-0.007925373716630518,0
3227,-0.07099560320622339,0
3228,-0.10432239745611344,0
3229,-0.07143301896553891,0
3230,-0.08342330653917307,0
3231,-0.05528104569717064,0
3232,-0.09881499782545317,0
3233,0.0003985691721995338,0
3234,3.205033421395406,0
3235,6.333053117325467,0
3236,-2.6960223863442763,0
3237,0.9351834522310886,0
3238,-0.40811905638857054,0
3239,0.024635032991576947,0
3240,-0.14628045621315533,0
3241,0.007186041211633465,0
3242,-0.019358386624088064,0
3243,-0.01880119436383567,0
3244,-0.06864668521050671,0
3245,-0.006949170183255762,0
3246,-0.05229486634024595,0
3247,-0.08047203144743875,0
3248,-0.11455680314060332,0
3249,-0.1430447126716723,0
3250,0.41314092621241766,0
3251,5.409162075244276,0
3252,3.500625918502066,0
3253,-2.80785145651656,0
3254,1.4730403556391167,0
3255,-0.8366446413251858,0
3256,0.20512419457065661,0
3257,-0.18278627990387056,0
3258,-0.11885301939324043,0
3259,-0.12550192331261334,0
3260,-0.07846809072489144,0
3261,-0.0693719391564481,0
3262,-0.07575790424798337,0
3263,-0.04316766903111233,0
3264,0.015086060732571772,0
3265,-0.09091298222171662,0
3266,-0.03117915497061291,0
3267,1.5302233152199884,0
3268,6.8314558079118575,0
3269,-0.06915981029622323,0
3270,-1.088487983579985,0
3271,0.755920767952245,0
3272,-0.5247413318341059,0
3273,0.08703243567998942,0
3274,-0.16953477922487564,0
3275,-0.043166734178980676,0
3276,-0.06116092007584011,0
3277,-0.10619899233156965,0
3278,-0.001264535940411371,0
3279,-0.013476684538435577,0
3280,-0.11116183297625296,0
3281,-0.05928568881796363,0
3282,0.0016936520799789578,0
3283,0.06867785560868986,0
3284,3.3408406084285702,0
3285,6.274008587433155,0
3286,-2.7001917527419197,0
3287,0.9866752146955542,0
3288,-0.3772193937905227,0
3289,-0.11899351684713892,0
3290,-0.09591249183555653,0
3291,-0.06081586916992075,0
3292,-0.0697084892480946,0
3293,-0.07163898657396822,0
3294,-0.1279237914605893,0
3295,-0.027797648454326234,0
3296,-0.04729861267888545,0
3297,-0.01964742528713431,0
3298,-0.02294177899457092,0
3299,0.03439718445544401,0
3300,0.48336859568368873,0
3301,5.518876804042492,0
3302,3.6121681754514245,0
3303,-2.782601352760744,0
3304,1.6027834395121032,0
3305,-0.8567526807290778,0
3306,0.28362300162804416,0
3307,-0.1467765279291105,0
3308,-0.004970907930958422,0
3309,-0.10669364784653494,0
3310,-0.1372097168352741,0
3311,-0.13105847701100398,0
3312,-0.08060297776812138,0
3313,-0.10300780668831096,0
3314,-0.09068862822839918,0
3315,-0.03304092861038958,0
3316,-0.09250912638424687,0
3317,1.4712933324616633,0
3318,6.809970118030689,0
3319,-0.06177869804097108,0
3320,-1.164581041110058,0
3321,0.8733024454742868,0
3322,-0.49190516513151683,0
3323,0.06453910496292926,0
3324,-0.07029762500361036,0
3325,-0.03474430599361804,0
3326,0.062300997997832466,0
3327,0.03639881979475177,0
3328,0.01062551582519721,0
3329,0.0008424357330777572,0
3330,-0.03234949486645007,0
3331,0.07718036691033492,0
3332,0.02559119482370613,0
3333,0.0286219907000725,0
3334,3.342800609093427,0
3335,6.256064859225406,0
3336,-2.6216989208545596,0
3337,1.0368925404648444,0
3338,-0.27694808300519413,0
3339,0.09229458559246644,0
3340,0.021956630290479964,0
3341,0.014366891251271576,0
3342,0.0361627343973412,0
3343,0.04729918310660007,0
3344,-0.003915184930764183,0
3345,0.05017671361507516,0
3346,0.06606181200308239,0
3347,0.010798369436374872,0
3348,0.09731836464023493,0
3349,-0.056488882462957316,0
3350,0.46388629995880404,0
3351,5.512261766756428,0
3352,3.6681837081051376,0
3353,-2.77749451343816,0
3354,1.63743209756401,0
3355,-0.7704189213679427,0
3356,0.3965279589295704,0
3357,-0.12110607171378016,0
3358,0.08166621262410192,0
3359,0.005659778470471014,0
3360,-0.016808536090768746,0
3361,0.084036861160985,0
3362,0.0580152584065633,0
3363,0.05487093795978194,0
3364,-0.03668074429236834,0
3365,0.01543136742592973,0
3366,-0.03414113878449762,0
3367,1.4714224672195622,0
3368,6.884533871196998,0
3369,-0.026084197450425232,0
3370,-1.0399111717477345,0
3371,0.8571750928943304,0
3372,-0.37350598576698124,0
3373,0.1769496231985544,0
3374,-0.07868137090750742,0
3375,0.06793201271413152,0
3376,-0.08145108565152837,0
3377,0.010941418949235025,0
3378,-0.027849144787071747,0
3379,0.010695163083713774,0
3380,-0.08565826522495595,0
3381,-0.020878409930645686,0
3382,0.09903695800931049,0
3383,0.07922796422686665,0
3384,3.4262004003511217,0
3385,6.346004629864387,0
3386,-2.699235927379864,0
3387,0.8960176979231734,0
3388,-0.3674913268907589,0
3389,0.1440061060684228,0
3390,-0.04391453718661871,0
3391,-0.014796574258786502,0
3392,-0.10160321900223886,0
3393,0.017506515718123044,0
3394,0.14812924411264597,0
3395,0.00396763630681763,0
3396,-0.06945583055981226,0
3397,0.01828694863014018,0
3398,-0.044667705304870964,0
3399,-0.013101351406705122,0
3400,0.5491932091553634,0
3401,5.493644328021705,0
3402,3.553576691988209,0
3403,-2.7721423697094387,0
3404,1.5563923158405817,0
3405,-0.7874892020289611,0
3406,0.26904388617156255,0
3407,-0.10187503409573621,0
3408,0.002550108795247457,0
3409,0.0027489798756590933,0
3410,-0.0758797392130589,0
3411,0.05925572656539514,0
3412,-0.019086947347967197,0
3413,0.041460624801989275,0
3414,0.0024806689037777533,0
3415,-0.046922014581718914,0
3416,0.004235918875063828,0
3417,1.4699989015025752,0
3418,6.895417806434667,0
3419,-0.1592918309720307,0
3420,-1.0742305704979316,0
3421,0.7377814233328335,0
3422,-0.3740459939790163,0
3423,0.0031437989544988443,0
3424,-0.012639279571796155,0
3425,-0.013970661978431234,0
3426,0.017087954285059145,0
3427,0.0352955303226645,0
3428,-0.0705467064374659,0
3429,0.026563484086646855,0
3430,0.04271612551995362,0
3431,-0.026616093390153757,0
3432,0.013070168815925508,0
3433,0.051576683959663014,0
3434,3.427332042373544,0
3435,6.3237120924749,0
3436,-2.6612332308044415,0
3437,0.9553349266480592,0
3438,-0.34393446851760057,0
3439,0.1330930660119042,0
3440,-0.05554874855986623,0
3441,-0.029650794133629487,0
3442,0.020071292751773568,0
3443,-0.05039966587897548,0
3444,0.10349178807570178,0
3445,-0.0031879242867501253,0
3446,0.05455418024957749,0
3447,0.04787556501612638,0
3448,0.10236132437592717,0
3449,0.018560576831992637,0
3450,0.6022325286094053,0
3451,5.552593741950496,0
3452,3.529634382666352,0
3453,-2.727270175695478,0
3454,1.569877287934117,0
3455,-0.7348359085207179,0
3456,0.4230561358601492,0
3457,-0.09494096106821397,0
3458,0.009128640168663653,0
3459,0.04126436959177293,0
3460,-0.024099953522702222,0
3461,0.017540879120922753,0
3462,-0.054925324971394685,0
3463,0.06864802789217932,0
3464,-0.06509922989212326,0
3465,-0.07133588390688474,0
3466,-0.09579981601059487,0
3467,1.509777502280565,0
3468,6.875127311995064,0
3469,-0.15313373263976496,0
3470,-1.0565219808542723,0
3471,0.7830790923332415,0
3472,-0.4668436192177598,0
3473,0.15394325200412093,0
3474,-0.02289175480150705,0
3475,-0.0011560198337079277,0
3476,0.06192232813928433,0
3477,-0.11719460213947556,0
3478,0.01402773527420532,0
3479,-0.11691127391427406,0
3480,0.06020729609599733,0
3481,-0.07368834862003133,0
3482,0.019225734730937576,0
3483,0.002445382262154447,0
3484,3.4126401325937463,0
3485,6.1207400997630925,0
3486,-2.7328527903890416,0
3487,1.0408501091776523,0
3488,-0.3064543914752066,0
3489,0.06018355147587018,0
3490,-0.09325120849830346,0
3491,-0.04835494958099958,0
3492,-0.0174312790211882,0
3493,-0.03679763475216554,0
3494,0.0258756903003507,0
3495,0.013769209290267894,0
3496,-0.05261182508773678,0
3497,0.008476797275430641,0
3498,-0.04444185582815946,0
3499,-0.029700420697027517,0
3500,0.5273179894910948,0
3501,5.462109934064468,0
3502,3.5333831496495245,0
3503,-2.7814834857189648,0
3504,1.5309746836631688,0
3505,-0.8615694718338598,0
3506,0.2991185070886024,0
3507,-0.2020881491855658,0
3508,0.11201109206004413,0
3509,-0.023840428555025855,0
3510,-0.06716972574207128,0
3511,0.0413868943847634,0
3512,0.015140944187722861,0
3513,-0.16965715105756474,0
3514,-0.14327119509945463,0
3515,0.06947818905141578,0
3516,-0.053603434365959476,0
3517,1.5220121261565682,0
3518,6.805848686143203,0
3519,-0.2190850825978183,0
3520,-1.0403547517704566,0
3521,0.8240158757898398,0
3522,-0.40727280419233636,0
3523,0.18449108105795176,0
3524,-0.20902229251445764,0
3525,-0.008603641161390953,0
3526,-0.07876312541158226,0
3527,-0.08298059512852551,0
3528,-0.030327335266802407,0
3529,0.0001518830810189921,0
3530,-0.04480019084240183,0
3531,0.10744120093617457,0
3532,-0.08535919803321568,0
3533,0.10301267173891959,0
3534,3.494691527068347,0
3535,6.216205960993518,0
3536,-2.6742085191290603,0
3537,0.9604525226827877,0
3538,-0.4343103267440094,0
3539,0.12713852640392706,0
3540,-0.0410663001685831,0
3541,-0.01276122008532674,0
3542,-0.04615883048882309,0
3543,-0.08222318934010261,0
3544,-0.13701742961722252,0
3545,-0.08224476245444634,0
3546,-0.03513517496195809,0
3547,-0.02669780569854927,0
3548,-0.03915752611058891,0
3549,-0.06848179480314003,0
3550,0.532275683723548,0
3551,5.492305619632517,0
3552,3.4686321402207816,0
3553,-2.732351501694996,0
3554,1.6447399449834839,0
3555,-0.8326460791117276,0
3556,0.3228046434056713,0
3557,-0.23763223633624853,0
3558,-0.08019741404854108,0
3559,-0.040039814544844565,0
3560,-0.02168506849796988,0
3561,-0.02122827018751358,0
3562,-0.01269682824646405,0
3563,-0.05881347360216017,0
3564,-0.03518651991218427,0
3565,-0.10442971114501001,0
3566,-0.022041974409132213,0
3567,1.6009439189466483,0
3568,6.93551468239498,0
3569,-0.218941954449268,0
3570,-1.0375469890562126,0
3571,0.7707205152220443,0
3572,-0.37280504772296563,0
3573,0.22072446232317589,0
3574,-0.02585945975534539,0
3575,0.002029515117703765,0
3576,0.015638716102295384,0
3577,-0.0979674316458672,0
3578,-0.022048631846200525,0
3579,0.05018342271123827,0
3580,-0.024774898245462626,0
3581,0.016331175049888166,0
3582,-0.06199054669234341,0
3583,-0.050267125821403164,0
3584,3.4513204592035627,0
3585,6.18241311238161,0
3586,-2.680598163854043,0
3587,1.1031707146026606,0
3588,-0.38283879078714456,0
3589,0.18141861186026007,0
3590,-0.06996690048240106,0
3591,0.06768698759922863,0
3592,0.02859197326171925,0
3593,0.016826514103098503,0
3594,-0.06833695698212106,0
3595,-0.12081584243212685,0
3596,-0.12326801708902416,0
3597,0.022831441758716084,0
3598,-0.06273637621249985,0
3599,-0.0593515996590574,0
3600,0.5499557064458368,0
3601,5.575159350078379,0
3602,3.3926046129521668,0
3603,-2.735258936863723,0
3604,1.5731864025347537,0
3605,-0.9140322578892917,0
3606,0.23729661512682276,0
3607,-0.20433954481546857,0
3608,-0.04454197140373623,0
3609,-0.02316671423434921,0
3610,0.07357770497569383,0
3611,-0.026115248328793986,0
3612,-0.13611363553900596,0
3613,-0.04061124881037055,0
3614,-0.030564361569296834,0
3615,-0.08596112753313481,0
3616,-0.03771007012086778,0
3617,1.4845847926547704,0
3618,6.9122141067989125,0
3619,-0.20941141196593713,0
3620,-0.9989296531684679,0
3621,0.71382053914219,0
3622,-0.34385881867557505,0
3623,0.07805999962430893,0
3624,-0.0531353482658644,0
3625,-0.03835680399547603,0
3626,-0.06202197945534205,0
3627,-0.045768770526465344,0
3628,-0.0275146816555095,0
3629,-0.0982175899346154,0
3630,-0.033080091474056605,0
3631,-0.09536419685475644,0
3632,-0.0643218835097884,0
3633,0.043677627302436656,0
3634,3.3576179800025523,0
3635,6.224506588003237,0
3636,-2.7557423989683665,0
3637,1.0724506157942153,0
3638,-0.41976159548003333,0
3639,0.11203004062286481,0
3640,-0.0029060193064290862,0
3641,-0.025457487645459416,0
3642,-0.06062635757867219,0
3643,-0.054197032714053295,0
3644,-0.011223971822334158,0
3645,-0.030220732770223063,0
3646,-0.08164553622537739,0
3647,-0.044712146805722046,0
3648,-0.11071309966494426,0
3649,0.0018391282310178479,0
3650,0.5873468852228637,0
3651,5.448848362436252,0
3652,3.3770266776422675,0
3653,-2.7307841293069957,0
3654,1.6526759787331289,0
3655,-0.8457871113043014,0
3656,0.2867865118749288,0
3657,-0.12734379199491555,0
3658,-0.06894404103152892,0
3659,-0.005632029622864441,0
3660,-0.08495686591082714,0
3661,-0.030661049657115625,0
3662,-0.030641763585441607,0
3663,-0.0052285265196705295,0
3664,0.03144484986127651,0
3665,-0.09167384293562193,0
3666,0.015364535586104178,0
3667,1.601227017259204,0
3668,6.941718198061952,0
3669,-0.25228051750067215,0
3670,-0.9999936013704921,0
3671,0.8176533832923631,0
3672,-0.3821095596591915,0
3673,0.1495390551007387,0
3674,-0.0019589521330492105,0
3675,-0.011706761817614769,0
3676,-0.005671443401467635,0
3677,-0.0221135220285107,0
3678,-0.0688226347313257,0
3679,-0.08701808582725204,0
3680,-0.004164081289145402,0
3681,-0.08690060847125966,0
3682,-0.17021438259252591,0
3683,0.10590416622852908,0
3684,3.383217145631582,0
3685,6.184331347951878,0
3686,-2.7757120891508786,0
3687,0.9732565891450312,0
3688,-0.2677200528144822,0
3689,0.07285425326596746,0
3690,-0.09226877705800851,0
3691,0.05740129023613087,0
3692,-0.03154431223208442,0
3693,0.04629833581404774,0
3694,-0.1206195076094572,0
3695,-0.01251056007927882,0
3696,0.01925649066662345,0
3697,0.09579463175720637,0
3698,-0.054837619836488764,0
3699,0.08831865755583354,0
3700,0.5796883536692728,0
3701,5.5873960232577575,0
3702,3.4053029505240975,0
3703,-2.642267768949668,0
3704,1.4611018137256016,0
3705,-0.7847589108780018,0
3706,0.3524518929295286,0
3707,-0.08418424180513,0
3708,0.040549822177439125,0
3709,-0.002733341604052964,0
3710,0.07740354662492882,0
3711,0.03181899859556854,0
3712,0.09454596992257228,0
3713,0.025594566963511502,0
3714,0.06430504817546828,0
3715,0.043233605017265614,0
3716,0.031387787700114925,0
3717,1.5856842257430206,0
3718,6.95636437708786,0
3719,-0.18340160484080892,0
3720,-0.9932278173363889,0
3721,0.7447460561533581,0
3722,-0.36441382116426974,0
3723,0.1852614901331174,0
3724,0.016203006071118416,0
3725,0.0309095293059284,0
3726,0.049255720714926704,0
3727,0.0027977510127763696,0
3728,-0.036678903558567164,0
3729,0.04663184064037705,0
3730,0.051663182941369554,0
3731,0.0465675714276768,0
3732,-0.003456049484229347,0
3733,0.1874370729406009,0
3734,3.5114482047972344,0
3735,6.17975512052896,0
3736,-2.7282978941672167,0
3737,1.1131759892987545,0
3738,-0.4113199675930873,0
3739,0.20084133859696646,0
3740,-0.10955463176919285,0
3741,0.04190974367341712,0
3742,0.14464879063977318,0
3743,0.013127911444395911,0
3744,0.019028900564682073,0
3745,0.012219635617476033,0
3746,-0.023592233252182526,0
3747,0.12870163467594053,0
3748,-0.07732904765255667,0
3749,0.05987383987580682,0
3750,0.5506472500387658,0
3751,5.644971072308868,0
3752,3.3262821659548067,0
3753,-2.6209227701357407,0
3754,1.5225525211616777,0
3755,-0.805294255295572,0
3756,0.2521787888332373,0
3757,-0.0677843752503341,0
3758,0.03822508291858374,0
3759,-0.018278565860194395,0
3760,0.014026626948614512,0
3761,-0.052546495828287416,0
3762,0.027866367168729256,0
3763,-0.029187964347984843,0
3764,0.09047538575467735,0
3765,0.07216400339690804,0
3766,0.07764767740684074,0
3767,1.5264364591067037,0
3768,6.949027750359325,0
3769,-0.32424263381138707,0
3770,-0.9612972553721304,0
3771,0.7462939974955783,0
3772,-0.40746508094040523,0
3773,0.1796599883102782,0
3774,-0.06484594852705836,0
3775,0.070928508498478,0
3776,0.013052169971855612,0
3777,-0.020681053687989975,0
3778,0.039815233568710806,0
3779,-0.029518580377901466,0
3780,-0.05493104274004552,0
3781,0.012604893816345913,0
3782,-0.06397403200668793,0
3783,0.1396986751670859,0
3784,3.4804984877428056,0
3785,6.259904513439948,0
3786,-2.7205882642582355,0
3787,0.9707695739878395,0
3788,-0.3922445122395981,0
3789,0.08223715065144363,0
3790,-0.14259426289332944,0
3791,0.03828699522978947,0
3792,-0.09890536921234208,0
3793,-0.10683652416447467,0
3794,-0.007644595753079847,0
3795,-0.00530108866130471,0
3796,0.013052964618682173,0
3797,-0.05159611185496589,0
3798,0.06910765512586556,0
3799,0.007174050933754684,0
3800,0.640544297734389,0
3801,5.64785457869313,0
3802,3.390865840780608,0
3803,-2.6106131725488426,0
3804,1.5014989078683656,0
3805,-0.7756695323021336,0
3806,0.4076687534507631,0
3807,-0.1866328873650795,0
3808,-0.027922140556447178,0
3809,-0.07160206609873196,0
3810,0.0898643772020709,0
3811,-0.05406901823421814,0
3812,0.07129000458064977,0
3813,-0.0326209340426476,0
3814,-0.12421727291987532,0
3815,0.05471120618476748,0
3816,-0.008589313617260185,0
3817,1.6415148019538648,0
3818,7.01726493855502,0
3819,-0.25410180137474236,0
3820,-0.8612114574135107,0
3821,0.7711698815338116,0
3822,-0.3674759812449023,0
3823,0.23044255954197768,0
3824,-0.033581008571201415,0
3825,-0.01657976077362483,0
3826,-0.003540637731920593,0
3827,0.057617289256974374,0
3828,0.003967776212895284,0
3829,0.004731262270905666,0
3830,-0.014770395931433911,0
3831,0.00532895527693179,0
3832,0.015773093631746858,0
3833,0.2128442653207034,0
3834,3.52867493323177,0
3835,6.145525051586358,0
3836,-2.8475221170218474,0
3837,0.9275011494459908,0
3838,-0.39009746037348547,0
3839,0.116778639832649,0
3840,-0.23406110746365838,0
3841,-0.09991648724308785,0
3842,-0.09499567231589115,0
3843,0.01853336944422966,0
3844,-0.08005814912881287,0
3845,-0.033883639105218265,0
3846,-0.07045560808191739,0
3847,0.014212744983874023,0
3848,-0.035794822483148914,0
3849,0.007228648816593131,0
3850,0.5643487466456,0
3851,5.657336945630276,0
3852,3.371056766933239,0
3853,-2.8244637731392124,0
3854,1.629221988092854,0
3855,-0.8351166614364716,0
3856,0.3994296202559606,0
3857,-0.1864362831091661,0
3858,0.10084447772040797,0
3859,0.030294597483879485,0
3860,-0.046267629565640775,0
3861,0.007644607938288932,0
3862,0.08011161921399601,0
3863,0.058023167642417155,0
3864,0.06945726553484155,0
3865,0.11219872803304347,0
3866,-0.004952717909071884,0
3867,1.676795010527945,0
3868,6.914743098349669,0
3869,-0.28962126355180984,0
3870,-0.04727036748074542,1
3871,-0.001304132605253222,1
3872,-0.04776502284649891,1
3873,-0.0009162946368188756,1
3874,-0.05455184100774222,1
3875,-0.039348585579537826,1
3876,0.023454426914278736,1
3877,-0.06434391880545946,1
3878,-0.006209816978509156,1
3879,0.034401713673722,1
3880,-0.14757331796627757,1
3881,-0.012497304098025125,1
3882,-0.10118569917586731,1
3883,-0.08598154366503553,1
3884,0.035229409165833496,1
3885,0.10916107334991088,1
3886,0.04338676206515997,1
3887,-0.02023552309395062,1
3888,-0.040645861378718784,1
3889,0.03380375265479218,1
3890,-0.017266368028355336,1
3891,-0.009639259749968482,1
3892,0.01686393625599438,1
3893,0.0705070402438238,1
3894,-0.03509540020652569,1
3895,0.042725364267484044,1
3896,-0.028641652101142858,1
3897,-0.06438707884590504,1
3898,0.017112989402579232,1
3899,0.0649206921019311,1
3900,0.03379773990908831,1
3901,-0.05279317668480371,1
3902,-0.01558016452119388,1
3903,-0.021227922622626332,1
3904,-0.01954571130447484,1
3905,-0.059162022914556404,1
3906,-0.0844481321242503,1
3907,-0.012097455911850026,1
3908,-0.050489586742260784,1
3909,-0.024772810448928744,1
3910,0.023454784090166377,1
3911,0.01895695188285922,1
3912,0.031827296952733224,1
3913,0.06077425018684908,1
3914,0.0074366079711230305,1
3915,-0.024723768123619167,1
3916,0.04097374977134231,1
3917,0.02656647055092286,1
3918,-0.007696168059962418,1
3919,0.04428804190244389,1
3920,0.01771159024976838,1
3921,-0.06620804753689491,1
3922,-0.01154283623322846,1
3923,-0.12995636355000884,1
3924,0.023581832202210537,1
3925,-0.02235870737370503,1
3926,-0.020069196735404478,1
3927,0.020508699461455303,1
3928,-0.016562294383807335,1
3929,0.08443629009153686,1
3930,0.07439422729554451,1
3931,-0.009819638470736277,1
3932,-0.0313896684120429,1
3933,0.014468797624316724,1
3934,-0.04750297101841958,1
3935,0.03540898879040219,1
3936,-0.08754370779154864,1
3937,-0.011637833544079197,1
3938,-0.009853690372106857,1
3939,0.06582147442156525,1
3940,0.03418693885556646,1
3941,0.03968143171376143,1
3942,0.03932773034100708,1
3943,0.058038651275950405,1
3944,0.060607066065482745,1
3945,0.09051066301404781,1
3946,0.008221346426364974,1
3947,0.014564653834615124,1
3948,0.03730226385666121,1
3949,-0.0038944598300623546,1
3950,0.006091120340520253,1
3951,-0.048469852489111495,1
3952,-0.01759318554368863,1
3953,0.003187822397428127,1
3954,0.02603013429156921,1
3955,0.012318584603088448,1
3956,0.0215697195896559,1
3957,-0.016137381236616087,1
3958,0.02050441354860947,1
3959,-0.026118570751730116,1
3960,-0.04785283422938512,1
3961,0.011568139797334384,1
3962,-0.04357334943103392,1
3963,0.05246583182966209,1
3964,-0.021785921750225593,1
3965,0.012510259549371842,1
3966,0.034433437305450246,1
3967,0.054055205814816626,1
3968,-0.011201881641896352,1
3969,0.10287161312228302,1
3970,-0.7916021457577769,0
3971,0.7259422377276679,0
3972,-0.40111644061595114,0
3973,0.12117793105158844,0
3974,0.021005572925362377,0
3975,-0.009781553199336206,0
3976,0.011734616994863813,0
3977,0.022831273603701085,0
3978,-0.049923826823335196,0
3979,-0.013769108695705499,0
3980,-0.11908349148130526,0
3981,0.060081830516108076,0
3982,-0.027142265462610865,0
3983,0.059275091797866684,0
3984,3.465766421881335,0
3985,6.0811124336058135,0
3986,-2.9040441536912387,0
3987,1.0519158134341384,0
3988,-0.3970416410791222,0
3989,0.15389301901852231,0
3990,-0.0764767177620734,0
3991,0.004334664445608751,0
3992,-0.10291740168190959,0
3993,-0.0524033750346606,0
3994,-0.0013995818090989267,0
3995,-0.02711135926477631,0
3996,-0.04224312543848559,0
3997,0.07798029953938705,0
3998,-0.08805152623753892,0
3999,0.061532112589550936,0
4000,0.5120901782583921,0
4001,5.587429493966001,0
4002,3.211280445461726,0
4003,-2.662641709126472,0
4004,1.552833155230262,0
4005,-0.7236689642706492,0
4006,0.2996875273578218,0
4007,-0.03221456772923553,0
4008,-0.0874080967041426,0
4009,-0.14184079071873418,0
4010,-0.0728067372516064,0
4011,0.022245967495669462,0
4012,-0.04660495524501253,0
4013,-0.03240377019703508,0
4014,-0.012751247545222017,0
4015,-0.1640067527250554,0
4016,-0.06571086071035151,0
4017,1.6928610550524974,0
4018,6.890415933079995,0
4019,-0.2856412476265303,0
4020,-0.8440578798278557,0
4021,0.7425195126201505,0
4022,-0.2702086791925062,0
4023,0.12601692109914978,0
4024,0.027901157657161293,0
4025,0.06932301839849754,0
4026,0.040000877642369974,0
4027,-0.06455397080307505,0
4028,-0.07033691946720012,0
4029,0.10271473545956512,0
4030,-0.024184450134596257,0
4031,0.00815432494940408,0
4032,-0.04861046331115456,0
4033,0.12487049720233563,0
4034,3.505263839727696,0
4035,6.068313903948569,0
4036,-2.684055661999806,0
4037,1.0381679561336608,0
4038,-0.28148960225674396,0
4039,0.09873230348362143,0
4040,-0.0714388336587625,0
4041,0.07378317731459115,0
4042,0.08079723777824559,0
4043,-0.0006890139988977514,0
4044,0.035160214913921066,0
4045,0.07580730726617646,0
4046,0.036714661978975036,0
4047,-0.024351364391400624,0
4048,-0.002863753075991838,0
4049,0.02304128720169011,0
4050,0.5626311958953742,0
4051,5.686932489029957,0
4052,3.2778947351684176,0
4053,-2.6691443424415597,0
4054,1.5736064023719896,0
4055,-0.7249636867221245,0
4056,0.31400993592871856,0
4057,-0.06809056315905004,0
4058,-0.0003334010349665777,0
4059,-0.03283898688282632,0
4060,-0.14411868248969686,0
4061,-0.030028787393571555,0
4062,0.05400667954420879,0
4063,0.010388071169720927,0
4064,-0.032730185093745305,0
4065,-0.13173871092884243,0
4066,-0.026895701513372165,0
4067,1.7345543084797521,0
4068,6.995519000145737,0
4069,-0.4136728012360437,0
4070,-0.7630053527297663,0
4071,0.6945027839016328,0
4072,-0.28494523063561866,0
4073,0.18286469998818453,0
4074,-0.030273521036618525,0
4075,0.062284421469550634,0
4076,0.03237012595151524,0
4077,0.019231772888223735,0
4078,0.05312972647864699,0
4079,-0.050900033305691796,0
4080,0.03315768194702452,0
4081,0.018117670329076848,0
4082,-0.008542189533323565,0
4083,0.038810806115564186,0
4084,3.6722188506532496,0
4085,6.160218490921498,0
4086,-2.757661471520951,0
4087,1.1148039428202396,0
4088,-0.42808962679291807,0
4089,0.17404622869966765,0
4090,-0.039050902700428373,0
4091,0.0060269098270322174,0
4092,0.0014517368737019497,0
4093,0.031095643522674035,0
4094,-0.08040163573774926,0
4095,-0.05199004836925121,0
4096,-0.0045315959115350725,0
4097,0.05101523696349701,0
4098,0.05486706790584697,0
4099,0.015644827776300652,0
4100,0.659701891103697,0
4101,5.701076582158724,0
4102,3.287123706905681,0
4103,-2.7098561319467915,0
4104,1.528845807937958,0
4105,-0.7575887240094693,0
4106,0.29132678977268983,0
4107,-0.027861688803678064,0
4108,-0.0072756605642582545,0
4109,0.04512090122101215,0
4110,0.0353783098307912,0
4111,-0.013498986163505172,0
4112,0.0037833548333990885,0
4113,0.04512847628500726,0
4114,0.03506986887546682,0
4115,-0.09044624387491262,0
4116,0.06062729314005532,0
4117,1.7101657738870417,0
4118,7.000002968358881,0
4119,-0.3830275272539023,0
4120,-0.7398699387283878,0
4121,0.7678652644302518,0
4122,-0.3768047807310793,0
4123,0.1844404056849023,0
4124,0.014144704586618359,0
4125,0.08731153373017933,0
4126,0.10835654165782752,0
4127,-0.020939669189437078,0
4128,-0.08082698430768183,0
4129,0.05857700691635782,0
4130,0.0819161283034337,0
4131,0.04612605789499138,0
4132,-0.0241777469106053,0
4133,0.11245805631347547,0
4134,3.6359197588111702,0
4135,6.263869207085068,0
4136,-2.7610577215071466,0
4137,1.2206526863743001,0
4138,-0.35061059422636853,0
4139,0.18527158426100854,0
4140,0.026708199427610213,0
4141,-0.0343236171055004,0
4142,-0.041422688354119934,0
4143,-0.09070781687270346,0
4144,-0.032788676947585,0
4145,0.017291174209610925,0
4146,-0.0350228670956828,0
4147,-0.08212734206313115,0
4148,0.013668727163267853,0
4149,-0.02572538731548735,0
4150,0.5674841838592615,0
4151,5.681889997074545,0
4152,3.259275671411274,0
4153,-2.4596306577344973,0
4154,1.4965310399190683,0
4155,-0.7461201890139761,0
4156,0.3135673912791067,0
4157,-0.13048743601857193,0
4158,0.11530974375783323,0
4159,0.06129031567985583,0
4160,0.1312518519819367,0
4161,-0.000290809858054894,0
4162,-0.024247890646949523,0
4163,0.14950453641011335,0
4164,0.07774269828127675,0
4165,0.04806315872192022,0
4166,0.040382193999941626,0
4167,1.7037571953425983,0
4168,7.03906606261895,0
4169,-0.38843833548757656,0
4170,-0.7575177736978983,0
4171,0.7927616967858185,0
4172,-0.27202065890858973,0
4173,0.2659438366721307,0
4174,-0.025554664359914395,0
4175,0.017264241699029785,0
4176,-0.06552283361191345,0
4177,-0.04231710128156506,0
4178,0.016429251574183287,0
4179,0.049932568777088626,0
4180,-0.06218888419389928,0
4181,-0.009243893367409179,0
4182,0.08253992069158961,0
4183,0.10521815426818251,0
4184,3.5365615161306656,0
4185,6.127586019346376,0
4186,-2.7493051658163092,0
4187,1.0295099238608398,0
4188,-0.38103960773331275,0
4189,0.023703646093148067,0
4190,-0.17208426439315944,0
4191,0.040284163643634005,0
4192,-0.013824241835488055,0
4193,0.03192958259408211,0
4194,0.09919982126144822,0
4195,-0.02566971162732207,0
4196,0.010639174315847651,0
4197,0.08718449020689135,0
4198,0.11634396966573941,0
4199,-0.013449199074042711,0
4200,0.6881549905563582,0
4201,5.713169101871559,0
4202,3.180767794791551,0
4203,-2.5544236920309196,0
4204,1.533503475695983,0
4205,-0.756641404645467,0
4206,0.3381451016250592,0
4207,-0.08961261594928746,0
4208,0.08361413795280766,0
4209,0.009808853674885265,0
4210,-0.04325618423579654,0
4211,-0.007074519044891794,0
4212,-0.08256176112970642,0
4213,-0.13963541230297682,0
4214,-0.05708319898560149,0
4215,-0.02330304840014439,0
4216,-0.0020644746211671023,0
4217,1.6611605954843238,0
4218,6.834497583557888,0
4219,-0.47438380957082726,0
4220,-0.7389398492350446,0
4221,0.6991852252321853,0
4222,-0.4101351286335544,0
4223,0.179588223063772,0
4224,-0.04206949084446887,0
4225,0.056622340863297545,0
4226,0.008661416933016749,0
4227,0.07202442461573533,0
4228,0.027335640758478434,0
4229,0.003906211736320302,0
4230,-0.01747590917224925,0
4231,0.13032695387213997,0
4232,-0.0272339703897334,0
4233,0.07845764159163343,0
4234,3.61820766383426,0
4235,5.994140038949591,0
4236,-2.7503895941678467,0
4237,1.1142842219910178,0
4238,-0.3739441611825864,0
4239,0.321683664276851,0
4240,-0.1429454063700393,0
4241,0.054354855681240107,0
4242,0.040742866908922905,0
4243,-0.024200714508716144,0
4244,-0.053518715235630995,0
4245,0.03822345558823406,0
4246,-0.03278986355120478,0
4247,0.07987513341179756,0
4248,0.05426178881320763,0
4249,0.06242078594789814,0
4250,0.7627864643543192,0
4251,5.698006784913542,0
4252,3.2501278413991987,0
4253,-2.5884660023316775,0
4254,1.511021690950499,0
4255,-0.7136208792371362,0
4256,0.3711221541263959,0
4257,-0.07012296022551667,0
4258,0.14962884427268588,0
4259,0.06701794801789844,0
4260,0.021321410939010844,0
4261,-0.03721379227804354,0
4262,0.012470536490525508,0
4263,0.053309845268934036,0
4264,0.09778976960413079,0
4265,-0.07288777199876262,0
4266,-0.01513543734935458,0
4267,1.7443990172291193,0
4268,6.891022499489525,0
4269,-0.44636559986556035,0
4270,-0.7994944700584591,0
4271,0.6640830164190104,0
4272,-0.30735202304220355,0
4273,0.1658655753453318,0
4274,-0.0554917564122046,0
4275,0.04389413032154134,0
4276,0.047239088712823354,0
4277,0.029777192533319286,0
4278,0.01807249368204408,0
4279,-0.01840762669111154,0
4280,0.02577307918438427,0
4281,0.0432825737886207,0
4282,0.004147891979194015,0
4283,0.185724946638621,0
4284,3.674825959979779,0
4285,6.2123597521208715,0
4286,-2.79322351474562,0
4287,1.3029870284252205,0
4288,-0.41029246828774835,0
4289,0.24035477592412308,0
4290,0.04361026576474178,0
4291,0.13973892610612504,0
4292,-0.047446372870764156,0
4293,0.09585569253037746,0
4294,0.10203703187402852,0
4295,0.04003943203915116,0
4296,0.08806604877041171,0
4297,0.04384396111183274,0
4298,-0.03101484544004161,0
4299,0.0445407947599762,0
4300,0.6571564578880973,0
4301,5.705027145502804,0
4302,3.0781151076977564,0
4303,-2.504334523050038,0
4304,1.5661119225787878,0
4305,-0.7653849405840969,0
4306,0.19412534899825643,0
4307,-0.0904915016786293,0
4308,-0.016976254796359024,0
4309,-0.010736652608992963,0
4310,0.012175842578488996,0
4311,0.06843984034679829,0
4312,0.009098623735897066,0
4313,0.09663723227887727,0
4314,0.05092346831089104,0
4315,-0.019746253125339293,0
4316,0.019471089774560302,0
4317,1.7064852527671959,0
4318,6.954783650135635,0
4319,-0.4093065801530583,0
4320,-0.7390067441426434,0
4321,0.7045253666109699,0
4322,-0.36711830152480096,0
4323,0.22546256995286346,0
4324,-0.04251842984757985,0
4325,-0.0807883232372685,0
4326,0.021108955122093417,0
4327,-0.061002924883014724,0
4328,-0.026725831496773288,0
4329,0.03348188695296796,0
4330,-0.009274054802811914,0
4331,0.04585850414086721,0
4332,-0.0051180204540545,0
4333,0.08742807529638866,0
4334,3.705979754219759,0
4335,6.112388574430001,0
4336,-2.782209876694147,0
4337,1.3027047949840613,0
4338,-0.4032052621376481,0
4339,0.17959793019483966,0
4340,-0.017657893314587437,0
4341,-0.016443140553125346,0
4342,0.05545610710762042,0
4343,0.05126924587031513,0
4344,0.07245056467712828,0
4345,0.09395202254711538,0
4346,0.024374383531219675,0
4347,0.06301165434714107,0
4348,0.06505500426653997,0
4349,0.11807088641488667,0
4350,0.5433988360367215,0
4351,5.743317946588455,0
4352,3.242693450905361,0
4353,-2.5333469905978903,0
4354,1.573223561224946,0
4355,-0.7153080323951216,0
4356,0.38219222040926076,0
4357,-0.10539068579786026,0
4358,0.18298828672986578,0
4359,0.09311732377971176,0
4360,0.1494370327210933,0
4361,0.07220182113150005,0
4362,0.12995609161224597,0
4363,0.036109863993291816,0
4364,0.156766349914011,0
4365,0.14955616591525348,0
4366,0.10535370648480265,0
4367,1.9025909579151037,0
4368,7.083621187020098,0
4369,-0.4389146042219216,0
4370,-0.6407579896414337,0
4371,0.669339369386186,0
4372,-0.24495915106018085,0
4373,0.15485590828780785,0
4374,-0.05614955345421628,0
4375,0.01964633860002102,0
4376,0.06619399668592879,0
4377,0.06522543264121153,0
4378,0.10072140555026521,0
4379,-0.03789299514327487,0
4380,0.05633386372688723,0
4381,0.008959507020916753,0
4382,0.04078848826290443,0
4383,0.167426967751429,0
4384,3.6363942817472505,0
4385,6.089537645608576,0
4386,-2.772039938459582,0
4387,1.2001211428756562,0
4388,-0.40937576074589277,0
4389,0.21232258658976538,0
4390,-0.051701926134370677,0
4391,0.11424080928978536,0
4392,0.07938682356690134,0
4393,-0.037140338472081744,0
4394,0.05211830948354259,0
4395,0.12906965234695625,0
4396,0.03131113934300875,0
4397,0.11510209307714009,0
4398,0.10326905046101562,0
4399,0.16939161825912874,0
4400,0.628557600363316,0
4401,5.977504474015031,0
4402,3.178793086988321,0
4403,-2.437904570745426,0
4404,1.6302453335627383,0
4405,-0.7570246792031594,0
4406,0.4127195048394855,0
4407,-0.05692952479203386,0
4408,0.06779794611149731,0
4409,0.069585325666702,0
4410,0.08470026058352177,0
4411,0.04945979907144102,0
4412,0.004440322125461353,0
4413,0.03976789533850711,0
4414,-0.013115670675237018,0
4415,-0.052037430062811495,0
4416,0.06519124836011732,0
4417,1.746752861496254,0
4418,6.942026219367961,0
4419,-0.4459397128656868,0
4420,-0.7013041647449078,0
4421,0.6607444322639313,0
4422,-0.24389760035870725,0
4423,0.18621686654705272,0
4424,-0.01802103675733871,0
4425,-0.027142606658260085,0
4426,0.14160691873032244,0
4427,0.03600079592448023,0
4428,0.0897178056295698,0
4429,0.1204631194902468,0
4430,0.18730471357982326,0
4431,0.1965902463808466,0
4432,0.19254835547079857,0
4433,0.36480420637885913,0
4434,3.8154795314349683,0
4435,6.167628473165595,0
4436,-2.7241649098619822,0
4437,1.328492003585418,0
4438,-0.39867008290171047,0
4439,0.33899404500031916,0
4440,-0.1020918397287809,0
4441,0.09235948228481847,0
4442,0.07663369273944245,0
4443,0.08262835060352225,0
4444,0.05616365521893213,0
4445,0.04938801210254425,0
4446,0.025044693186422932,0
4447,-0.05217534951401371,0
4448,-0.06130757582200633,0
4449,0.06186287973575679,0
4450,0.7068865447808859,0
4451,5.866156268032285,0
4452,3.046812169134252,0
4453,-2.582902932295941,0
4454,1.5847654411180667,0
4455,-0.6849450092491599,0
