timestamp,value-0,is_anomaly
0,0.3028252545064368,0
1,4.621470978852649,0
2,5.06461220418867,0
3,-2.939134499842597,0
4,1.5867979000732262,0
5,-0.5909864290807283,0
6,0.32193008167090903,0
7,-0.02377931886779896,0
8,0.17999017229531342,0
9,0.11251680801935005,0
10,0.10888772983340067,0
11,0.21058995783715256,0
12,0.19024597301183338,0
13,0.16342512936316062,0
14,0.09617951073324126,0
15,0.13995970871562016,0
16,0.11971495661921927,0
17,1.1117995746163971,0
18,6.483627648306124,0
19,1.5994596753189012,0
20,-1.9406538897636954,0
21,1.3368715003194451,0
22,-0.6016579322723196,0
23,0.3068518300719532,0
24,-0.12514248566397876,0
25,0.03750722280191448,0
26,-0.00907070899974406,0
27,-0.02787070973332884,0
28,0.009398450677147854,0
29,-0.02052830497216919,0
30,-0.017809792438876024,0
31,0.013765150223808784,0
32,-0.009389485355278074,0
33,0.06697750102740721,0
34,2.5014698766072145,0
35,6.959661400627329,0
36,-1.72165376849044,0
37,0.2151401042443249,0
38,0.19473906200909888,0
39,-0.07469337253411797,0
40,0.1166147167060864,0
41,0.12014063545234377,0
42,-0.009150478944836005,0
43,-0.0748777972455795,0
44,-0.04661197786526436,0
45,0.029460733372594704,0
46,0.06821984090339817,0
47,0.013204362559777541,0
48,0.05258721242324452,0
49,-0.00031309841051034354,0
50,0.2995741545774103,0
51,4.5551897324857,0
52,4.987424625406419,0
53,-3.001789700388272,0
54,1.5040713092608926,0
55,-0.7522849707544348,0
56,0.2651043260094362,0
57,-0.11658406859339356,0
58,0.051221285969007616,0
59,-0.04164146145520614,0
60,-0.04810923300742957,0
61,-0.009335820637791484,0
62,0.024167979428769172,0
63,-0.06500365167929055,0
64,-0.0011707180087459049,0
65,-0.007147068096330681,0
66,0.04883182357566021,0
67,0.9636755776133926,0
68,6.4715369442814685,0
69,1.6631450487565222,0
70,-1.8286781852019949,0
71,1.3340489416885026,0
72,-0.6235578050991909,0
73,0.32168541282980917,0
74,0.000647535935661879,0
75,0.062168132604764476,0
76,0.0790308198406751,0
77,-0.034648529439660805,0
78,0.1113707852583303,0
79,-0.0012306398857568693,0
80,0.012686070164689743,0
81,-0.029825251423234504,0
82,-0.0029417536216262558,0
83,0.15672581092684068,0
84,2.54171725131386,0
85,6.912141603037476,0
86,-1.7095480604378623,0
87,0.30128148536538457,0
88,0.2130125114280007,0
89,-0.04323609560009244,0
90,0.1063006292753102,0
91,0.009092760612519443,0
92,-0.05530205912512223,0
93,0.05471925118302144,0
94,0.03907368247215405,0
95,0.007574851376078095,0
96,-0.03952735025491989,0
97,0.021016159572530793,0
98,0.08991393104143786,0
99,-0.03809531743288032,0
100,0.2985474915144229,0
101,4.525006875120522,0
102,4.904125512462148,0
103,-3.037506132499856,0
104,1.603411446126005,0
105,-0.7624621012938526,0
106,0.2887201240996578,0
107,0.011979320958660958,0
108,0.1274191745928482,0
109,0.051374828324247584,0
110,0.11641067539900524,0
111,0.07887634855725081,0
112,0.014916499163636184,0
113,-0.024221193302931633,0
114,0.04739117806384952,0
115,0.03190146757922765,0
116,0.020045952540888177,0
117,0.899428742381783,0
118,6.492219959443386,0
119,1.5517228358652395,0
120,-1.9500410786842435,0
121,1.155892567691676,0
122,-0.584679362152751,0
123,0.3888953708047491,0
124,-0.02933399078550615,0
125,0.050364607904133524,0
126,-0.06530104421989869,0
127,-0.003995432246488932,0
128,0.015016138761873556,0
129,-0.0032733124288743766,0
130,0.04470823189762131,0
131,0.04822968635864235,0
132,-0.02724434799047986,0
133,-0.06106113604275212,0
134,2.476123539693536,0
135,6.890251155296744,0
136,-1.732022754182829,0
137,0.24046451213982215,0
138,0.14089185709591295,0
139,-0.1125636840901855,0
140,0.042563119059480105,0
141,0.07137636940533228,0
142,0.04574245864489512,0
143,0.08547825823945657,0
144,0.03807192608576192,0
145,0.12535043963310477,0
146,0.014624233592347012,0
147,0.04443572246897271,0
148,0.05448323238683201,0
149,0.0918920828042783,0
150,0.30083837679559733,0
151,4.639418015502483,0
152,4.9809599140666725,0
153,-3.0041599728506463,0
154,1.47715027442518,0
155,-0.6787686376007951,0
156,0.3277933166935037,0
157,-0.09918151789282423,0
158,0.0939167360437044,0
159,0.030624521551741155,0
160,0.10202680480956697,0
161,0.01947822073939972,0
162,0.07466822242231119,0
163,0.025194609300589803,0
164,-0.05502733740363312,0
165,0.09257749913414824,0
166,0.030510136368057397,0
167,0.9606222725736508,0
168,6.536051057072579,0
169,1.5697767504006697,0
170,-1.9920472716436934,0
171,1.2614591473770127,0
172,-0.662667470697225,0
173,0.36807253968127984,0
174,-0.10171855336477442,0
175,-0.005840789362805768,0
176,0.023284192474214885,0
177,0.03995913426237112,0
178,-0.08108160390191776,0
179,-0.03152704178226946,0
180,-0.010664731331347344,0
181,0.038088451337485965,0
182,-0.05655923668866185,0
183,0.025576986483791975,0
184,2.4839783123865486,0
185,7.011258284314469,0
186,-1.743426241456307,0
187,0.2651276581667989,0
188,0.23208187366640043,0
189,-0.0461373095884414,0
190,0.08787720074498798,0
191,0.11340870042477083,0
192,0.08992507133450346,0
193,-0.009019307376488116,0
194,0.017034227667305127,0
195,0.06270585606003828,0
196,-0.029416039825150567,0
197,0.038210265136673444,0
198,-0.009447905409718214,0
199,0.006924457218017147,0
200,0.1685143519656484,0
201,4.613244880227934,0
202,4.881214438108342,0
203,-3.067285971982384,0
204,1.4872792487595021,0
205,-0.7360700480940713,0
206,0.1816799970191194,0
207,-0.11204803567123703,0
208,-0.046551882650732505,0
209,0.002502766911450932,0
210,0.0014929688522406573,0
211,-0.11464195629441064,0
212,-0.02739931692008249,0
213,-0.05415457156053061,0
214,0.06451074599900675,0
215,-0.050432593701626866,0
216,-0.018790022807816224,0
217,1.0395288253758455,0
218,6.511951668678157,0
219,1.3784750592340276,0
220,-1.89627503463605,0
221,1.2616575045602976,0
222,-0.5485995717271652,0
223,0.3216966083332749,0
224,-0.07220150750601348,0
225,0.013894697338245022,0
226,0.006496519129866401,0
227,-0.049942633272278374,0
228,0.06505993221458467,0
229,0.03754929849240572,0
230,-0.02268408919528228,0
231,0.044213248931166696,0
232,0.061355872556356106,0
233,0.016755291922566553,0
234,2.6091231912828468,0
235,6.805072591656681,0
236,-1.8638893027485246,0
237,0.2890343743982373,0
238,0.062157787784102615,0
239,-0.14829192444692194,0
240,-0.045421583441722674,0
241,0.03012861339604135,0
242,0.014985146421742167,0
243,-0.037887457351914386,0
244,0.03587790078744586,0
245,-0.042009301993716414,0
246,-0.0018268596020048905,0
247,0.06962723614387209,0
248,-0.01975095586517083,0
249,-0.12526514257258317,0
250,0.2837530209708699,0
251,4.593999184633603,0
252,4.92470492248036,0
253,-2.9904476778344136,0
254,1.5247920742958814,0
255,-0.7723577207880268,0
256,0.25859775992092293,0
257,-0.09616373365191545,0
258,0.0466675263057586,0
259,-0.03130801180532557,0
260,-0.10776795507107582,0
261,-0.06406548059190213,0
262,-0.08584047047988813,0
263,-0.07403829525667731,0
264,-0.11583553066613465,0
265,-0.00856411655413313,0
266,-0.05950375002311007,0
267,1.0975282223961171,0
268,6.5468590913366,0
269,1.4231154410042717,0
270,-1.8575178870140525,0
271,1.2471691063442567,0
272,-0.7199232008963814,0
273,0.2196518160406623,0
274,-0.036677006294267636,0
275,0.06283259965858717,0
276,-0.01033049081516163,0
277,0.04791064528177058,0
278,0.004445909590882824,0
279,0.0578662029036699,0
280,0.008332128600095296,0
281,0.062224980749374076,0
282,0.1001453499759111,0
283,0.015450172135348841,0
284,2.5841421517433596,0
285,6.919279906397047,0
286,-1.86131364805303,0
287,0.3232212785136302,0
288,0.16490370112681188,0
289,-0.06957823627810711,0
290,-0.018894494093095453,0
291,0.07616418413161681,0
292,0.08258513908791781,0
293,0.038719056568962115,0
294,-0.03004454913388018,0
295,-0.0033779448883922373,0
296,0.006933304221683824,0
297,-0.17162125761504765,0
298,-0.02556241248444909,0
299,-0.036827551425819297,0
300,0.2423034309357344,0
301,4.65053181501962,0
302,4.8007356128000795,0
303,-3.1289125577457324,0
304,1.523425574815153,0
305,-0.7961773838394955,0
306,0.25757819755353145,0
307,-0.12699814143908697,0
308,0.10098751035222642,0
309,0.057884602847572846,0
310,0.017744561483828518,0
311,0.02002858495056889,0
312,-0.027937029614514552,0
313,-0.04647676949055402,0
314,-0.021739921000613414,0
315,0.0666356047993027,0
316,-0.10084604091592796,0
317,1.00418578187299,0
318,6.502898792203104,0
319,1.3163987017100964,0
320,-1.990766934176822,0
321,1.15402204229675,0
322,-0.6881019573252263,0
323,0.2778058010369078,0
324,-0.0874967118739245,0
325,-0.000773736322905894,0
326,0.034370382329125856,0
327,0.018041348146139745,0
328,-0.10273691997662707,0
329,0.05960007266039124,0
330,0.031920643815319165,0
331,0.014499261043390142,0
332,0.0462494829531859,0
333,0.04555153698392422,0
334,2.600739427662959,0
335,6.88808994182147,0
336,-1.7970126704284834,0
337,0.3096846039285808,0
338,0.2077000247922726,0
339,-0.023439801175489904,0
340,0.036182762782564284,0
341,0.07727342719069182,0
342,0.05429762174763984,0
343,0.0953375871311974,0
344,0.06497725459498006,0
345,0.14053928764535226,0
346,-0.03905082298595687,0
347,0.10338600432151832,0
348,0.1166043707150261,0
349,-0.020901010339869568,0
350,0.32640316897310095,0
351,4.640600999241932,0
352,4.813786402818843,0
353,-3.048513124800942,0
354,1.522093337985095,0
355,-0.7033241111420291,0
356,0.2992603983088723,0
357,-0.0012070838889498975,0
358,0.10066658849991894,0
359,-0.051279763051451197,0
360,0.01899425181348075,0
361,0.15520718157966923,0
362,0.02594560720563028,0
363,-0.01678290725385062,0
364,0.024000254257587957,0
365,-0.029904764897618993,0
366,0.09777646917833321,0
367,1.0042852163302398,0
368,6.578732200731223,0
369,1.3586996813525414,0
370,-1.8034857210442476,0
371,1.2277427199365412,0
372,-0.5891415373153835,0
373,0.3457253471135887,0
374,0.010071236605279768,0
375,0.06782962913089154,0
376,0.11531859741293832,0
377,0.03914559493884753,0
378,0.001893710528975974,0
379,0.06669807424312268,0
380,0.12230841194035999,0
381,-0.07614408657143458,0
382,0.03723592949390165,0
383,0.07663121608177441,0
384,2.6037125618087202,0
385,6.90496181810043,0
386,-1.8540554309772557,0
387,0.2757664625928238,0
388,0.14810838456604122,0
389,-0.1261294111820762,0
390,0.0458293740180861,0
391,-0.06734944687597104,0
392,-0.055425392924955956,0
393,0.07392716687340944,0
394,0.08277068225454758,0
395,0.027723312877857342,0
396,0.032249116763541835,0
397,0.028571966161335643,0
398,0.08055325350954314,0
399,0.021006667694741056,0
400,0.3401242153348069,0
401,4.825895644831482,0
402,4.888083066812877,0
403,-2.990510504292759,0
404,1.7101789559545795,0
405,-0.7598317903614775,0
406,0.37802010994224566,0
407,0.0005360347762306955,0
408,0.017389500566469027,0
409,0.05052160832910341,0
410,0.029172057633927488,0
411,0.07661707549491742,0
412,0.042992522863315896,0
413,0.06921541899166812,0
414,-0.01893699523905793,0
415,0.11342136646953953,0
416,0.11101508900255966,0
417,1.0505642512109883,0
418,6.584050800500637,0
419,1.3890483289294795,0
420,-1.8339623440228285,0
421,1.2209782355337373,0
422,-0.5232821021773758,0
423,0.27371843923429423,0
424,-0.03479088570588694,0
425,0.05070992794143351,0
426,0.015126944556975701,0
427,-0.024219583208673075,0
428,0.09624154845928724,0
429,-0.026387925260959552,0
430,0.13477524851843742,0
431,0.04706528658525676,0
432,0.04609696105823574,0
433,0.12361417277061029,0
434,2.6268373875947324,0
435,6.878773361405958,0
436,-1.8534231416214824,0
437,0.3382709100576182,0
438,0.16288309603580295,0
439,-0.09524856808301907,0
440,0.04113378592063324,0
441,0.07054654281035475,0
442,0.038181274101302363,0
443,0.02739047184005056,0
444,0.0025436701001202086,0
445,0.004455392015964857,0
446,-0.06793745965126316,0
447,0.08645045916758627,0
448,0.09269833799676486,0
449,0.06499351736751166,0
450,0.3594664296672933,0
451,4.711162198669985,0
452,4.763026839396733,0
453,-2.9804711794836263,0
454,1.5783957774503101,0
455,-0.78056041597933,0
456,0.36754080520204313,0
457,-0.17167428895544584,0
458,0.00913783282555676,0
459,0.04353974246796087,0
460,0.024785006567605742,0
461,0.040954271263779124,0
462,0.008590426854610561,0
463,0.05191543788274229,0
464,-0.016839750104883963,0
465,0.005723352600616079,0
466,-0.013261346733540444,0
467,1.1232352001568175,0
468,6.627206478121025,0
469,1.3721088749119408,0
470,-1.80350324590457,0
471,1.2705346506941386,0
472,-0.559123496182459,0
473,0.32785785188623606,0
474,-0.14831871164437238,0
475,0.02938381205180899,0
476,0.05678292744280504,0
477,0.02373884022197243,0
478,0.03370388805356327,0
479,0.15395234348380096,0
480,0.06285583031215937,0
481,-0.005095185992791781,0
482,0.061248872174339206,0
483,-0.014040053759223355,0
484,2.6256051913704392,0
485,6.939785390064774,0
486,-1.9115171407765592,0
487,0.34253047422154626,0
488,0.16931839576161375,0
489,-0.04110831379280901,0
490,0.013222752946626774,0
491,0.09962937014135852,0
492,-0.00041768479580731044,0
493,0.05936900672748705,0
494,0.04154657047066258,0
495,0.07554886729775923,0
496,0.0631098322597787,0
497,0.09905295901922707,0
498,0.04544580072608566,0
499,0.10229483246745548,0
500,0.38498372759015503,0
501,4.768135990947789,0
502,4.787505455521468,0
503,-3.054369196484534,0
504,1.4853995926826278,0
505,-0.7076768418524447,0
506,0.2605951976663323,0
507,-0.09936782133559205,0
508,0.10185215621311072,0
509,0.06615980573328065,0
510,-0.0025197913963712903,0
511,-0.006130965516280191,0
512,0.01403393988045179,0
513,-0.006667317291978871,0
514,0.09437743156447774,0
515,0.051559937179190905,0
516,-0.012323782276912582,0
517,1.0487455318684304,0
518,6.541115914594738,0
519,1.3656925473521766,0
520,-1.8045487374162852,0
521,1.229926302073994,0
522,-0.6494696082012759,0
523,0.32782733676545617,0
524,-0.0942324357782341,0
525,-0.005476755043981103,0
526,-0.03366110875871673,0
527,-0.012230606428964924,0
528,-0.1288174376983024,0
529,-0.023142605552079823,0
530,-0.07535500034904244,0
531,0.05710126486558176,0
532,-0.05729826393993541,0
533,-0.029895580709554892,0
534,2.526814746142101,0
535,6.760951950033786,0
536,-1.9493955345694258,0
537,0.35493693026944073,0
538,0.1619688387074151,0
539,-0.04302584834735345,0
540,0.0947722252889819,0
541,0.015973051121005208,0
542,0.08325043062193027,0
543,0.02598964667901352,0
544,0.14763362365582527,0
545,0.10398916075893949,0
546,-0.00451037361645314,0
547,0.022914715233477566,0
548,0.07206925143815976,0
549,-0.0012341066390861117,0
550,0.26456772924861577,0
551,4.74529656682251,0
552,4.839399857935685,0
553,-3.0879376064938038,0
554,1.5193619817569743,0
555,-0.8354543374641035,0
556,0.269729417729246,0
557,-0.13167622055674263,0
558,-0.0008608043513915684,0
559,-0.08899311069460308,0
560,-0.022775561495212336,0
561,0.009730802142049223,0
562,-0.05744144427364866,0
563,-0.052805166465716986,0
564,-0.004112997824118073,0
565,0.04033806521865297,0
566,-0.02235932461983687,0
567,1.0827941460944817,0
568,6.495127093226048,0
569,1.3610723558799367,0
570,-1.8250276947781994,0
571,1.1963394966990235,0
572,-0.4883677059801341,0
573,0.4326028852689018,0
574,-0.02063992052111863,0
575,0.07995801209115497,0
576,0.05607062187567245,0
577,0.10501274006384287,0
578,0.005572077603619257,0
579,-0.043147668296293046,0
580,0.10019226082210604,0
581,-0.0816251675569507,0
582,0.017661161417737766,0
583,0.109545902576345,0
584,2.658940564385872,0
585,6.821142229172614,0
586,-1.9580522107806295,0
587,0.2324688037600651,0
588,0.051105187137637176,0
589,-0.11561101902141345,0
590,0.05854661433662187,0
591,0.03359778212794633,0
592,-0.058693032294721253,0
593,-0.030096051270843496,0
594,0.010043034293773675,0
595,-0.022658273796961628,0
596,0.038249100423341634,0
597,0.13151656257080993,0
598,-0.008548954713017646,0
599,0.06391490551789189,0
600,0.3112319085543985,0
601,4.743923709574732,0
602,4.792930651857337,0
603,-2.977740543650728,0
604,1.5787625704252894,0
605,-0.6048902598576441,0
606,0.35582968396978976,0
607,-0.08505838184851736,0
608,0.09232326299264576,0
609,0.0015228929290135532,0
610,-0.03228981790360417,0
611,-0.012677000946315218,0
612,-0.012288364840511243,0
613,-0.01397739945165726,0
614,0.05616911174782912,0
615,-0.043579474896614366,0
616,-0.06646088201678647,0
617,1.1023617103363041,0
618,6.559150972136387,0
619,1.2985104328133636,0
620,-1.8190702727143586,0
621,1.206011259926667,0
622,-0.5685849023226398,0
623,0.25835262622843524,0
624,-0.11949311091609927,0
625,0.02009773855593624,0
626,-0.010180854764759613,0
627,-0.008660250688224415,0
628,0.03654761423972346,0
629,0.00504009614855908,0
630,-0.02646416746293819,0
631,-0.04705707791253324,0
632,0.06711367928228909,0
633,0.05515748018668232,0
634,2.5728645036996647,0
635,6.847456910824404,0
636,-2.025025309441882,0
637,0.24970780469290382,0
638,0.02847362844499117,0
639,-0.0393550084994692,0
640,0.0013284387426698123,0
641,0.007734940427810952,0
642,-0.08971891912160852,0
643,-0.009117002446242108,0
644,0.03758568298206241,0
645,-0.01252460626834134,0
646,-0.029066594526281873,0
647,-0.032219196545145615,0
648,-0.09035692990471164,0
649,0.020113275594360984,0
650,0.3348582916622488,0
651,4.811946827466606,0
652,4.7422711242442634,0
653,-3.0164704109094154,0
654,1.6790644524193756,0
655,-0.7317315300973822,0
656,0.20116308634587002,0
657,-0.04551636757122464,0
658,0.02620767187120738,0
659,-0.025961745241691384,0
660,-0.015059781632861577,0
661,-0.06719599205932593,0
662,0.06947425113145508,0
663,0.041300946794475456,0
664,0.03914103727500082,0
665,-0.05007352868672267,0
666,-0.024935391932298396,0
667,1.0538805754359584,0
668,6.497628000680638,0
669,1.2934556229685743,0
670,-1.7837807170192352,0
671,1.1473894337688577,0
672,-0.6361506430525603,0
673,0.2969961116242412,0
674,-0.07565610638296168,0
675,0.03354146141334022,0
676,-0.004103357491321973,0
677,0.038135482563831535,0
678,-0.016575008082831348,0
679,-0.04363076635307847,0
680,0.045394687753146784,0
681,-0.007290401843380454,0
682,0.04912384948809691,0
683,0.05479602900091017,0
684,2.640207937773753,0
685,6.789328925514348,0
686,-2.0317784110180526,0
687,0.27790158467227766,0
688,0.012437269260966888,0
689,0.003849481960481363,0
690,-0.11047937116508233,0
691,-0.011738276426769664,0
692,-0.0070240535669935066,0
693,-0.019673194299894295,0
694,0.036801162740967855,0
695,0.12211121210061543,0
696,0.1050448123875817,0
697,-0.03825216232174396,0
698,-0.05025851713152447,0
699,0.01557434475299074,0
700,0.33747018412015384,0
701,4.821373544242762,0
702,4.727898269450275,0
703,-3.0719165823958177,0
704,1.6130673514555471,0
705,-0.7135403416272607,0
706,0.27042854748448547,0
707,-0.1124100870405457,0
708,0.08054119699007256,0
709,-0.08089086906232726,0
710,-0.04314428974556261,0
711,0.09032067361813081,0
712,-0.024885725135309726,0
713,0.06912608241784131,0
714,0.05667736182948392,0
715,0.016211940244854745,0
716,0.028910426513523917,0
717,1.0857777528537245,0
718,6.596174643243632,0
719,1.1232002048900007,0
720,-1.7893275589010478,0
721,1.1624651504097387,0
722,-0.6977146365723987,0
723,0.3290019946923504,0
724,0.035623930495012224,0
725,0.01594902727938926,0
726,-0.07971862654437605,0
727,-0.008914292676997563,0
728,0.07760237634771014,0
729,0.014318020528467984,0
730,0.02886032038268566,0
731,0.017553510973840964,0
732,-0.07746200540861198,0
733,0.15983878302448687,0
734,2.7421846158411216,0
735,6.784347716035787,0
736,-1.963716851584806,0
737,0.38415336536827227,0
738,0.05037925561992717,0
739,-0.012168831235567008,0
740,-0.056850757629458154,0
741,-0.06281163934172834,0
742,0.02253182221236589,0
743,-0.05668874269478519,0
744,-0.02303721282582436,0
745,0.013376799771115899,0
746,0.011984315962213646,0
747,-0.06765621020152275,0
748,-0.039221400116184066,0
749,0.0427384856316332,0
750,0.3463421696011294,0
751,4.784016135036581,0
752,4.727187535990551,0
753,-2.947161728996088,0
754,1.644012068916538,0
755,-0.8153687076723432,0
756,0.31281604956563086,0
757,-0.08657646491835122,0
758,0.06733028159420323,0
759,0.0773162726189898,0
760,0.04902580808972657,0
761,0.02600134162335577,0
762,0.0271066800493199,0
763,0.047800320443784135,0
764,0.11897089607013007,0
765,-0.028028298559921342,0
766,-0.050711415911595975,0
767,1.1310718813589304,0
768,6.559598942609264,0
769,1.2561641620793513,0
770,-1.7160706260923904,0
771,1.186964704266576,0
772,-0.582232994225637,0
773,0.2476303869394228,0
774,-0.06466828037818197,0
775,0.020291627947557657,0
776,0.0700716213794868,0
777,0.07071765682310491,0
778,-0.033501076388568946,0
779,0.05289165532328367,0
780,-0.04075737054908893,0
781,-0.013264000485936686,0
782,-0.035928617540526855,0
783,0.08054197580294908,0
784,2.591242554974417,0
785,6.7994835569958525,0
786,-2.0777705911574067,0
787,0.38912564869337635,0
788,0.03859128318758159,0
789,-0.14591427459047693,0
790,-0.021885353191689882,0
791,0.05445717727129404,0
792,0.02674831531610087,0
793,-0.03065409589593325,0
794,-0.03572168978028721,0
795,0.024732390685027042,0
796,-0.048939502638116424,0
797,-0.12789764679064883,0
798,0.1054030311352176,0
799,-0.08067798017054942,0
800,0.3465535691822511,0
801,4.826636247236442,0
802,4.614460141284197,0
803,-2.9991900682759276,0
804,1.5872484632999708,0
805,-0.8109193051440119,0
806,0.32136751592966933,0
807,-0.1923927034808901,0
808,-0.05197745969706539,0
809,-0.09923206369914667,0
810,-0.0346574317155397,0
811,-0.027068803397783232,0
812,-0.06642037693156039,0
813,0.08788773524022286,0
814,0.01036648621838388,0
815,0.07643185675456352,0
816,-0.08584496644149608,0
817,1.1179021049236635,0
818,6.556476691452815,0
819,1.2391125659918762,0
820,-1.6386380983135576,0
821,1.1987772459996084,0
822,-0.538274168943956,0
823,0.22904451034516368,0
824,-0.1392407860234794,0
825,0.021131619428050166,0
826,-0.12424800510277662,0
827,-0.0652817781992818,0
828,-0.0673750197274505,0
829,-0.0737560570360491,0
830,-0.1541071269738582,0
831,-0.06737714753716909,0
832,-0.044041911006955134,0
833,0.024112363018556862,0
834,2.6136752046436866,0
835,6.692443641752296,0
836,-2.0517424595197085,0
837,0.3206395575983581,0
838,0.05788170349383643,0
839,-0.09072431425901428,0
840,-0.050271337135116494,0
841,0.023394203675129857,0
842,0.01950615331114615,0
843,0.0021991108141835667,0
844,-0.04184690383568751,0
845,-0.07543045800674943,0
846,0.0813042129951994,0
847,-0.04585907355991921,0
848,-0.038565918513907824,0
849,-0.03155592271072503,0
850,0.28785160003784777,0
851,4.81937364063875,0
852,4.6379703956758265,0
853,-3.041155052104045,0
854,1.53227325055292,0
855,-0.7051395884876517,0
856,0.28170370341356177,0
857,-0.14138351440987523,0
858,-0.03499681556326882,0
859,-0.07213084985592658,0
860,-0.04847199124761399,0
861,0.06179817045431237,0
862,0.09318937154216994,0
863,0.05014772153955699,0
864,0.07301460885415012,0
865,-0.018631492702227755,0
866,0.025953491871135707,0
867,1.1047142692004757,0
868,6.546255946614798,0
869,1.0830140807557898,0
870,-1.677348663902783,0
871,1.1822309852197939,0
872,-0.6365157327798138,0
873,0.26688470304638456,0
874,-0.1333115001199961,0
875,0.0006118501094493165,0
876,0.007347266156838797,0
877,-0.10974202119107818,0
878,-0.19535997231111424,0
879,-0.1143450765672462,0
880,-0.1758446311708748,0
881,-0.1259201979525512,0
882,-0.021506209405875318,0
883,-0.0009950352715537292,0
884,2.5759602094206544,0
885,6.698407601294168,0
886,-2.1806439459877764,0
887,0.38291923594080773,0
888,-0.00405954677173237,0
889,-0.1705709018503988,0
890,-0.04909317318718518,0
891,-0.06389829065262886,0
892,-0.10537775407024419,0
893,-0.024294644224144804,0
894,0.050124254085189675,0
895,0.005974945801423402,0
896,-0.03653321703559461,0
897,-0.07116455985543965,0
898,0.017197348205566933,0
899,-0.031692409288197075,0
900,0.2935035398671942,0
901,4.743458830343006,0
902,4.504465300680217,0
903,-3.0257264981244982,0
904,1.572434926402621,0
905,-0.7999377978714457,0
906,0.23669750401712641,0
907,-0.17257906768267411,0
908,-0.0682989703032175,0
909,-0.09810956297400322,0
910,-0.00673172336049941,0
911,-0.11907313047175905,0
912,-0.10246205025109029,0
913,-0.06601206155336932,0
914,-0.024929119095588034,0
915,-0.047942140013636,0
916,-0.01378142953404669,0
917,1.1080042098002638,0
918,6.450673915000556,0
919,1.1100043214529212,0
920,-1.7662019658941905,0
921,1.1179560126863994,0
922,-0.6451624792020807,0
923,0.21130350396447622,0
924,-0.19162251544364622,0
925,0.044875740182415344,0
926,-0.011015570825292947,0
927,-0.012156215444046596,0
928,-0.09517328663819731,0
929,-0.060552387021711715,0
930,-0.007918907576187934,0
931,-0.04434078747320056,0
932,0.06680262319052292,0
933,0.03260010425705083,0
934,2.7298448468173024,0
935,6.733797904122653,0
936,-2.1150440964435773,0
937,0.415536379523886,0
938,-0.025943637034017017,0
939,-0.19522492807054898,0
940,-0.04008763424703398,0
941,0.0011060439005154757,0
942,-0.16383576509924597,0
943,0.0014221381806331472,0
944,-0.08004591851457019,0
945,0.023154359156832883,0
946,-0.006001812768818282,0
947,0.023787508643450337,0
948,-0.14287029107340532,0
949,0.054130771799867354,0
950,0.31824367930863984,0
951,4.8713235837685085,0
952,4.556259967093888,0
953,-2.9474394028930737,0
954,1.6142507189327737,0
955,-0.7663651325266193,0
956,0.2731673578359258,0
957,-0.01722423934641712,0
958,0.05313248520553365,0
959,-0.06780469405270274,0
960,0.03506058592335125,0
961,0.007319499276410604,0
962,0.10004634425873492,0
963,0.043173728042035064,0
964,0.08519445033611198,0
965,0.08994716108344353,0
966,0.010688978391527486,0
967,1.206041288079447,0
968,6.628256437039537,0
969,1.1855118657949524,0
970,-1.6671300809164507,0
971,1.120799329591525,0
972,-0.5423665878613283,0
973,0.27627319711512677,0
974,-0.06683332266600928,0
975,0.00737386005130021,0
976,0.04718389848805456,0
977,0.00157906300237819,0
978,0.014395470336038298,0
979,-0.01917989653558865,0
980,-0.12121293581274001,0
981,-0.03062965886185074,0
982,-0.053676046454748855,0
983,-0.02144400392428036,0
984,2.682496587596449,0
985,6.71327101129844,0
986,-2.1072407237942437,0
987,0.3353243161190296,0
988,-0.08166564727089975,0
989,-0.026061694484515188,0
990,-0.12140134767620467,0
991,-0.051981964902105625,0
992,-0.09497300584694168,0
993,-0.05049129668760835,0
994,-0.07189536991880839,0
995,-0.08392456867454864,0
996,0.032859127405409,0
997,-0.04203702502879564,0
998,0.05095506272480152,0
999,-0.04960967366186162,0
1000,0.315875299127269,0
1001,4.782280400860466,0
1002,4.60224376439143,0
1003,-2.995489941545867,0
1004,1.629043064241296,0
1005,-0.7253461577483014,0
1006,0.36644891657386813,0
1007,-0.03481006858749631,0
1008,0.11490157725649275,0
1009,0.07655568064858244,0
1010,0.06950728593647147,0
1011,-0.03637086680991241,0
1012,0.06053983118438744,0
1013,0.05945127499289091,0
1014,-0.02941599780677761,0
1015,0.1064016271616863,0
1016,0.09388232671888772,0
1017,1.2091616557301563,0
1018,6.704259231784349,0
1019,1.1279097035871744,0
1020,-1.658964292211592,0
1021,1.2791264567140375,0
1022,-0.4316644790190505,0
1023,0.324567941825826,0
1024,-0.0298075831930679,0
1025,0.1307015302797965,0
1026,0.04613392175740394,0
1027,0.08261868440273534,0
1028,0.0021481295561029123,0
1029,0.027488036424732895,0
1030,0.06338839954141628,0
1031,0.04170123478652943,0
1032,0.005686087972110142,0
1033,0.1341483183895709,0
1034,2.7792571863299247,0
1035,6.802274568515196,0
1036,-1.972747396778969,0
1037,0.4512930974072903,0
1038,-0.03145763197267099,0
1039,0.1242530483613028,0
1040,0.0572954384696166,0
1041,0.12150228148690373,0
1042,0.057702670201101466,0
1043,0.08452075928183933,0
1044,0.0020998042251056045,0
1045,0.07752326114523084,0
1046,0.043753029101012954,0
1047,0.044242852749831287,0
1048,0.06938934129499255,0
1049,0.06776287384472911,0
1050,0.3163763607580937,0
1051,4.8668049215212825,0
1052,4.629115164503635,0
1053,-2.885949801134728,0
1054,1.6502403858236623,0
1055,-0.7864447481546356,0
1056,0.29444049888550894,0
1057,-0.04030028485829773,0
1058,0.003758009638107393,0
1059,-0.04537972392452129,0
1060,0.08541269041574193,0
1061,0.017138992779094354,0
1062,0.00154214492706152,0
1063,-0.06763439385043778,0
1064,-0.0371239331542953,0
1065,0.05538534464445265,0
1066,-0.014507420842137679,0
1067,1.210607341757111,0
1068,6.714541117709923,0
1069,1.0499500371033939,0
1070,-1.5817578824729537,0
1071,1.2417406242225604,0
1072,-0.6486546794828985,0
1073,0.32637893124858847,0
1074,-0.10631556990726308,0
1075,-0.043746784161624266,0
1076,-0.014192541776653276,0
1077,0.025101801876195193,0
1078,0.1301742797596296,0
1079,0.031099718512197557,0
1080,0.08741934275294705,0
1081,-0.0003878513066729837,0
1082,0.09932751130862331,0
1083,0.05803280088322778,0
1084,2.7696002843494276,0
1085,6.714846290263088,0
1086,-2.057633613830775,0
1087,0.47044280501857694,0
1088,-0.10666217454785748,0
1089,-0.014632901982734158,0
1090,0.05472415362593462,0
1091,-0.0004949206053105823,0
1092,-0.034162432631295855,0
1093,-0.046530395857990244,0
1094,0.0025844015739624956,0
1095,0.025184190128310142,0
1096,0.05451119729026137,0
1097,-0.04923421416982285,0
1098,0.06971628073630914,0
1099,0.05200669419186256,0
1100,0.3619316549977857,0
1101,4.841654399227424,0
1102,4.640538552349687,0
1103,-2.950683863049462,0
1104,1.6049122489090148,0
1105,-0.7054433231564763,0
1106,0.33288146897774534,0
1107,-0.10083711962611672,0
1108,0.12799329186716465,0
1109,-0.04433992898272611,0
1110,-0.0336611120660531,0
1111,-0.02160741109921993,0
1112,0.09389595093736419,0
1113,-0.02060714430927244,0
1114,0.06282672216053213,0
1115,-0.03723804610894365,0
1116,0.048970112509603446,0
1117,1.089273451571294,0
1118,6.49467650965143,0
1119,0.9539689678376825,0
1120,-1.6553882094515324,0
1121,1.097235590072477,0
1122,-0.6117000521242306,0
1123,0.20437188316773536,0
1124,-0.20637576653657622,0
1125,0.048556972176756176,0
1126,-0.009135294324545885,0
1127,0.031140240568968466,0
1128,-0.06458042774177283,0
1129,-0.09777029303978502,0
1130,-0.08134499434394699,0
1131,0.08983341546584406,0
1132,0.040654170178250175,0
1133,0.0873263504350781,0
1134,2.7910309263344044,0
1135,6.768708164051194,0
1136,-2.134281783917738,0
1137,0.51434996100398,0
1138,0.00751017648295324,0
1139,-0.0819445051327208,0
1140,0.05900942924941058,0
1141,0.05423836792398997,0
1142,0.11259357765813739,0
1143,-0.0019580165242567907,0
1144,0.008816318287692401,0
1145,-0.004600209246833631,0
1146,0.12027718422740112,0
1147,0.03675249350868434,0
1148,0.06020350719498614,0
1149,-0.04212659195121923,0
1150,0.35761877311275714,0
1151,4.9740713917370165,0
1152,4.567533996034263,0
1153,-2.9620233348442957,0
1154,1.5285325653024728,0
1155,-0.8015577306514375,0
1156,0.34396630065783546,0
1157,-0.05344963090157878,0
1158,0.005847783866526679,0
1159,0.0033180518987217245,0
1160,0.10020822077635287,0
1161,0.07108860506941594,0
1162,-0.028300581772296086,0
1163,0.018589797149223406,0
1164,0.09005770811801005,0
1165,-0.08015698429880927,0
1166,0.020517726889729193,0
1167,1.15981978351351,0
1168,6.549410448076298,0
1169,1.0147170010487752,0
1170,-1.7437934487753328,0
1171,1.129632559940984,0
1172,-0.5621706274702207,0
1173,0.2209838171437275,0
1174,0.037001263475522496,0
1175,0.017852328875380907,0
1176,-0.046634265437036346,0
1177,0.06365638048133439,0
1178,0.06382659085815987,0
1179,0.04990388849077052,0
1180,0.053892673074373926,0
1181,0.006163254917060934,0
1182,0.11713434072515197,0
1183,0.015023105903960762,0
1184,2.7506321285460826,0
1185,6.827177270870894,0
1186,-2.0871349252406493,0
1187,0.528653902618672,0
1188,0.017724410080767476,0
1189,0.06098586529706454,0
1190,0.016775040919509203,0
1191,0.04094214283871783,0
1192,0.026485059440512177,0
1193,0.045618236889038086,0
1194,-0.10559535077039764,0
1195,-0.0525946428125139,0
1196,0.08898897590176642,0
1197,0.022272413594089855,0
1198,0.0011643067725002516,0
1199,0.11991809883319043,0
1200,0.3450623341616418,0
1201,4.907094562976125,0
1202,4.581892935505389,0
1203,-2.9338608648659985,0
1204,1.7274725126115902,0
1205,-0.7437559104112274,0
1206,0.3972123151913053,0
1207,-0.14114782350098098,0
1208,-0.01935666418978188,0
1209,0.05536302108182613,0
1210,-0.029863238002340933,0
1211,0.07119158336858886,0
1212,0.09307565210081337,0
1213,0.06450164700138224,0
1214,0.018012604120799622,0
1215,0.03604267321701406,0
1216,-0.06517338034519055,0
1217,1.2769155656307973,0
1218,6.670671796314349,0
1219,0.9269759314999036,0
1220,-1.5925127080896282,0
1221,1.1293771488483,0
1222,-0.5310752384277865,0
1223,0.2673995492616542,0
1224,-0.05814732255286804,0
1225,0.0355537176621418,0
1226,-0.022744077226952868,0
1227,-0.005354949393327951,0
1228,0.04138949853415209,0
1229,-0.017345537430003333,0
1230,0.08505053097859096,0
1231,-0.010537004333184698,0
1232,0.03524186112580866,0
1233,0.04183903001715056,0
1234,2.7637009025950015,0
1235,6.76645992630124,0
1236,-2.1204195943190296,0
1237,0.4568638976219753,0
1238,-0.006316274882150525,0
1239,-0.022984509109060386,0
1240,-0.034931519251909966,0
1241,0.06579161495326666,0
1242,-0.004673351689017249,0
1243,-0.06991939549982165,0
1244,-0.04563465650318671,0
1245,0.0009763847286448769,0
1246,-0.020464331201523866,0
1247,-0.053513699722859444,0
1248,-0.030568685839103996,0
1249,0.13323254881263835,0
1250,0.3387357105074302,0
1251,4.932931333709935,0
1252,4.408504718509029,0
1253,-2.912857380524261,0
1254,1.6469441881601048,0
1255,-0.8109322145235249,0
1256,0.268912796313759,0
1257,-0.1369330648969925,0
1258,0.001603806907507388,0
1259,0.07757531161132519,0
1260,-0.0006785897806632114,0
1261,0.06720585777177092,0
1262,0.04198756880753384,0
1263,-0.0018181828476763334,0
1264,-0.017588599952404593,0
1265,0.05834820223003643,0
1266,0.009920052064506614,0
1267,1.1934315678096492,0
1268,6.650540930254481,0
1269,0.9498174677163833,0
1270,-1.5144257127409624,0
1271,1.0779948797320817,0
1272,-0.5185629964554982,0
1273,0.2725170448428078,0
1274,0.018295232060822397,0
1275,0.02000392014630848,0
1276,0.005941091912751063,0
1277,0.059589572442855614,0
1278,0.020809004425569703,0
1279,0.03120851051839533,0
1280,0.010933660987710637,0
1281,0.03473841372752928,0
1282,0.06111357742552867,0
1283,0.019016401713078897,0
1284,2.887434579923031,0
1285,6.763122273417173,0
1286,-2.091251240518274,0
1287,0.6187665880270635,0
1288,0.06091362151625868,0
1289,0.08692885177732877,0
1290,0.0908203347155919,0
1291,0.1343134442405971,0
1292,0.02600309754128753,0
1293,0.1481814304553829,0
1294,0.13921714016160397,0
1295,0.06032326915228784,0
1296,0.0945652671423316,0
1297,0.09934870498291806,0
1298,-0.004166438091563529,0
1299,0.05006971450753556,0
1300,0.42418391261340826,0
1301,5.063662062175552,0
1302,4.556487499684647,0
1303,-2.9059307053400425,0
1304,1.662998968284652,0
1305,-0.7506296543571125,0
1306,0.24048914823646272,0
1307,-0.05003772096195123,0
1308,0.03547059909019147,0
1309,-0.000248875756082248,0
1310,0.06516752350807573,0
1311,-0.058601393776358174,0
1312,0.07317932177923385,0
1313,0.0006442169907675196,0
1314,0.005669218658058188,0
1315,0.01814258821389204,0
1316,0.04188530491476103,0
1317,1.2293108029488315,0
1318,6.67324022014757,0
1319,0.9076614125461857,0
1320,-1.6507532681129855,0
1321,1.0987618984119758,0
1322,-0.5932769103385116,0
1323,0.23790123990857048,0
1324,-0.09354977345502381,0
1325,-0.01889382057553641,0
1326,0.04093729020628506,0
1327,-0.03918566112187597,0
1328,-0.039070113542785674,0
1329,0.04767581351344709,0
1330,0.08917165992201409,0
1331,0.13066185681373377,0
1332,-0.01597018352398708,0
1333,0.07049851892498622,0
1334,2.798969547691571,0
1335,6.688803743531307,0
1336,-2.221692163149132,0
1337,0.5167747284811202,0
1338,-0.07797209504112342,0
1339,-0.08539999283549496,0
1340,-0.09415177381501234,0
1341,-0.026985283499513724,0
1342,-0.09489414146479688,0
1343,-0.06579897103877182,0
1344,-0.061381852552227556,0
1345,-0.020635327754685198,0
1346,0.002048875617069061,0
1347,-0.02470824170346582,0
1348,-0.06092187958483111,0
1349,-0.043485366916683435,0
1350,0.35258552376198116,0
1351,4.90898383567815,0
1352,4.429176044052015,0
1353,-2.988098480079108,0
1354,1.5866197708909102,0
1355,-0.8251572728219061,0
1356,0.31807288828826186,0
1357,-0.18324403129102673,0
1358,0.03357402927277198,0
1359,0.036207544376689896,0
1360,-0.08301607014429116,0
1361,-0.08979616594120955,0
1362,-0.08124378087203493,0
1363,-0.06465811805037432,0
1364,0.004331059072950644,0
1365,-0.013052992561361075,0
1366,-0.0635699031603258,0
1367,1.2664308285185597,0
1368,6.680020576460196,0
1369,0.9207167684903371,0
1370,-1.5781697390392728,0
1371,1.07351788889654,0
1372,-0.4982024588542399,0
1373,0.31805842340892254,0
1374,-0.05883364174856876,0
1375,0.046405951072129956,0
1376,-0.003538060893332584,0
1377,0.07884689976802078,0
1378,-0.02235518274907449,0
1379,0.015690988667253148,0
1380,0.06825363122516931,0
1381,0.018089609899918074,0
1382,0.05688650915260116,0
1383,0.052192311370690525,0
1384,2.830523612473131,0
1385,6.794415243398168,0
1386,-2.153856506460779,0
1387,0.5028156466855285,0
1388,-0.060560788166112545,0
1389,-0.12541070123812392,0
1390,0.09861466337090756,0
1391,0.03283872460079587,0
1392,-0.08931876022565424,0
1393,-0.03517452587560168,0
1394,-0.07797109999869727,0
1395,0.12250090843787471,0
1396,-0.01384005043561224,0
1397,-0.020963122906253354,0
1398,-0.0675412412468048,0
1399,-0.044569237176345075,0
1400,0.3188735974392562,0
1401,4.880491903097131,0
1402,4.44405756545052,0
1403,-2.9681027653305767,0
1404,1.5065933002678429,0
1405,-0.7906376823867908,0
1406,0.3014562686810401,0
1407,-0.18548910573422903,0
1408,0.04587785000445217,0
1409,-0.014114014272245474,0
1410,-0.10576651668108131,0
1411,-0.06687809008547277,0
1412,0.021506362371769394,0
1413,-0.07775361572897724,0
1414,-0.1253326895653147,0
1415,-0.0130951522645576,0
1416,0.009670245012545431,0
1417,1.1621206281833165,0
1418,6.6983358333541165,0
1419,0.7939468699466133,0
1420,-1.6121739803432136,0
1421,1.0155271114228133,0
1422,-0.5496644191105717,0
1423,0.20127545435438207,0
1424,-0.13027995343958737,0
1425,-0.04332952024617023,0
1426,-0.06232945870168699,0
1427,0.03484232361909656,0
1428,0.014076426456235188,0
1429,0.03686724533597946,0
1430,-0.08305741838815711,0
1431,-0.03664734976064581,0
1432,-0.05468900338347289,0
1433,0.03915702978065219,0
1434,2.9203371079719798,0
1435,6.5986936057360985,0
1436,-2.130590461092202,0
1437,0.5891405149706657,0
1438,-0.03230288990153039,0
1439,-0.08700780619409176,0
1440,0.07393960619644899,0
1441,0.011639524243914281,0
1442,-0.014239466177617323,0
1443,-0.03214485797036881,0
1444,-0.023438176397314263,0
1445,-0.02552329986573653,0
1446,-0.04895877801257227,0
1447,-0.0010386763897240504,0
1448,0.07360125276050747,0
1449,-0.07477748049203231,0
1450,0.2916681327864874,0
1451,4.889757010679323,0
1452,4.406373367347553,0
1453,-2.9943147026153207,0
1454,1.5794103104954083,0
1455,-0.8635164246170153,0
1456,0.33576860607810355,0
1457,-0.17011066230666422,0
1458,-0.05161246620658283,0
1459,0.002004551429149244,0
1460,-0.05652708663708339,0
1461,-0.05457713215349633,0
1462,-0.03344380543255582,0
1463,-0.07572766352581319,0
1464,-0.12624378717864573,0
1465,-0.04650565779959643,0
1466,-0.0989959285984905,0
1467,1.209058265115041,0
1468,6.719218474676791,0
1469,0.80915672950051,0
1470,-1.5693351919979739,0
1471,0.9964059523272752,0
1472,-0.5489804325836942,0
1473,0.261796650050763,0
1474,-0.02020123256588214,0
1475,0.11953135450023626,0
1476,0.058576158763738576,0
1477,-0.03337029109250443,0
1478,0.07142537472274946,0
1479,0.013794006054590037,0
1480,0.0208291539665437,0
1481,-0.04807732584498513,0
1482,0.05677523899585337,0
1483,0.10803986259234072,0
1484,2.880695965121399,0
1485,6.758540536867894,0
1486,-2.314151141469173,0
1487,0.5793684428795005,0
1488,-0.07061760858491259,0
1489,-0.07168883720859874,0
1490,0.08336293572135903,0
1491,0.0047404206984887265,0
1492,-0.015952522442795172,0
1493,-0.03773886291966476,0
1494,-0.00892632678970727,0
1495,-0.0007296264035893318,0
1496,0.022109715326760267,0
1497,-0.029627041804122192,0
1498,-0.020434434279883024,0
1499,-0.1049702450641173,0
1500,0.35749256067022656,0
1501,4.947788106225243,0
1502,4.418440419193475,0
1503,-2.9192967669398358,0
1504,1.66876532790547,0
1505,-0.7244029197816995,0
1506,0.2939610279641909,0
1507,-0.10076274852537302,0
1508,0.0643632017121491,0
1509,0.07853776709444388,0
1510,0.034413802160734475,0
1511,-0.0317880530141129,0
1512,0.13102141065287026,0
1513,0.023154432926796982,0
1514,-0.04244250831850467,0
1515,0.04893803732769343,0
1516,-0.02782948260010283,0
1517,1.2645518964793765,0
1518,6.679892460798715,0
1519,0.8237303302062401,0
1520,-1.548683183021281,0
1521,1.0179155224524876,0
1522,-0.4931421276122972,0
1523,0.17634449248962458,0
1524,-0.17932849285731162,0
1525,0.06029130809631179,0
1526,-0.040667195069538906,0
1527,0.022373582688856346,0
1528,-0.0229535315730744,0
1529,0.10242180869438414,0
1530,0.06479930881584413,0
1531,0.08807249950167442,0
1532,0.09345331568990638,0
1533,0.09081174263122548,0
1534,3.0105578522506717,0
1535,6.72676996913112,0
1536,-2.163074549568014,0
1537,0.5599736238498968,0
1538,-0.014828936927203678,0
1539,0.08211273465216584,0
1540,0.02066632536162595,0
1541,0.0930489442029303,0
1542,0.08912942957738351,0
1543,0.0037294027112326836,0
1544,-0.06535236926958105,0
1545,0.09470936289859117,0
1546,0.07380402358079623,0
1547,-0.007712058321162063,0
1548,0.015990652235215543,0
1549,0.027789930904101923,0
1550,0.3957961452233509,0
1551,5.113946915235392,0
1552,4.389527518703677,0
1553,-2.9192340606315383,0
1554,1.724360140181283,0
1555,-0.7375951603617134,0
1556,0.36819674988420026,0
1557,-0.07195961740677068,0
1558,0.09640328060850133,0
1559,0.035764517571097706,0
1560,0.14599444423281843,0
1561,-0.048252989503565165,0
1562,-0.005913558287977169,0
1563,0.09384963020192671,0
1564,-0.00972575515168135,0
1565,0.061391691058496595,0
1566,0.024125176121264975,0
1567,1.224748448923909,0
1568,6.680705257885091,0
1569,0.7402561849692729,0
1570,-1.5890532511413074,0
1571,0.9211036734707085,0
1572,-0.6437900861167596,0
1573,0.17021253030779981,0
1574,-0.12524071075450777,0
1575,-0.013958471465332148,0
1576,-0.08657079937659963,0
1577,-0.03828444395520259,0
1578,-0.033739677167445886,0
1579,0.012421496309529333,0
1580,0.0035799203693932247,0
1581,-0.010593549743428486,0
1582,-0.09662817568570237,0
1583,0.05869909015410071,0
1584,2.9367111460662385,0
1585,6.730292876515266,0
1586,-2.2060626580639506,0
1587,0.6425544049945858,0
1588,0.024529695443987323,0
1589,0.07360711498859429,0
1590,0.025979132379227034,0
1591,0.13094934092861843,0
1592,0.0707924576009726,0
1593,-0.02762282682425234,0
1594,0.0857516940054027,0
1595,-0.04035026729427153,0
1596,0.04032352681995387,0
1597,-0.028125515811158006,0
1598,0.07674096534034225,0
1599,0.006040108781866798,0
1600,0.4234478622807903,0
1601,5.041734775249119,0
1602,4.433102053285697,0
1603,-2.8384170579581336,0
1604,1.5769410660154948,0
1605,-0.7262078998806433,0
1606,0.33045685544923875,0
1607,-0.14071847947660585,0
1608,0.056016361711724166,0
1609,-0.03839615860500504,0
1610,-0.05114239526231446,0
1611,0.11038584931277816,0
1612,-0.022714907436991186,0
1613,0.026481633529364102,0
1614,-0.04660334469406304,0
1615,-0.0347144806148224,0
1616,-0.05026224522302723,0
1617,1.2735749043120157,0
1618,6.702532061497147,0
1619,0.7859032938513161,0
1620,-1.6116322490347053,0
1621,1.0528537280128343,0
1622,-0.5858998510740281,0
1623,0.275362910854276,0
1624,-0.09157177641234943,0
1625,0.01955407857652066,0
1626,0.06221145183508561,0
1627,-0.016086094070788686,0
1628,-0.09576700590998996,0
1629,-0.0030922228210672783,0
1630,-0.013743233435165349,0
1631,-0.04087561806626095,0
1632,0.06474344252258339,0
1633,0.13602980141240203,0
1634,2.875971621103336,0
1635,6.735958936544282,0
1636,-2.296905754533274,0
1637,0.56038092934885,0
1638,-0.09038721481768672,0
1639,0.01345401144942402,0
1640,-0.023162992696536808,0
1641,-0.07755582897192873,0
1642,-0.0723843417944863,0
1643,-0.0082259905693936,0
1644,0.0008047030211728833,0
1645,0.038387129025926864,0
1646,0.02713520238319239,0
1647,-0.1374857801803321,0
1648,-0.10424191385222692,0
1649,-0.05051943040764581,0
1650,0.3151752121388103,0
1651,5.0054569614099425,0
1652,4.350945427096871,0
1653,-2.910975458434216,0
1654,1.5180731102914247,0
1655,-0.8240924325614115,0
1656,0.2897526057969294,0
1657,-0.08448211611635725,0
1658,0.03234523168199793,0
1659,-0.03727919609735607,0
1660,-0.008039281666474406,0
1661,0.019313148818079284,0
1662,-0.0604760182040399,0
1663,0.0026658855942259217,0
1664,0.004178663229667583,0
1665,0.030699251394440755,0
1666,0.021838233089372168,0
1667,1.2185484922148473,0
1668,6.699647821012329,0
1669,0.7325801049613927,0
1670,-1.5377488258844567,0
1671,1.0053952073657704,0
1672,-0.6038670086374288,0
1673,0.1458203702909785,0
1674,-0.14371728067080392,0
1675,-0.0007151853578040556,0
1676,0.01871880968404767,0
1677,-0.11555271639787137,0
1678,-0.03466668541813533,0
1679,-0.005952429209786343,0
1680,-0.02306788454618997,0
1681,-0.08167050495340958,0
1682,-0.02383596770742485,0
1683,-0.043202738890256095,0
1684,2.770845136970261,0
1685,6.681644580439133,0
1686,-2.4205641481893063,0
1687,0.5505259107619846,0
1688,-0.2043634935020375,0
1689,-0.02798749316210939,0
1690,-0.07856092558882498,0
1691,0.03352718102102041,0
1692,-0.04394965918545456,0
1693,-0.09789575968249342,0
1694,-0.043083803793745955,0
1695,0.008648847784882733,0
1696,-0.03566697519910916,0
1697,-0.020530154490361954,0
1698,-0.06366625815900498,0
1699,-0.021257518857834584,0
1700,0.30980050222726513,0
1701,5.059295721292416,0
1702,4.3107270529091615,0
1703,-2.999422310789123,0
1704,1.6130453693072162,0
1705,-0.8010851694804136,0
1706,0.31811419637522476,0
1707,-0.09126774324433223,0
1708,0.0035439963466395233,0
1709,0.05024028799500795,0
1710,0.09653882706962871,0
1711,-0.020023746705922624,0
1712,-0.09628108155378498,0
1713,0.08272493183212194,0
1714,-0.08998538931631875,0
1715,0.029283193528183853,0
1716,0.04587249260672199,0
1717,1.2781256378462558,0
1718,6.71106216065377,0
1719,0.8031040364797168,0
1720,-1.5845710186046422,0
1721,0.9905203829312003,0
1722,-0.5311399244665872,0
1723,0.17761761559563632,0
1724,-0.1816348900489818,0
1725,0.0021222958294053462,0
1726,0.07184361580194638,0
1727,0.05015157475182347,0
1728,0.01469965436585237,0
1729,0.06700061576883497,0
1730,-0.02171073402818157,0
1731,0.00794729539237057,0
1732,-0.027267597777089096,0
1733,0.0948460245448137,0
1734,3.0242550332567792,0
1735,6.761415847232521,0
1736,-2.2121669102915167,0
1737,0.6917807161226854,0
1738,-0.04792825010819765,0
1739,0.08635547736104837,0
1740,-0.018159532993054103,0
1741,0.15049274818488628,0
1742,0.14764439113905808,0
1743,0.03110682475748376,0
1744,0.12825360237396838,0
1745,-0.02114039787904677,0
1746,0.14881699817919636,0
1747,0.08674872718327488,0
1748,0.03706203219058883,0
1749,0.07424334621223895,0
1750,0.5152936609339203,0
1751,5.158899174878699,0
1752,4.454917287811388,0
1753,-2.8404542375307438,0
1754,1.6133017398611078,0
1755,-0.6965644192188152,0
1756,0.419429504336497,0
1757,-0.11530785663944515,0
1758,0.1417341963837648,0
1759,0.1505029845205535,0
1760,0.051978728363743176,0
1761,0.0511077567456675,0
1762,0.048543716925081075,0
1763,0.06763127000855403,0
1764,0.001228129502884437,0
1765,0.14993875823039104,0
1766,0.07123991983681058,0
1767,1.314689039890141,0
1768,6.903630666255904,0
1769,0.7000081705889978,0
1770,-1.431567278129632,0
1771,1.0716602070229089,0
1772,-0.4559115985967217,0
1773,0.32643324869845664,0
1774,-0.013626620829884412,0
1775,0.06491131661627127,0
1776,0.07241277533292123,0
1777,0.11695172738339447,0
1778,0.10387105059235702,0
1779,0.11640335833543641,0
1780,0.050943057365958236,0
1781,0.09401784154794958,0
1782,0.12384472066571746,0
1783,0.18980788343324156,0
1784,3.0947197357546776,0
1785,6.706889130155787,0
1786,-2.212319557934813,0
1787,0.7331903830162698,0
1788,0.08650359260143904,0
1789,0.043803573347057145,0
1790,0.21657871140984755,0
1791,0.07554374627794763,0
1792,0.01857973173015315,0
1793,0.14491355687618104,0
1794,0.12984779403266045,0
1795,0.15683666049840334,0
1796,0.13837638865784613,0
1797,0.10886076993482495,0
1798,0.20472213494761482,0
1799,0.06928320307645211,0
1800,0.4459864177961097,0
1801,5.155380201628745,0
1802,4.335645678168133,0
1803,-2.8328245246022825,0
1804,1.7009113635547017,0
1805,-0.7049441650567129,0
1806,0.5024256975306578,0
1807,0.0039407651943616385,0
1808,0.12732757650468976,0
1809,0.20200885306898278,0
1810,0.11301156141546385,0
1811,0.1388981991715383,0
1812,0.16536448348696825,0
1813,0.13150826639560695,0
1814,0.11425428006280013,0
1815,0.15956420713486347,0
1816,0.22109066572658423,0
1817,1.3333783262685088,0
1818,6.928315092216655,0
1819,0.8362701711601325,0
1820,-1.337323449324382,0
1821,1.136577691087783,0
1822,-0.35449740229325943,0
1823,0.3641961566529941,0
1824,-0.06513153765125675,0
1825,0.12641387165002824,0
1826,0.2069218442777222,0
1827,0.10118717955633141,0
1828,0.12021662708197514,0
1829,0.18845287681355866,0
1830,0.13033221615975593,0
1831,0.16814582626392163,0
1832,0.1253115479624924,0
1833,0.25766233632880486,0
1834,3.143819066766006,0
1835,6.828234665401137,0
1836,-2.1631230316052408,0
1837,0.8110959903054562,0
1838,0.08141638129930426,0
1839,0.19610968501165923,0
1840,-0.03835060410285701,0
1841,0.07450847359265132,0
1842,0.07426803761837328,0
1843,0.12054162334327032,0
1844,0.16059300564261692,0
1845,0.11912109825611795,0
1846,0.15117878564445805,0
1847,0.13586135751002626,0
1848,0.1831776033236651,0
1849,0.18304900218367523,0
1850,0.5561970333475097,0
1851,5.216742373315093,0
1852,4.3925632228643225,0
1853,-2.713243752755062,0
1854,1.6522075319337133,0
1855,-0.6118012762035064,0
1856,0.3314566665742557,0
1857,0.033342264692236154,0
1858,0.11737974245312148,0
1859,0.10550541867225859,0
1860,0.06088715866564622,0
1861,0.07088841322735284,0
1862,0.08211328923317093,0
1863,0.04233194748994825,0
1864,0.04762790625350278,0
1865,0.10565976508957295,0
1866,0.16443558599551644,0
1867,1.4192067981127172,0
1868,6.826285404742718,0
1869,0.8004814147628438,0
1870,-1.4531914818636573,0
1871,1.100531100731833,0
1872,-0.46906590444808893,0
1873,0.34368464261789305,0
1874,-0.02433131801530583,0
1875,0.118918519908743,0
1876,0.12696302216017477,0
1877,0.14596646742170938,0
1878,0.1557682046787338,0
1879,-0.007851793404210397,0
1880,0.22279577221611208,0
1881,0.13211756265882946,0
1882,0.07543558222556876,0
1883,0.18132733925720834,0
1884,3.0425127984544944,0
1885,6.7482740865146145,0
1886,-2.3358741656289332,0
1887,0.5972582109702119,0
1888,-0.032897557507196806,0
1889,0.0733307521769183,0
1890,0.004974232278057919,0
1891,0.10024012119815041,0
1892,0.04302318399209273,0
1893,-0.005940152810688,0
1894,0.04171985427314964,0
1895,0.05966631016170028,0
1896,0.06495039642354308,0
1897,0.10565107899727452,0
1898,-0.02386741548079785,0
1899,0.07042925144830767,0
1900,0.4262096549851764,0
1901,5.169003896816447,0
1902,4.333372369908599,0
1903,-2.83557929657012,0
1904,1.7092996356681704,0
1905,-0.7771222471667509,0
1906,0.48575042645851807,0
1907,-0.07988952039340576,0
1908,0.12693773646399897,0
1909,0.06961566746457121,0
1910,0.047654223819988184,0
1911,0.12441547301998232,0
1912,0.030841828881778256,0
1913,0.028735555258602566,0
1914,0.1453436390776934,0
1915,0.0017297111193566445,0
1916,0.0732203961232397,0
1917,1.3836072392041232,0
1918,6.791846861880262,0
1919,0.736490928368696,0
1920,-1.4282281343641914,0
1921,1.0999145031660682,0
1922,-0.5123080819818385,0
1923,0.2539819473286407,0
1924,-0.02674227213385493,0
1925,0.10096822577281953,0
1926,0.06721789581128365,0
1927,0.09033537543060365,0
1928,0.19629033129548096,0
1929,0.08367722102346901,0
1930,0.0458148669501324,0
1931,0.0867007076379352,0
1932,0.07427170126055531,0
1933,0.13001072491136947,0
1934,3.0904078290211476,0
1935,6.674597921632343,0
1936,-2.3112762962142583,0
1937,0.7690897770401041,0
1938,-0.11964285214536496,0
1939,0.08369838408528595,0
1940,-0.016778704065254127,0
1941,0.09733522678115947,0
1942,0.11064791129768345,0
1943,0.04634079423524416,0
1944,0.05921599599349256,0
1945,0.09907802190984592,0
1946,0.07296959421698349,0
1947,0.11898145993858569,0
1948,0.02628528897609049,0
1949,-0.03221556819004976,0
1950,0.45478958403247366,0
1951,5.201973984783543,0
1952,4.179837850729286,0
1953,-2.8533075742207656,0
1954,1.5961523776212911,0
1955,-0.6637667661065201,0
1956,0.4457264446772038,0
1957,-0.08073199216444191,0
1958,0.06553640185713488,0
1959,-0.002972506310285568,0
1960,0.03406341949259756,0
1961,0.018559648578613624,0
1962,0.00781248634182209,0
1963,-0.07613949476301296,0
1964,0.016971479294810146,0
1965,-0.033914282383332134,0
1966,-0.014268175892604953,0
1967,1.327496093099377,0
1968,6.7538628350707075,0
1969,0.6813748604480891,0
1970,-1.5220129845001065,0
1971,0.9885976329544442,0
1972,-0.5082373200971116,0
1973,0.2589601696399114,0
1974,-0.014289981356395039,0
1975,0.11055705362110402,0
1976,0.011761071398315743,0
1977,0.03627344773915997,0
1978,0.07577076717668596,0
1979,0.0295664528716489,0
1980,0.01762526468408621,0
1981,0.00034262898183692013,0
1982,-0.029862565901901637,0
1983,0.1514818329284303,0
1984,2.9102598652990292,0
1985,6.597003732163354,0
1986,-2.3303404160908467,0
1987,0.7083179947549998,0
1988,-0.10896453456423015,0
1989,-0.01143476136003058,0
1990,-0.030349057887074024,0
1991,0.0075569146704360934,0
1992,-0.031536253100195345,0
1993,-0.08036599709326732,0
1994,-0.018540570426880426,0
1995,0.026082603548659725,0
1996,-0.04582703526597681,0
1997,-0.03807797709802167,0
1998,-0.07517854479321706,0
1999,0.027751956367157382,0
2000,0.46265336125066664,0
2001,5.126972078495604,0
2002,4.166834915491111,0
2003,-2.828196104474441,0
2004,1.5730714114177995,0
2005,-0.9293626601928812,0
2006,0.2863741716017339,0
2007,-0.1738410310712303,0
2008,-0.007320693131160485,0
2009,0.07852545331755564,0
2010,-0.06585598586916108,0
2011,-0.07659701305829666,0
2012,-0.01859981281586985,0
2013,-0.10614328938142127,0
2014,-0.07044763441862724,0
2015,-0.07601400743976544,0
2016,0.008665641245501204,0
2017,1.1942304335525076,0
2018,6.683806774421137,0
2019,0.5335634248236499,0
2020,-1.414308729622196,0
2021,1.002053125677828,0
2022,-0.536112071442773,0
2023,0.2571172102108184,0
2024,-0.15436995986930657,0
2025,0.016109265458257267,0
2026,0.02263816551083092,0
2027,0.13873682367361168,0
2028,0.06814514008463306,0
2029,0.04799839960542195,0
2030,0.022058669154578617,0
2031,0.006394072579523003,0
2032,-0.0660832645792466,0
2033,0.10567282682174128,0
2034,2.9572167938928806,0
2035,6.578220302615554,0
2036,-2.4445712980837127,0
2037,0.727606987530059,0
2038,-0.20420007896316825,0
2039,-0.03977617186779555,0
2040,-0.05883596134380706,0
2041,0.014938979654686543,0
2042,0.018638818375728047,0
2043,-0.035548981553606536,0
2044,-0.0963303635383222,0
2045,0.02014768924346575,0
2046,-0.07809176292356224,0
2047,-0.009196596812976583,0
2048,-0.0964633019777917,0
2049,-0.049040416360633554,0
2050,0.43299187884422763,0
2051,5.165220713892109,0
2052,4.1341845534124975,0
2053,-2.866327246342895,0
2054,1.5939957207319417,0
2055,-0.8585565489595086,0
2056,0.3331736910736605,0
2057,-0.1486932457609608,0
2058,-0.016934389211173954,0
2059,-0.030735494147743167,0
2060,-0.033966658276901374,0
2061,-0.03579565095765377,0
2062,0.04087699630239165,0
2063,-0.049337542715845756,0
2064,-0.026678928476145627,0
2065,-0.033520371860337454,0
2066,-0.050738113778357664,0
2067,1.309290153010259,0
2068,6.7527746250246174,0
2069,0.5231366682566998,0
2070,-1.4892701344903643,0
2071,0.9625677597546939,0
2072,-0.6177867949912432,0
2073,0.22500726047888314,0
2074,-0.10762650254716703,0
2075,0.002455308839681996,0
2076,0.02058241985553544,0
2077,0.004837849711559712,0
2078,-0.055884196443947674,0
2079,-0.02920908222777144,0
2080,0.04471765871594096,0
2081,0.03979169341816916,0
2082,-0.008890995626069886,0
2083,0.05051628649190681,0
2084,3.1352613924074255,0
2085,6.5687613393345705,0
2086,-2.3484777027078856,0
2087,0.7282386682065343,0
2088,-0.13149754222927357,0
2089,0.006189930191925791,0
2090,-0.02181018003251283,0
2091,0.05285858849729183,0
2092,0.03356550693360228,0
2093,-0.03319382561751855,0
2094,0.10247113340275002,0
2095,0.03218978160444538,0
2096,0.11321928915852965,0
2097,0.07616169523960066,0
2098,-0.005126619328245171,0
2099,-0.0004222915734986739,0
2100,0.5449927675191517,0
2101,5.180774933136412,0
2102,4.191018306190715,0
2103,-2.8642128199893264,0
2104,1.6018931058891013,0
2105,-0.8234618454315111,0
2106,0.3824205419485607,0
2107,-0.10643789078818182,0
2108,0.014136971116329469,0
2109,0.01010639260069613,0
2110,0.05567884827278966,0
2111,-0.09877458432332865,0
2112,-0.03916646949987745,0
2113,0.014495159870022478,0
2114,-0.013002438912367069,0
2115,0.06365911996996465,0
2116,-0.031270607329062367,0
2117,1.2247748508712708,0
2118,6.830741330711497,0
2119,0.5821517255741049,0
2120,-1.3768209802879063,0
2121,1.1064329519957314,0
2122,-0.5840343059980524,0
2123,0.289152023101961,0
2124,-0.03546274345997295,0
2125,0.07853569259086889,0
2126,-0.016851067485689944,0
2127,0.008851675697254348,0
2128,-0.034857763711071674,0
2129,0.08941910846919959,0
2130,0.08437732220557162,0
2131,0.024286700829890755,0
2132,0.03049623094638504,0
2133,0.20843502253692603,0
2134,3.0946894985774933,0
2135,6.575270921364188,0
2136,-2.421343763924761,0
2137,0.7408258774411908,0
2138,-0.18600067336334908,0
2139,0.10253856299463374,0
2140,-0.013903330330732162,0
2141,0.030095359032897888,0
2142,0.04305432810511064,0
2143,0.05438062211124803,0
2144,0.003153745126014371,0
2145,-0.01698809070392393,0
2146,0.025727698537676612,0
2147,-0.03531100996001574,0
2148,0.03365924859992999,0
2149,0.07891020184974283,0
2150,0.4380038739040179,0
2151,5.232383656004807,0
2152,4.118441979534424,0
2153,-2.884452630315022,0
2154,1.6703755862382548,0
2155,-0.7899256075892459,0
2156,0.26554685016087126,0
2157,-0.15956944584902136,0
2158,0.024732904357867253,0
2159,-0.012828073160166558,0
2160,0.004672945671461502,0
2161,-0.021466456296472827,0
2162,0.019040880945429786,0
2163,-0.08293188859874825,0
2164,-0.04613757486739064,0
2165,0.018473400220480506,0
2166,-0.07175051594306713,0
2167,1.266863032222287,0
2168,6.834620218947402,0
2169,0.5331596255554383,0
2170,-1.3219262642495213,0
2171,0.8744023529244583,0
2172,-0.44839062215769476,0
2173,0.18716120290224766,0
2174,-0.21704063174820887,0
2175,0.03599116177499537,0
2176,-0.04720367165440227,0
2177,0.08984165089896644,0
2178,0.16003203502033925,0
2179,-0.043337749986038045,0
2180,0.042251940526199544,0
2181,-0.0062080272902622635,0
2182,-0.001978630123969217,0
2183,0.013442626451482073,0
2184,3.0625527747261785,0
2185,6.495098884034172,0
2186,-2.422109857509663,0
2187,0.6833967598750326,0
2188,-0.13548592166629608,0
2189,0.024398055941242596,0
2190,-0.03835700343848845,0
2191,0.02412458711738879,0
2192,0.015841743049532463,0
2193,-0.012582794857636467,0
2194,0.10208625967019043,0
2195,-0.03725211092739043,0
2196,-0.005871341328664237,0
2197,0.034381748043350646,0
2198,0.03644489215797394,0
2199,-0.06107849265376336,0
2200,0.43584549051358695,0
2201,5.281070796131018,0
2202,4.052701592655779,0
2203,-2.891090933678151,0
2204,1.591460212188921,0
2205,-0.8538884285646896,0
2206,0.43303139581755606,0
2207,-0.09636659646137423,0
2208,0.004338821221947307,0
2209,0.05844440681254253,0
2210,-0.031002325275165936,0
2211,0.003827248749947998,0
2212,0.015746927095766697,0
2213,-0.05421086893966368,0
2214,-0.06925093956965747,0
2215,0.030775864988814395,0
2216,-0.0011771359384504538,0
2217,1.280143082150188,0
2218,6.838402853363719,0
2219,0.48890334220949977,0
2220,-1.4364548145487617,0
2221,0.9462060931411664,0
2222,-0.5636006442628272,0
2223,0.17921327757258626,0
2224,-0.0834753472640952,0
2225,-0.006207950318961393,0
2226,0.12372270964645384,0
2227,0.05304826746178697,0
2228,-0.005361096875493729,0
2229,-0.09179668768293703,0
2230,-0.09027141182540195,0
2231,-0.06616332622750662,0
2232,-0.05705986301131789,0
2233,-0.009385340684562656,0
2234,3.081412285005871,0
2235,6.501664057618407,0
2236,-2.47404364169267,0
2237,0.667171390302279,0
2238,-0.23697328329709158,0
2239,0.05854541843152542,0
2240,-0.078681610087196,0
2241,-0.06480210919845639,0
2242,-0.0030306778375815135,0
2243,-0.03677212540506398,0
2244,-0.01006083181733336,0
2245,0.04838694314056371,0
2246,-0.025920776919927967,0
2247,-0.06333809879238284,0
2248,-0.018702813778591197,0
2249,-0.04615298280447598,0
2250,0.40166035521725324,0
2251,5.293475860255701,0
2252,3.977988795180833,0
2253,-2.875810511575848,0
2254,1.6715571196509937,0
2255,-0.8075804962661781,0
2256,0.3386565271943396,0
2257,-0.09358053429036414,0
2258,0.09990997382726294,0
2259,-0.01927206149723578,0
2260,0.0030219080326076182,0
2261,-0.040738183966605335,0
2262,-0.05598995822561535,0
2263,0.0014845629864879799,0
2264,0.04682174154877647,0
2265,-0.09138325459603625,0
2266,-0.11589362476171976,0
2267,1.3060472272256574,0
2268,6.7114860198753625,0
2269,0.41661537079951905,0
2270,-1.3210662887419025,0
2271,1.0274819467989083,0
2272,-0.4359024732492392,0
2273,0.22554529716145907,0
2274,-0.009021061188544427,0
2275,0.043753360801594254,0
2276,-0.04349557522379262,0
2277,-0.050749744200663215,0
2278,0.0352153817599023,0
2279,0.04996913506366096,0
2280,0.06386910428113171,0
2281,-0.10359544173877598,0
2282,0.002833276469384363,0
2283,0.13599415167611256,0
2284,3.086122488120927,0
2285,6.572302424971275,0
2286,-2.459706590719899,0
2287,0.8705200435397935,0
2288,-0.16204007247897764,0
2289,0.039359540500476964,0
2290,0.005716710556747388,0
2291,0.0004941093046651641,0
2292,0.1287549107601029,0
2293,0.055282937628275304,0
2294,0.04135669004457859,0
2295,0.06095248279667643,0
2296,0.005303619695097206,0
2297,-0.017004033963189103,0
2298,0.0549699668527408,0
2299,-0.02280557030130357,0
2300,0.4252426170924774,0
2301,5.148800910536556,0
2302,4.1085948553231955,0
2303,-2.946364312111646,0
2304,1.51063792871029,0
2305,-0.7394140202641961,0
2306,0.2979214941318058,0
2307,-0.11705922852528738,0
2308,-0.004866493568028055,0
2309,0.001470816353583525,0
2310,0.04515459609568619,0
2311,-0.022787967465119838,0
2312,-0.024599764926088116,0
2313,-0.040808337738345454,0
2314,-0.012963651871441339,0
2315,0.01406727188610602,0
2316,0.04642012017798186,0
2317,1.3652403333678529,0
2318,6.808379474150211,0
2319,0.5139427210179638,0
2320,-1.3169000721019783,0
2321,0.9932512829781098,0
2322,-0.5605276859886824,0
2323,0.25586002772469124,0
2324,-0.10713673437303982,0
2325,0.03728543517849299,0
2326,-0.0495811935807217,0
2327,0.06801113223759657,0
2328,-0.03097780339660163,0
2329,-0.01232170509116341,0
2330,0.03133847262767756,0
2331,-0.10629445158243356,0
2332,-0.09831684122718429,0
2333,0.06473672497103411,0
2334,3.1185761343274687,0
2335,6.484201670925584,0
2336,-2.4958131316779224,0
2337,0.6925498433180758,0
2338,-0.10829199650849378,0
2339,0.07136430020524497,0
2340,0.01958906955424243,0
2341,0.04550183121476249,0
2342,0.13143193844067727,0
2343,-0.012755941065011128,0
2344,0.11026475844959888,0
2345,-0.03351850432964476,0
2346,0.06606777939946243,0
2347,0.022281300978224998,0
2348,0.020410778832672755,0
2349,-0.03604765370915056,0
2350,0.46721920241149845,0
2351,5.229782506026154,0
2352,4.012729655801882,0
2353,-2.850051495630832,0
2354,1.7175580633868246,0
2355,-0.7598879826584166,0
2356,0.44000056318981856,0
2357,-0.13288168273868836,0
2358,0.018521182881422252,0
2359,0.012080476592534637,0
2360,0.0372003176191293,0
2361,-0.08353369486691492,0
2362,0.08058910898251238,0
2363,-0.024765007438114484,0
2364,0.0021762890835857014,0
2365,0.0016303440204018345,0
2366,-0.05256296680508439,0
2367,1.4270539046100346,0
2368,6.855384242385365,0
2369,0.5116417481991744,0
2370,-1.3288417302123414,0
2371,0.9295319972068727,0
2372,-0.5332013027537057,0
2373,0.19110361721669403,0
2374,-0.12392628020094028,0
2375,0.06540126398610778,0
2376,0.004615546626707958,0
2377,0.04793243489847961,0
2378,-0.041995321345656624,0
2379,0.0040631520171321356,0
2380,-0.01734692513116054,0
2381,-0.04952326977104084,0
2382,0.041286157935190644,0
2383,0.042327396301475605,0
2384,3.1112059340850173,0
2385,6.6338360048586145,0
2386,-2.441652269190831,0
2387,0.7528497280056742,0
2388,-0.14892254543776945,0
2389,0.14479664041969556,0
2390,0.024461161458471183,0
2391,0.018299031456622608,0
2392,0.11059759648655569,0
2393,0.036295637142585095,0
2394,0.009080604417051934,0
2395,0.10394945455212136,0
2396,0.02063734230605824,0
2397,0.09092842896248526,0
2398,-0.04662584812293142,0
2399,-0.02790678786754608,0
2400,0.40406229962228646,0
2401,5.232040509039525,0
2402,3.964412346346696,0
2403,-2.953970204000293,0
2404,1.5619482378534395,0
2405,-0.8718842101794999,0
2406,0.3498712458146849,0
2407,-0.24129950537778638,0
2408,-0.023171237229155532,0
2409,-0.04081868067888749,0
2410,-0.09328347187644762,0
2411,0.01200709219456864,0
2412,-0.014458618470381745,0
2413,-0.09080137589895322,0
2414,-0.06159863178940364,0
2415,-0.10181583896974548,0
2416,-0.007176377231487534,0
2417,1.3981271297184572,0
2418,6.774492376164114,0
2419,0.42593539785494977,0
2420,-1.3574319144006786,0
2421,0.9357884077575541,0
2422,-0.5952741307932089,0
2423,0.15562880720007188,0
2424,-0.18399141558798987,0
2425,-0.012010811655311501,0
2426,-0.0568449998419817,0
2427,-0.05058483274365358,0
2428,-0.03651708652498583,0
2429,-0.011559801385243526,0
2430,-0.07354173662572297,0
2431,-0.08500883303627507,0
2432,-0.044032615281993606,0
2433,0.06025627898642956,0
2434,3.1818466056256653,0
2435,6.3916015008982425,0
2436,-2.5829129715521186,0
2437,0.6350917471125105,0
2438,-0.2146292910512591,0
2439,-0.04243031415538896,0
2440,-0.1659896261884255,0
2441,0.03836285060692758,0
2442,-0.13656766979917384,0
2443,0.024004144733678484,0
2444,-0.07964812440941327,0
2445,-0.08080533973904298,0
2446,-0.048866613137260824,0
2447,-0.022601943167042195,0
2448,-0.09495565610479434,0
2449,-0.025192583058299176,0
2450,0.37975934251382726,0
2451,5.324673975254441,0
2452,3.9748308230120353,0
2453,-2.8727087517530503,0
2454,1.6047606812016195,0
2455,-0.7463809592122604,0
2456,0.34564133256323126,0
2457,-0.040891409770804805,0
2458,-0.03473298687805478,0
2459,-0.006147569250392396,0
2460,0.0020001336839309027,0
2461,-0.10038266348128573,0
2462,0.04365590679963289,0
2463,-0.014332221087084753,0
2464,-0.04232046005308158,0
2465,0.01675307390910602,0
2466,-0.01068003298479597,0
2467,1.3772624332827592,0
2468,6.727621132273563,0
2469,0.3342403664729815,0
2470,-1.3564289313020708,0
2471,0.8911069955149218,0
2472,-0.4543214419468749,0
2473,0.1391203106453636,0
2474,-0.028816131754887092,0
2475,0.005722886602362589,0
2476,-0.08376156318917502,0
2477,-0.07231818430908578,0
2478,-0.04405358723754689,0
2479,-0.05517420539539839,0
2480,0.026127367573642007,0
2481,-0.12076690620641867,0
2482,-0.024191749070436103,0
2483,-0.018895175852162105,0
2484,3.1012696788958563,0
2485,6.473057189295997,0
2486,-2.554229858592466,0
2487,0.73437781488946,0
2488,-0.25457178572947103,0
2489,-0.0085147892843154,0
2490,-0.06138463196359553,0
2491,-0.026507822101189273,0
2492,0.004775834526531731,0
2493,-0.06040883955383632,0
2494,-0.018920998519895524,0
2495,-0.005070701448190524,0
2496,0.010251180445300219,0
2497,0.020255171406415032,0
2498,-0.04579161119064776,0
2499,0.04264933398400584,0
2500,0.4967863345272665,0
2501,5.3378627678184625,0
2502,4.000009477569472,0
2503,-2.8588996409082776,0
2504,1.5975884137042897,0
2505,-0.8328158573230727,0
2506,0.3740363554725329,0
2507,-0.15587931892411488,0
2508,0.11451304972262287,0
2509,-0.01742252942786467,0
2510,-0.028575065748011306,0
2511,0.12444726981505753,0
2512,0.13445958941587546,0
2513,0.008881268055032383,0
2514,-0.02808727448583654,0
2515,0.017652574558430528,0
2516,0.14801173920386462,0
2517,1.4020698409383154,0
2518,6.791283119815998,0
2519,0.3904879803795613,0
2520,-1.2928212165224195,0
2521,1.0286531551607065,0
2522,-0.3812578681161861,0
2523,0.32528999019762916,0
2524,0.04547427208180031,0
2525,0.12316724447204148,0
2526,0.0035575244399804126,0
2527,0.008122645698406837,0
2528,0.10864920411385715,0
2529,0.10429324064469649,0
2530,0.025348372229287583,0
2531,0.1468141082590591,0
2532,0.07834065369983725,0
2533,0.15655505355221275,0
2534,3.2332223840449124,0
2535,6.537792587851845,0
2536,-2.4523849352836202,0
2537,0.8148700852988537,0
2538,-0.1683872444509246,0
2539,0.13289903684538734,0
2540,0.05594470852445771,0
2541,0.19029947748093778,0
2542,0.023476451220532383,0
2543,0.07326984027454418,0
2544,0.03767368626872883,0
2545,-0.026461327390454488,0
2546,0.03912848843017401,0
2547,-0.05140397259772451,0
2548,0.02261628264581652,0
2549,0.07544594820222494,0
2550,0.5672571752776026,0
2551,5.34003136188346,0
2552,4.059437847967181,0
2553,-2.837302296082397,0
2554,1.575270081575208,0
2555,-0.7211716147710057,0
2556,0.2746562411977572,0
2557,-0.20343199728331604,0
2558,0.0320347962436597,0
2559,0.0051932767476060415,0
2560,0.03310807854205337,0
2561,-0.02002551769042383,0
2562,-0.05841323756823896,0
2563,-0.037323874741488,0
2564,0.044941039087269624,0
2565,0.0500770481035096,0
2566,-0.04300908527559702,0
2567,1.4514655413084754,0
2568,6.84723093775863,0
2569,0.42510222199371855,0
2570,-1.2215001041892335,0
2571,0.9903696794933075,0
2572,-0.3210166740918175,0
2573,0.23432807265290095,0
2574,0.02566103767665915,0
2575,0.12003609803824988,0
2576,0.08998269716915874,0
2577,0.11690995834021997,0
2578,0.07230737431308489,0
2579,0.1635230262497656,0
2580,0.15629399041430897,0
2581,0.010964142554547168,0
2582,0.05357889114539718,0
2583,0.18917247985858476,0
2584,3.2336291630457152,0
2585,6.635986192409495,0
2586,-2.4851194793686724,0
2587,0.835502710232911,0
2588,0.0021009693944946395,0
2589,0.11732868575949278,0
2590,0.04438015268600336,0
2591,0.19627342206111836,0
2592,0.04729605957781745,0
2593,0.018584879803010587,0
2594,0.12523069258729602,0
2595,0.0373124021336328,0
2596,0.013123168176554553,0
2597,0.08675874823859515,0
2598,0.0006806077872735516,0
2599,0.010252636944972221,0
2600,0.5561525526581053,0
2601,5.369075659551922,0
2602,3.9282670986551818,0
2603,-2.7463019475900463,0
2604,1.7058832766970335,0
2605,-0.7145437127244707,0
2606,0.477497588698062,0
2607,-0.009177228760990305,0
2608,0.1138030534749804,0
2609,0.07366341503688723,0
2610,0.1009927716407771,0
2611,0.06618850372489113,0
2612,0.15333403821544234,0
2613,-0.04416471385368362,0
2614,0.16538578780956315,0
2615,0.07213422885392219,0
2616,0.11814736042634338,0
2617,1.5536758276949043,0
2618,6.895866435850581,0
2619,0.35349793360079795,0
2620,-1.2222417612543592,0
2621,0.9609991992407452,0
2622,-0.3723793600752678,0
2623,0.3344061272905418,0
2624,0.10830931738168226,0
2625,0.1466039128167369,0
2626,0.10125315122485283,0
2627,0.030091685157425288,0
2628,0.060284300358683485,0
2629,0.12704987842100068,0
2630,0.021233256928036036,0
2631,0.09715984233584701,0
2632,-0.006961126554694247,0
2633,0.11108165218628163,0
2634,3.191375444025003,0
2635,6.483480462182643,0
2636,-2.3648816892541342,0
2637,0.9946752987261663,0
2638,-0.1441731855185796,0
2639,0.18015178694429268,0
2640,0.0684740090972647,0
2641,0.18147938942984987,0
2642,0.11905545678048035,0
2643,0.07080080571442492,0
2644,0.19913449410070938,0
2645,0.09881252961786396,0
2646,0.06873934831440973,0
2647,0.06752321232345304,0
2648,0.11178670538841604,0
2649,0.10167329560667426,0
2650,0.4478947974888274,0
2651,5.337727552424868,0
2652,3.890497277011718,0
2653,-2.8175450509579867,0
2654,1.5767123972868302,0
2655,-0.6593852765924452,0
2656,0.3924380352790047,0
2657,0.0643053126994512,0
2658,0.15150028726979134,0
2659,0.18136763632188013,0
2660,0.1299647527517071,0
2661,0.19176053509842483,0
2662,0.15895793537108638,0
2663,0.10919266904193209,0
2664,0.17278792263073758,0
2665,0.109385438707925,0
2666,0.16198671686502553,0
2667,1.4595763741949628,0
2668,6.96653701695241,0
2669,0.3648404561660907,0
2670,-1.203460850637878,0
2671,0.9774493243257101,0
2672,-0.45195441467270314,0
2673,0.2921798603297913,0
2674,-0.03909132917463033,0
2675,0.1440732222180855,0
2676,0.04944422191158049,0
2677,0.17939026550782838,0
2678,-0.055168719266243886,0
2679,0.0787373557343564,0
2680,-0.01427610676130231,0
2681,0.07658490984127862,0
2682,-0.0110200728144067,0
2683,0.050820222412194804,0
2684,3.286216372287106,0
2685,6.593165938809413,0
2686,-2.456994581712067,0
2687,1.0178441173872819,0
2688,-0.18344495184263584,0
2689,0.12970030121374856,0
2690,0.004394324416110193,0
2691,0.15004624815223175,0
2692,0.08487262753075886,0
2693,-0.010186709848641395,0
2694,0.05833425509971947,0
2695,0.04166615996786181,0
2696,0.029712944181761514,0
2697,0.04622035314481589,0
2698,0.04924033101583563,0
2699,0.05836368877459701,0
2700,0.5005743085391752,0
2701,5.32587135546324,0
2702,3.898889870570446,0
2703,-2.7706957821318983,0
2704,1.6642273772014158,0
2705,-0.7322931127213885,0
2706,0.3837968042000241,0
2707,-0.0625837504285479,0
2708,0.1462755093104296,0
2709,0.025051282311542147,0
2710,0.07966518909335345,0
2711,0.011711182867974672,0
2712,0.08411592636007253,0
2713,0.06657268613231535,0
2714,0.12641243639933858,0
2715,0.009926336799644761,0
2716,0.06647962046614396,0
2717,1.4959797335959995,0
2718,6.902124091784659,0
2719,0.2555799419955267,0
2720,-1.168189178198473,0
2721,0.9597334097376018,0
2722,-0.449398562417661,0
2723,0.266585551710939,0
2724,-0.0304231420825007,0
2725,0.11101081217103359,0
2726,0.12440492567635739,0
2727,-0.01568377743531403,0
2728,-0.018413542244213855,0
2729,-0.04506568118582168,0
2730,-0.03081727584561804,0
2731,0.09043861162381142,0
2732,0.009647766478668933,0
2733,0.09715202454304682,0
2734,3.3151546571713917,0
2735,6.542022561749076,0
2736,-2.4525445105822277,0
2737,0.9471066450767219,0
2738,-0.22541350287970954,0
2739,0.12005373673594634,0
2740,-0.008301763052372358,0
2741,0.06190320056226727,0
2742,0.0064494941526984356,0
2743,0.05567162124920197,0
2744,0.01710985577289464,0
2745,0.06811104320186852,0
2746,0.0018032166064742231,0
2747,0.04381695206367924,0
2748,-0.020670851434951523,0
2749,0.01595863805604084,0
2750,0.4565478068596839,0
2751,5.353621526835514,0
2752,3.811299566352292,0
2753,-2.83832568553171,0
2754,1.6067565081748145,0
2755,-0.806985613497939,0
2756,0.4011233979823429,0
2757,-0.21917543012148005,0
2758,0.029013232010003945,0
2759,-0.020320352396768784,0
2760,-0.00516982382604007,0
2761,0.09656146037187377,0
2762,0.026061123905584054,0
2763,-0.013104305068120426,0
2764,-0.0008592468656733465,0
2765,0.1329168574124392,0
2766,-0.026289468319080973,0
2767,1.4335816336333325,0
2768,6.851410948592864,0
2769,0.2638071164580656,0
2770,-1.1534858711462448,0
2771,0.8698397222920703,0
2772,-0.5007436985287862,0
2773,0.3154928636854529,0
2774,0.009925403208837197,0
2775,0.08191819407842842,0
2776,0.034949481771743146,0
2777,0.08576797805362626,0
2778,0.03901187966732501,0
2779,-0.049434832400002515,0
2780,0.09087264052247335,0
2781,0.0796865075394205,0
2782,0.04271626790729589,0
2783,0.16225125925561043,0
2784,3.205739040056461,0
2785,6.5959733923054555,0
2786,-2.5353345108715346,0
2787,0.8792826480606538,0
2788,-0.12399021003081796,0
2789,0.1307467481589843,0
2790,0.0951766129968247,0
2791,0.015474247113989363,0
2792,-0.002017187091124119,0
2793,-0.011264817075697584,0
2794,0.056785047933271555,0
2795,0.0008174332027612724,0
2796,-0.05510786419687619,0
2797,0.05290300240541144,0
2798,0.08199530581983291,0
2799,-0.013498985431556497,0
2800,0.468489444602171,0
2801,5.346542193463619,0
2802,3.821300518497563,0
2803,-2.7344319849157595,0
2804,1.6976703742904236,0
2805,-0.7828515866744097,0
2806,0.4738742275757456,0
2807,-0.08507018502066732,0
2808,0.05003997316696313,0
2809,0.013854794290070985,0
2810,0.08330967158836419,0
2811,0.043382982308268155,0
2812,0.10194475473070887,0
2813,0.01187620872282389,0
2814,0.11932383608674654,0
2815,0.1375527013827371,0
2816,0.09097484981514409,0
2817,1.4754243789662582,0
2818,6.908850192959464,0
2819,0.1978758412462614,0
2820,-1.1983864435728002,0
2821,0.8728993638878526,0
2822,-0.40073228332288535,0
2823,0.3172677992197446,0
2824,0.0148652823416884,0
2825,0.09909869415781712,0
2826,0.16286366186364643,0
2827,-0.009491473461256977,0
2828,0.17941866058888184,0
2829,0.037047552326889395,0
2830,0.1273116828313549,0
2831,0.09223533187785193,0
2832,0.13149030954828375,0
2833,0.20087903701244392,0
2834,3.250743541698143,0
2835,6.513472541662953,0
2836,-2.4661600286429666,0
2837,0.9729623723685392,0
2838,-0.1222447837778057,0
2839,0.12913034697899736,0
2840,-0.06178806692321187,0
2841,0.02445038898469104,0
2842,-0.0031543917442145367,0
2843,0.04010521110828508,0
2844,0.08742313210338157,0
2845,0.10679604365954416,0
2846,0.018132501690754393,0
2847,0.06474806142027068,0
2848,0.04270235229041942,0
2849,0.08775924540232673,0
2850,0.5294910729981119,0
2851,5.478793462264171,0
2852,4.058594505812925,0
2853,-2.7224173825471194,0
2854,1.6731537852206555,0
2855,-0.6883544627170367,0
2856,0.4106445152449448,0
2857,0.0348260467297154,0
2858,0.10631964458533447,0
2859,0.10297378171852176,0
2860,0.16545419257772978,0
2861,0.12260312512814475,0
2862,-0.012470133127581745,0
2863,0.11019058150117961,0
2864,0.04141741169709208,0
2865,0.0725134141869483,0
2866,0.09467202658446061,0
2867,1.4778068310488772,0
2868,6.813843942202586,0
2869,0.22351421318601222,0
2870,-1.1892975441372529,0
2871,0.8701116598258543,0
2872,-0.375109903789372,0
2873,0.21260393271840405,0
2874,0.036094636250229704,0
2875,-0.013249286957248307,0
2876,0.042107972361411755,0
2877,-0.004919170469642978,0
2878,0.05980727450101987,0
2879,-0.027637855384793755,0
2880,0.08893990055963993,0
2881,0.18194508562109696,0
2882,0.03668347676406192,0
2883,0.09446503443941139,0
2884,3.3617321725539435,0
2885,6.509650776161704,0
2886,-2.404736942587734,0
2887,0.9787441838929368,0
2888,-0.1561814615894439,0
2889,0.06515569478027017,0
2890,0.03451917314419939,0
2891,0.04585208418817128,0
2892,0.03885924511130496,0
2893,0.08715710731291273,0
2894,-0.01798988930982858,0
2895,0.013584407297859771,0
2896,-0.03289565670080914,0
2897,0.062411927614789774,0
2898,-0.01220385540341995,0
2899,0.04230267704588066,0
2900,0.45538095274639917,0
2901,5.478210158384113,0
2902,3.8486601998151313,0
2903,-2.7525161598402867,0
2904,1.4951623173185502,0
2905,-0.8222233594969721,0
2906,0.4591931126856467,0
2907,-0.1329921579952666,0
2908,0.023370715656183365,0
2909,-0.007208947127263884,0
2910,-0.07056191276802744,0
2911,-0.02290290943208469,0
2912,-0.009127002607046467,0
2913,-0.0044075703539412925,0
2914,0.044967440307377926,0
2915,0.11537467973346352,0
2916,0.04731011346562639,0
2917,1.4561641509358798,0
2918,6.9514747688833,0
2919,0.23092763236605382,0
2920,-1.2165097023287221,0
2921,0.8569804864951691,0
2922,-0.3209418822141761,0
2923,0.14816286600371725,0
2924,0.030387058442159567,0
2925,0.06364348715680629,0
2926,-0.01197159770932453,0
2927,0.030833668546962113,0
2928,-0.12362638337422682,0
2929,0.0033047395781146006,0
2930,-0.01281803116728932,0
2931,-0.04831736563873338,0
2932,-0.009805617553828867,0
2933,0.09692487031322888,0
2934,3.2710417462441606,0
2935,6.4698011827370925,0
2936,-2.638649929475531,0
2937,0.9028900648524834,0
2938,-0.2758201756547735,0
2939,0.009446789870831876,0
2940,0.03576617832362853,0
2941,0.006296959572519444,0
2942,-0.04117649721558535,0
2943,0.02068271515141851,0
2944,0.03539503722643072,0
2945,-0.041777400692822875,0
2946,-0.0610016111700453,0
2947,-0.10159536904426532,0
2948,-0.030763219630891743,0
2949,0.01286518937471844,0
2950,0.4127757919714358,0
2951,5.416089238480717,0
2952,3.707323080952704,0
2953,-2.8034617861468596,0
2954,1.5495930687021118,0
2955,-0.8201618538967325,0
2956,0.3196578131722764,0
2957,-0.13270332998197595,0
2958,-0.028546893564181084,0
2959,-0.034313184019139284,0
2960,-0.007155986447382412,0
2961,-0.01685215448740727,0
2962,0.030872581160050885,0
2963,-0.10555241178323749,0
2964,-0.08945293271002948,0
2965,-0.037833464333885486,0
2966,-0.08120681848148847,0
2967,1.4163941418657808,0
2968,6.75184944409342,0
2969,0.039763617393776665,0
2970,-1.1694238933960088,0
2971,0.8831910155854679,0
2972,-0.526283556732554,0
2973,0.15869443850812523,0
2974,-0.05128483498681281,0
2975,0.006635462309788849,0
2976,-0.01032921717382353,0
2977,-0.0314884072758714,0
2978,-0.06095640503926769,0
2979,-0.057490456399207135,0
2980,-0.031103495310225326,0
2981,0.014750255400284667,0
2982,0.09004201390796078,0
2983,0.0577499144061107,0
2984,3.30858888838631,0
2985,6.271678289099955,0
2986,-2.5817881220293195,0
2987,0.8636178916417051,0
2988,-0.30055889893231486,0
2989,0.008985859743701379,0
2990,-0.020358258830739842,0
2991,-0.0413632261121186,0
2992,-0.09754151410492118,0
2993,-0.05113740271844741,0
2994,-0.07816997319501905,0
2995,-0.03897799865471581,0
2996,-0.13895093874666042,0
2997,-0.1511159330531236,0
2998,-0.05873706433392583,0
2999,-0.10914789868982466,0
3000,0.34032374094619466,0
3001,5.352631541628927,0
3002,3.70827704791714,0
3003,-2.8765793028084428,0
3004,1.5186573525028693,0
3005,-0.8661719452990257,0
3006,0.20727065270124018,0
3007,-0.20277562789871154,0
3008,-0.11446281180632135,0
3009,-0.07613702996659169,0
3010,-0.11310946628645205,0
3011,-0.08392973248907595,0
3012,-0.10958468056978102,0
3013,-0.15453888316283287,0
3014,-0.0845324023953146,0
3015,-0.2570363353764167,0
3016,-0.10735708359656632,0
3017,1.4026765910460008,0
3018,6.69015657599574,0
3019,-0.03642652311752464,0
3020,-1.3425697300661676,0
3021,0.8285509634474072,0
3022,-0.5368440272664148,0
3023,-0.00999729229421778,0
3024,-0.21980389546770418,0
3025,-0.13909377666211273,0
3026,-0.11704224570136443,0
3027,-0.14410885523322334,0
3028,-0.10097066871090452,0
3029,-0.1387850682147088,0
3030,-0.06661348518960011,0
3031,-0.17683217758475575,0
3032,-0.11919183332764334,0
3033,-0.02040765004202152,0
3034,3.229728517663334,0
3035,6.400658095291884,0
3036,-2.73130576984741,0
3037,0.8391588966733393,0
3038,-0.3386294306562052,0
3039,0.01644984767952369,0
3040,-0.1146785615757146,0
3041,-0.07930784179344985,0
3042,-0.0517999091742102,0
3043,-0.102140605831898,0
3044,-0.06393573114443601,0
3045,-0.1207775155756446,0
3046,-0.1187883251531003,0
3047,-0.07649333182036303,0
3048,-0.053407393718248,0
3049,-0.15225853412951526,0
3050,0.4334793176332241,0
3051,5.2966515102464875,0
3052,3.6685754322212967,0
3053,-2.856317991759422,0
3054,1.40983809450809,0
3055,-0.8590923573320859,0
3056,0.19664898969338612,0
3057,-0.1707078063457583,0
3058,-0.08209398888008645,0
3059,-0.045254645151021095,0
3060,-0.13046525734761685,0
3061,-0.04893104257417709,0
3062,-0.08864266415402575,0
3063,-0.059089579383102823,0
3064,-0.11914923339912413,0
3065,-0.11005309118606935,0
3066,-0.014753070637158638,0
3067,1.3937339658938472,0
3068,6.744357953946036,0
3069,0.029466183865537038,0
3070,-1.1500584567507384,0
3071,0.827858046279133,0
3072,-0.537092019367629,0
3073,0.10925819640183022,0
3074,-0.1556027068638059,0
3075,-0.01653231713122686,0
3076,-0.05881923907460398,0
3077,-0.08928192210532643,0
3078,-0.09739727434568989,0
3079,-0.11901574356346581,0
3080,0.019750348037666746,0
3081,-0.08842837879759274,0
3082,-0.052692832380998554,0
3083,0.034877334534330395,0
3084,3.3705864733351647,0
3085,6.331293467829595,0
3086,-2.729687848621296,0
3087,0.9335920584864317,0
3088,-0.4128033818009529,0
3089,0.09557436543749845,0
3090,-0.052265169415588106,0
3091,0.013953515764819124,0
3092,-0.04678096533339636,0
3093,-0.027326402795020126,0
3094,-0.005893761753386562,0
3095,0.0335794693686469,0
3096,0.05467503774984316,0
3097,-0.07449652202882875,0
3098,-0.0628314899192988,0
3099,-0.030128152635878307,0
3100,0.39852535155029845,0
3101,5.40129853664362,0
3102,3.685910677795222,0
3103,-2.7479680379080738,0
3104,1.5829064285444874,0
3105,-0.6998920714395448,0
3106,0.23768194183405017,0
3107,-0.09435858449952261,0
3108,0.0210245978591566,0
3109,-0.026028354428247018,0
3110,0.030155706781338686,0
3111,-0.0004034152526351158,0
3112,-0.03869329163488185,0
3113,0.029161218765856717,0
3114,0.06518580606573869,0
3115,0.014464305487909123,0
3116,-0.03226629597211874,0
3117,1.5169781047558617,0
3118,6.989186498246354,0
3119,0.022281685589435947,0
3120,-1.02302039081302,0
3121,0.8509338023609254,0
3122,-0.41392501800054143,0
3123,0.20976278238032103,0
3124,-0.01794313674795797,0
3125,0.06935624163238749,0
3126,-0.08651845961468495,0
3127,0.055895353863398056,0
3128,0.10027285444487494,0
3129,-0.007117970719325364,0
3130,0.02017017905060024,0
3131,0.06964466591330185,0
3132,0.080720255626615,0
3133,0.1834292392925704,0
3134,3.4311969692841346,0
3135,6.414330993169144,0
3136,-2.5343353578602668,0
3137,0.9227412082949255,0
3138,-0.28144221841541384,0
3139,0.1584960307997811,0
3140,0.006742239424906377,0
3141,0.19761210079559677,0
3142,0.0338777548450568,0
3143,-0.017268984948943585,0
3144,-0.032696711678830946,0
3145,0.007946853884749479,0
3146,3.446704163339101e-05,0
3147,0.052859608679766856,0
3148,0.013139211387379886,0
3149,0.020478186993968826,0
3150,0.45491239708955244,0
3151,5.490186247262716,0
3152,3.690783997820325,0
3153,-2.7126826343167765,0
3154,1.5852246005401551,0
3155,-0.7478379741362109,0
3156,0.38521002164310514,0
3157,-0.11734864968591177,0
3158,-0.008810795051656425,0
3159,-0.005364020325898923,0
3160,0.04128723391570474,0
3161,-0.013107481070186784,0
3162,0.014090853593565631,0
3163,0.040126758400807656,0
3164,0.0574215185828418,0
3165,0.08384433132311228,0
3166,0.1283984158691862,0
3167,1.5243042806948104,0
3168,6.90327026773284,0
3169,-0.039724363504745765,0
3170,-1.0121622758886761,0
3171,0.867783161293397,0
3172,-0.4573420846986953,0
3173,0.18079780492268008,0
3174,-0.08154691972977708,0
3175,-0.028556259978445908,0
3176,0.050661504528639774,0
3177,-0.028118128869117957,0
3178,-0.10854502945717079,0
3179,-0.08561578532530575,0
3180,0.029968066078073806,0
3181,0.0058085513648128105,0
3182,-0.03089164434850134,0
3183,0.052795259751561324,0
3184,3.317946216274733,0
3185,6.317604025592853,0
3186,-2.537199745044402,0
3187,1.1045849396459935,0
3188,-0.25757622958464554,0
3189,0.10306619759714479,0
3190,0.044897774514953886,0
3191,0.14882079287445255,0
3192,0.14332935504134245,0
3193,0.14070521470553207,0
3194,-0.012822368816549495,0
3195,0.14787874808788865,0
3196,0.18983475292334012,0
3197,0.09350527536884558,0
3198,0.1342523260180259,0
3199,-0.04252460075646046,0
3200,0.5989727276401291,0
3201,5.5428187868632195,0
3202,3.7387211240825042,0
3203,-2.7946905271862574,0
3204,1.5717993495612803,0
3205,-0.8326524717326489,0
3206,0.4361100392001257,0
3207,-0.11798505603185107,0
3208,0.05704325725089461,0
3209,0.03121541531607988,0
3210,0.005910179249712769,0
3211,0.09642495788561717,0
3212,-0.06888990840407819,0
3213,0.11671099686132563,0
3214,-0.02567753689103126,0
3215,-0.04637017711718142,0
3216,0.10416012226295067,0
3217,1.506809286609839,0
3218,6.886193907855716,0
3219,0.018954738999215865,0
3220,-0.9549258546136037,0
3221,0.8047299459799772,0
3222,-0.42002389887543784,0
3223,0.2629728381388262,0
3224,-0.09714524495781889,0
3225,-0.02412762790484655,0
3226,0.09200300430618438,0
3227,0.09136881843304903,0
3228,0.06361689873299078,0
3229,0.026957491865174495,0
3230,-0.003356134208173475,0
3231,0.08854896015161502,0
3232,0.05010521655707735,0
3233,0.15067817937062747,0
3234,3.40506819549778,0
3235,6.400618705162499,0
3236,-2.602274335893001,0
3237,1.0046642369366479,0
3238,-0.28205677347547564,0
3239,0.01807590908539762,0
3240,-0.054400795537080514,0
3241,0.08728178872289877,0
3242,0.0048736536710611,0
3243,-0.009920833009114812,0
3244,0.05209980940119693,0
3245,-0.004269818010176444,0
3246,-0.021025739437740203,0
3247,-0.018057947246385556,0
3248,0.1143743578046713,0
3249,-0.01576740189551268,0
3250,0.5675761433957002,0
3251,5.494507730865208,0
3252,3.602669533555628,0
3253,-2.8084808929163176,0
3254,1.6285964863996345,0
3255,-0.7624881433770917,0
3256,0.3913227797814075,0
3257,-0.09023049147781263,0
3258,0.01972050091436383,0
3259,0.028239427099238792,0
3260,0.03162354910807376,0
3261,-0.003788164122395108,0
3262,0.011152287634019643,0
3263,-0.023742916403754807,0
3264,-0.03140582061930135,0
3265,0.12637256822511342,0
3266,0.026079502325749064,0
3267,1.5875558453911343,0
3268,6.869933257959302,0
3269,0.06542982563469212,0
3270,-1.0553398075535503,0
3271,0.8295838963688397,0
3272,-0.42978349704367735,0
3273,0.1538906082963774,0
3274,-0.012899677954531424,0
3275,0.01620332789850451,0
3276,0.01636115838322685,0
3277,0.01961426965382877,0
3278,0.025683759316755678,0
3279,0.030576416889508864,0
3280,0.06531408976209485,0
3281,-0.0387344055479851,0
3282,0.07221484291374404,0
3283,0.11619522970759938,0
3284,3.4594252710243163,0
3285,6.336270850536622,0
3286,-2.6456285313861057,0
3287,0.950086960570975,0
3288,-0.29421166960340656,0
3289,0.1230510750136275,0
3290,-0.04264426348747258,0
3291,-0.04764886470047269,0
3292,0.07234740837084698,0
3293,0.10150949527115227,0
3294,0.0683755733848042,0
3295,-0.020165519690267353,0
3296,-0.03509621963969109,0
3297,0.0013246685620994098,0
3298,-0.08053769636899394,0
3299,0.002768791479408059,0
3300,0.5151899283860791,0
3301,5.523276487730743,0
3302,3.628566586996757,0
3303,-2.8090649144407505,0
3304,1.5455934219083198,0
3305,-0.6998552044946565,0
3306,0.3100512814971121,0
3307,-0.22960158425822713,0
3308,0.10956740958245972,0
3309,0.021776629125776693,0
3310,-0.04117954000927554,0
3311,0.015421409440409598,0
3312,-0.016277547789584516,0
3313,0.059883745113727876,0
3314,0.02542754639852251,0
3315,0.10301227437112394,0
3316,-0.01793624786944041,0
3317,1.5482110513277072,0
3318,6.875805182970639,0
3319,-0.0561499718876669,0
3320,-1.109688504795774,0
3321,0.7268274218584995,0
3322,-0.4367706626646777,0
3323,0.19389234925875382,0
3324,-0.08846634497397313,0
3325,0.0692446685962168,0
3326,0.03939747083378634,0
3327,-0.025989152049598705,0
3328,-0.13963891041251464,0
3329,0.016056881068971365,0
3330,0.07028682118695642,0
3331,0.10264031731102032,0
3332,0.06438635171883689,0
3333,0.15210485595795786,0
3334,3.435284368313861,0
3335,6.279120602507773,0
3336,-2.6847231324792387,0
3337,1.012972194805325,0
3338,-0.2934211253631907,0
3339,0.07443803919907482,0
3340,-0.06555374284684266,0
3341,-0.030046381705774478,0
3342,-0.017136227297856337,0
3343,0.009403787283660082,0
3344,0.03789910365846349,0
3345,-0.021312150774871797,0
3346,0.101061206801011,0
3347,-0.0355145695178849,0
3348,0.009214303459251021,0
3349,0.06928061768159559,0
3350,0.5486605438716678,0
3351,5.529246470384623,0
3352,3.6575450553446887,0
3353,-2.7160319562595423,0
3354,1.5378771990493056,0
3355,-0.852603166099942,0
3356,0.3761253227817311,0
3357,-0.15762835291528018,0
3358,0.053991882358124105,0
3359,0.011196271516455554,0
3360,0.0328735335948309,0
3361,0.013831639678749138,0
3362,-0.08406117516079746,0
3363,-0.010305829407211626,0
3364,0.012811936795942247,0
3365,0.060082219364103705,0
3366,0.0568335516232813,0
3367,1.5623403699678624,0
3368,6.929927085509493,0
3369,-0.06089052431990281,0
3370,-1.030443468487188,0
3371,0.8207481907428444,0
3372,-0.3185492567806753,0
3373,0.22492382902518768,0
3374,-0.005498555139604634,0
3375,0.07913652053762536,0
3376,-0.033160218377477756,0
3377,0.07732272111907021,0
3378,0.08504484077228068,0
3379,0.03346775113046654,0
3380,0.0030621171766262376,0
3381,0.12403616780276343,0
3382,0.038241882821072784,0
3383,0.010919799960451476,0
3384,3.425489212348885,0
3385,6.265843727517046,0
3386,-2.6232440670355452,0
3387,1.012105108911126,0
3388,-0.2532899523928097,0
3389,0.19497144662607357,0
3390,-0.012884061792733902,0
3391,0.061914922486338266,0
3392,0.05265167624728606,0
3393,0.21198197067011815,0
3394,0.04420918491161152,0
3395,0.08870781002101663,0
3396,0.0026583969346653455,0
3397,0.03025862310841044,0
3398,-0.01050502880253619,0
3399,0.015821393751417293,0
3400,0.5173493131998638,0
3401,5.45642970285361,0
3402,3.535044580798691,0
3403,-2.6992451502386836,0
3404,1.526231405717783,0
3405,-0.8205824177236667,0
3406,0.3458974268102311,0
3407,-0.09114870627154664,0
3408,0.05857925197125401,0
3409,0.09097983552976899,0
3410,0.01746324244498762,0
3411,0.05550681800435533,0
3412,0.09699144544136731,0
3413,0.06075093881633702,0
3414,0.07453588206609205,0
3415,-0.011702300625709088,0
3416,0.04607603064248028,0
3417,1.6189130089215062,0
3418,6.9033072908437765,0
3419,-0.0248284598607931,0
3420,-0.97027702929741,0
3421,0.8107151591808568,0
3422,-0.3971994377516046,0
3423,0.21374329974573106,0
3424,-0.03621170781535649,0
3425,0.08412110655427767,0
3426,-0.08381078857269339,0
3427,0.06142160241120512,0
3428,0.097118914365775,0
3429,0.03548074058386906,0
3430,0.12077076796311724,0
3431,0.14037818484915474,0
3432,0.039276551388756145,0
3433,0.19973058330993193,0
3434,3.4458370020683526,0
3435,6.347774230798942,0
3436,-2.614545793496507,0
3437,0.9716101892389948,0
3438,-0.3392600145470775,0
3439,0.11906916227898548,0
3440,-0.0660077491520113,0
3441,-0.016032784223155915,0
3442,-0.04538540016656124,0
3443,0.06976442786440767,0
3444,-0.041707489195023414,0
3445,-0.08192460717816405,0
3446,-0.06693660414298762,0
3447,-0.04210915756933698,0
3448,0.012443249758792619,0
3449,-0.02830200750334936,0
3450,0.4797721255252414,0
3451,5.5954130089690155,0
3452,3.509299388417168,0
3453,-2.7654675891790776,0
3454,1.6278244708164038,0
3455,-0.7202645332424006,0
3456,0.43301590083069885,0
3457,-0.007997353438502372,0
3458,0.11410459583384673,0
3459,0.01608700820983686,0
3460,0.04772494162339472,0
3461,-0.008389740442807714,0
3462,0.073317025058625,0
3463,-0.020955176425098056,0
3464,0.0008804821927598551,0
3465,-0.052417828788674826,0
3466,-0.021506298662252146,0
3467,1.5686724864922774,0
3468,6.917558918865562,0
3469,-0.11020576531265097,0
3470,-0.9880746795294084,0
3471,0.7724918825467562,0
3472,-0.33624918789892455,0
3473,0.1510297155320041,0
3474,-0.09532494116323217,0
3475,0.013449099035430685,0
3476,-0.05388918078672366,0
3477,-0.013603518284112546,0
3478,0.024581948358300895,0
3479,-0.05828014340902157,0
3480,0.07528992083790596,0
3481,0.002998379863336475,0
3482,0.04160925039093798,0
3483,0.1799111002891256,0
3484,3.4342438708454575,0
3485,6.286837700520227,0
3486,-2.594206983719145,0
3487,1.0390064607505944,0
3488,-0.3289675893095451,0
3489,0.1443222156376053,0
3490,-0.01748094845357461,0
3491,-0.019850612366810044,0
3492,0.10030834611314846,0
3493,-0.07644744858755814,0
3494,0.0026852399125941225,0
3495,-0.010249441003660166,0
3496,-0.06103402624789114,0
3497,-0.0104243900409599,0
3498,0.01272639398731986,0
3499,-0.032244761376393816,0
3500,0.46826060000147657,0
3501,5.506382629622618,0
3502,3.5627221201052177,0
3503,-2.837387057181551,0
3504,1.5765436877179182,0
3505,-0.8132039274648508,0
3506,0.44041874246261653,0
3507,-0.08426373017111745,0
3508,0.08306180818168338,0
3509,-0.03187267132496908,0
3510,-0.06581297062334131,0
3511,-0.0013693463662885555,0
3512,-0.07604095370174282,0
3513,0.02532020580290075,0
3514,-0.03299445715252319,0
3515,-0.044165809983009174,0
3516,0.0541769417784746,0
3517,1.5582545360760705,0
3518,6.94305907680488,0
3519,-0.16346574163828775,0
3520,-1.033761483130398,0
3521,0.7524733718225081,0
3522,-0.4079201375396313,0
3523,0.12034717640737816,0
3524,-0.14231455839880533,0
3525,0.045437287819915906,0
3526,-0.023915476313676864,0
3527,0.14181129332624787,0
3528,0.13898538330980478,0
3529,0.04425032583831888,0
3530,0.15503272895317177,0
3531,0.004547875377230767,0
3532,-0.04079640819354146,0
3533,0.1318014675487817,0
3534,3.479377586789866,0
3535,6.257539540985898,0
3536,-2.6539890345005492,0
3537,1.091744110976436,0
3538,-0.3063226566192808,0
3539,0.13105921180980407,0
3540,-0.03031004039077044,0
3541,0.10174948154878324,0
3542,0.13194554930103145,0
3543,0.06288477901248801,0
3544,0.150085291174491,0
3545,0.087054746957963,0
3546,0.07203596559167526,0
3547,0.02143321106923728,0
3548,0.07255734742572614,0
3549,0.051381284906848956,0
3550,0.5966575689898038,0
3551,5.566600208698336,0
3552,3.532903540857193,0
3553,-2.7571582219964146,0
3554,1.5884132986684725,0
3555,-0.69221713294389,0
3556,0.3488101785294266,0
3557,-0.19057486567678103,0
3558,-0.014799348926704342,0
3559,0.09809515096130676,0
3560,0.0388230341366034,0
3561,-0.040164362690868385,0
3562,0.03010071626203178,0
3563,0.054615535140344076,0
3564,0.0856114170603593,0
3565,0.144529761739501,0
3566,0.07250312645336801,0
3567,1.584863068950729,0
3568,6.967018153614232,0
3569,-0.06526960495968043,0
3570,-0.8993432570728298,0
3571,0.7946750326537191,0
3572,-0.29207805266529896,0
3573,0.2303961595181729,0
3574,0.019718309129733755,0
3575,0.09833199255502982,0
3576,-0.03173765617488162,0
3577,-0.033115298154314673,0
3578,0.09328696840078836,0
3579,0.10441603750875865,0
3580,0.11423983544443003,0
3581,0.08873889045082217,0
3582,0.011022570400878458,0
3583,0.15168523492060396,0
3584,3.5509177044942244,0
3585,6.263434099058308,0
3586,-2.5917901520703563,0
3587,1.1237030771832455,0
3588,-0.27372916266683744,0
3589,0.24691753138226968,0
3590,-0.008076548180947184,0
3591,0.13272221764852177,0
3592,0.03864528788473953,0
3593,-0.054065824684808875,0
3594,0.17855124930675836,0
3595,0.0965743422323528,0
3596,0.07766281947568258,0
3597,0.17621408742774652,0
3598,0.028354810722068968,0
3599,0.037352984598244814,0
3600,0.6877860956834273,0
3601,5.521833933514133,0
3602,3.5354895204675687,0
3603,-2.6606001904600176,0
3604,1.51443318121447,0
3605,-0.7552391041645297,0
3606,0.4400846894811151,0
3607,-0.11603991662483562,0
3608,0.04044011894821665,0
3609,0.05022471121038555,0
3610,0.08233564045006372,0
3611,0.08706076531997023,0
3612,0.05053498920003959,0
3613,0.055023322320674986,0
3614,0.10982395586953574,0
3615,0.10306487872098953,0
3616,0.06207793442712316,0
3617,1.7447582244250557,0
3618,7.0150603044537485,0
3619,-0.07265672920082114,0
3620,-0.9877175890481533,0
3621,0.7870360757583089,0
3622,-0.3328231267672775,0
3623,0.24600169983226886,0
3624,0.013217310106640567,0
3625,0.0829826713625327,0
3626,0.16476775200872018,0
3627,0.13122472595279344,0
3628,0.09270768144690554,0
3629,-0.00554783812266578,0
3630,0.1049823552823625,0
3631,0.18464882785392345,0
3632,0.16098305249822656,0
3633,0.2442459796170312,0
3634,3.586925680990923,0
3635,6.316293338179606,0
3636,-2.7134182221079564,0
3637,0.9849464848630268,0
3638,-0.4146744641328703,0
3639,0.18166190773050278,0
3640,0.020081728444503334,0
3641,0.014429438202706639,0
3642,-0.009674767643654679,0
3643,0.12540262078234996,0
3644,0.057574194511871526,0
3645,0.051704363531576106,0
3646,0.06680947992777389,0
3647,0.0422581920117671,0
3648,0.055209727651447646,0
3649,0.027628033664522142,0
3650,0.6177326399281031,0
3651,5.79461831548133,0
3652,3.536383255623533,0
3653,-2.5447037874001155,0
3654,1.77405680579871,0
3655,-0.6095815059718239,0
3656,0.42221083152123917,0
3657,-0.007256734457654817,0
3658,0.12292514262731091,0
3659,0.048702865825802154,0
3660,0.07882097554473794,0
3661,0.12819420927791414,0
3662,0.08426242455834435,0
3663,0.0882706218392194,0
3664,0.1319361783021485,0
3665,0.12701900927620718,0
3666,-0.003308606217242341,0
3667,1.6635977450532344,0
3668,7.003000292106901,0
3669,-0.04755871402411131,0
3670,-0.913169231005349,0
3671,0.8134443086504353,0
3672,-0.3460671829321328,0
3673,0.18997412543683248,0
3674,0.0015599349333601624,0
3675,0.09443025458226964,0
3676,0.0783276001957219,0
3677,0.06947991055224875,0
3678,0.028133299741038655,0
3679,0.10308245999134429,0
3680,0.06815622264813277,0
3681,0.04942983003590603,0
3682,0.005649816316626796,0
3683,0.23896791787840063,0
3684,3.556065922120954,0
3685,6.349087091734052,0
3686,-2.621176470847551,0
3687,1.0868623761583345,0
3688,-0.23472139970440595,0
3689,0.14398899062391918,0
3690,0.07904797263458091,0
3691,0.012185647207670292,0
3692,0.04992921742142718,0
3693,0.03648588815284876,0
3694,0.06728330835221087,0
3695,0.12352299252584967,0
3696,0.05087941061923707,0
3697,0.1648954778734675,0
3698,0.08807112768882759,0
3699,0.07777078280279308,0
3700,0.5494628896206905,0
3701,5.6689021111608655,0
3702,3.4945435925192347,0
3703,-2.6115293772489014,0
3704,1.5681815719149255,0
3705,-0.8016776955756288,0
3706,0.38958448284441094,0
3707,-0.015936932920182646,0
3708,0.13150662760023177,0
3709,0.0876179184119484,0
3710,0.03759633824316645,0
3711,0.037996523986733435,0
3712,0.07548254621846656,0
3713,-0.03627871177431676,0
3714,-0.035572252448530614,0
3715,-0.040987160733211084,0
3716,0.059147429624376566,0
3717,1.5951960386418265,0
3718,6.946975324500168,0
3719,-0.21053946759549697,0
3720,-0.924058831045866,0
3721,0.8148404221935283,0
3722,-0.31645699249865566,0
3723,0.13458365303758849,0
3724,0.03694238261468312,0
3725,0.10105020875130084,0
3726,0.08816643208676492,0
3727,0.03791019763503958,0
3728,-0.04209089233574342,0
3729,0.038835856635152474,0
3730,0.06379749944486673,0
3731,0.13471946775275562,0
3732,0.06270545538362629,0
3733,0.12718874186685983,0
3734,3.589142340569974,0
3735,6.118552125441109,0
3736,-2.6279875068286573,0
3737,1.1377403105700363,0
3738,-0.24655216486476983,0
3739,0.1939289671678313,0
3740,0.02081507131969311,0
3741,0.021445009704994827,0
3742,0.01867720656755167,0
3743,0.06008749743933403,0
3744,0.096065580169995,0
3745,-0.011746357960740398,0
3746,-0.030325853029387707,0
3747,-0.025500933311820642,0
3748,-0.004226556853864038,0
3749,-0.015339152087945295,0
3750,0.6049245683007319,0
3751,5.601741083029644,0
3752,3.4353153207787197,0
3753,-2.6650722938619373,0
3754,1.593799759993132,0
3755,-0.7125303243609207,0
3756,0.27293599156044057,0
3757,-0.07919714022795209,0
3758,0.04239088636637471,0
3759,-0.05106435275044724,0
3760,0.023700214980161966,0
3761,0.09498272196161289,0
3762,-0.009505122465723496,0
3763,-0.005992938737009439,0
3764,-0.027921387007924084,0
3765,-0.0005283722710488076,0
3766,0.013699643691042492,0
3767,1.6192649958745922,0
3768,6.881075584904615,0
3769,-0.22365007176942173,0
3770,-0.9393948497363868,0
3771,0.7343357051656191,0
3772,-0.36055150492888,0
3773,0.22338556795193507,0
3774,-0.0008282506738866366,0
3775,0.08912072691158353,0
3776,-2.3506589135980846e-05,0
3777,0.00962416806191935,0
3778,0.03799911537832724,0
3779,0.030409572616084915,0
3780,0.012180254397763057,0
3781,-0.024178689662134316,0
3782,0.015917159197804082,0
3783,0.09144182595277481,0
3784,3.5177206906319007,0
3785,6.088643074279261,0
3786,-2.7167956569956875,0
3787,1.1616448762144644,0
3788,-0.39387304956307473,0
3789,0.17529827354296273,0
3790,-0.15942837994781522,0
3791,-0.013691081147063792,0
3792,-0.08303609953164054,0
3793,-0.022749372105271,0
3794,-0.08460819603724846,0
3795,-0.07082584702563673,0
3796,0.054312074497663634,0
3797,0.003769675255290879,0
3798,-0.037652755344693194,0
3799,0.04101310477116405,0
3800,0.6670903888214257,0
3801,5.662265320591834,0
3802,3.409385369696978,0
3803,-2.5883984109738307,0
3804,1.6978477198560848,0
3805,-0.7967479354282043,0
3806,0.34716306597719215,0
3807,-0.019850547115003496,0
3808,0.03457899986220501,0
3809,0.05984092643814952,0
3810,0.06273372230977144,0
3811,0.006814253326121858,0
3812,-0.03374656857966257,0
3813,-0.13221971819607392,0
3814,-0.0011313645325856736,0
3815,0.009451369137025286,0
3816,0.017901120482056134,0
3817,1.5729390161130365,0
3818,6.897640280257939,0
3819,-0.27048698222694706,0
3820,-0.9026279128558305,0
3821,0.7000658202020684,0
3822,-0.3279876006620473,0
3823,0.17471307359537552,0
3824,-0.019340862478627943,0
3825,0.05710470792934687,0
3826,-0.011164562273344877,0
3827,-0.023046295418300382,0
3828,-0.008554611261454608,0
3829,0.03163365137009789,0
3830,0.11790925299909673,0
3831,0.03856931738587246,0
3832,0.09603177875670271,0
3833,0.09629367535892847,0
3834,3.5566625836487105,0
3835,6.294041177968388,0
3836,-2.806961159221695,0
3837,1.019731773540622,0
3838,-0.4260679541796201,0
3839,0.05909191952965312,0
3840,-0.026629150183699157,0
3841,0.05154249553459404,0
3842,-0.012835685184260153,0
3843,-0.08070019580951236,0
3844,0.010954899883603528,0
3845,0.07308868656897463,0
3846,-0.11500902570766078,0
3847,0.031262478286842144,0
3848,-0.033740971055528646,0
3849,0.08220106242663716,0
3850,0.5759326461286339,0
3851,5.6111896439497775,0
3852,3.304300917315838,0
3853,-2.6936948956166162,0
3854,1.6410961196393385,0
3855,-0.8410581017813358,0
3856,0.36606594807332243,0
3857,-0.07219969015166033,0
3858,0.06926903331634172,0
3859,0.04975763833210949,0
3860,0.036735960585251935,0
3861,0.02767739198695672,0
3862,-0.007882558019911357,0
3863,-0.04386285713138026,0
3864,0.011497678877832918,0
3865,-0.057099602273533064,0
3866,0.04947335593431718,0
3867,1.7679834966506724,0
3868,6.962698582325723,0
3869,-0.26080369508840084,0
3870,-0.8942980926646618,0
3871,0.7057015664827984,0
3872,-0.28239611339500004,0
3873,0.1972310061893454,0
3874,-0.01530199458891392,0
3875,0.11201613305712221,0
3876,0.03947822751057998,0
3877,0.058931228537059864,0
3878,-0.04075249465728539,0
3879,-0.01286479562903763,0
3880,0.059982171882706,0
3881,-0.031880251782497496,0
3882,-0.04383194560559566,0
3883,0.06739755981720172,0
3884,3.556900433602703,0
3885,6.175207852385647,0
3886,-2.8020219375414253,0
3887,1.0827945238915704,0
3888,-0.39888666076293056,0
3889,0.042459315337114015,0
3890,-0.04626102872411643,0
3891,0.08314360432903373,0
3892,0.05443955535747103,0
3893,0.006061907916787811,0
3894,-0.029367910381136612,0
3895,-0.029611259418357638,0
3896,-0.015579873124299285,0
3897,0.03233217901113994,0
3898,-0.020045884395765302,0
3899,-0.03397148559657562,0
3900,0.5692394655633733,0
3901,5.652235273272013,0
3902,3.285476421244278,0
3903,-2.786932702594247,0
3904,1.5983108888125146,0
3905,-0.8742220458372003,0
3906,0.35245597524869765,0
3907,-0.1399285609852398,0
3908,0.07328173615306358,0
3909,0.004763378084083111,0
3910,-0.08708953324997566,0
3911,-0.08595981906515762,0
3912,-0.07829711149531322,0
3913,-0.046355469883473124,0
3914,-0.04086052946126239,0
3915,-0.027562796901151137,0
3916,-0.03910270192707325,0
3917,1.619478388562914,0
3918,6.953514794571706,0
3919,-0.411997743543062,0
3920,-0.9297823907097544,0
3921,0.7329269568612508,0
3922,-0.5044448647984597,0
3923,0.09512164761871238,0
3924,-0.015975775891191146,0
3925,0.004752055731933595,0
3926,-0.01968805230304535,0
3927,-0.028798237470094197,0
3928,-0.006785899133625102,0
3929,-0.04954256865435324,0
3930,-0.08094183063491853,0
3931,-0.011412414530347886,0
3932,-0.03477373134156407,0
3933,-0.04862104605040296,0
3934,3.3925139887177647,0
3935,6.092497335824457,0
3936,-2.7275149104915926,0
3937,1.0694308879403178,0
3938,-0.4855939789177861,0
3939,0.11696317942439817,0
3940,-0.15409831926197787,0
3941,-0.07887141217866891,0
3942,-0.0852164310821404,0
3943,-0.050284191509144274,0
3944,-0.1077244314032923,0
3945,0.034239146936655175,0
3946,0.03639941739072073,0
3947,-0.011645132030937567,0
3948,-0.09617941136196587,0
3949,-0.09239807308074113,0
3950,0.4993912287467183,0
3951,5.525129826656365,0
3952,3.2464401521730246,0
3953,-2.809652042493696,0
3954,1.4775831065650122,0
3955,-0.7723033557526826,0
3956,0.37379984009244166,0
3957,-0.2744971131125836,0
3958,0.03330924541763208,0
3959,-0.09070284290337823,0
3960,0.019625624489403783,0
3961,-0.005063556395165945,0
3962,-0.04550331781907973,0
3963,-0.05041772483800943,0
3964,-0.04151092975086369,0
3965,-0.09653165577204359,0
3966,-0.1466721015440856,0
3967,1.5299738200809392,0
3968,6.839162994326764,0
3969,-0.44083924592293106,0
3970,-0.8549983315323405,0
3971,0.6186339211751544,0
3972,-0.4260077961833309,0
3973,0.17467065846028373,0
3974,-0.15184231000199644,0
3975,-0.034917838498777595,0
3976,-0.08673504992784807,0
3977,-0.013713288806296714,0
3978,-0.10888732134565748,0
3979,-0.028590695405607228,0
3980,-0.11093868585755548,0
3981,-0.08659496632920602,0
3982,-0.08023049710872285,0
3983,-0.06881267600948016,0
3984,3.474212586529046,0
3985,6.025931026133981,0
3986,-2.8326153442175106,0
3987,1.004960159739418,0
3988,-0.39391990180334285,0
3989,0.045740499080320435,0
3990,-0.16940887193902354,0
3991,-0.12163518970037382,0
3992,-0.08337480961701024,0
3993,-0.049588966854876196,0
3994,-0.06697735922068342,0
3995,-0.0260540465257266,0
3996,-0.1164171064551616,0
3997,-0.082598782907963,0
3998,-0.0543997773085271,0
3999,-0.0879659485638151,0
4000,0.555258119144672,0
4001,5.6260824574868495,0
4002,3.2768948302589127,0
4003,-2.7535490204892628,0
4004,1.4314691540507445,0
4005,-0.827422129174096,0
4006,0.3670433513987349,0
4007,-0.11782774777513913,0
4008,-0.049642963006920685,0
4009,-0.06488765408023424,0
4010,-0.000858695099342284,0
4011,-0.014533751178735364,0
4012,-0.030498609202353352,0
4013,-0.03777435566370063,0
4014,-0.0450873375353804,0
4015,-0.05667923393835678,0
4016,-0.10941481268237313,0
4017,1.5813854787514834,0
4018,6.92135779263336,0
4019,-0.4171679300598209,0
4020,-0.7430128488569934,0
4021,0.5859576660573133,0
4022,-0.37139184936979786,0
4023,0.07220033313061852,0
4024,-0.1434332718323733,0
4025,-0.022245041712244673,0
4026,-0.13407490007588063,0
4027,-0.0663335781669975,0
4028,-0.05782687636568479,0
4029,-0.12490049418574625,0
4030,-0.07471025106856954,0
4031,-0.03686588785092675,0
4032,-0.01862512781048809,0
4033,0.13405274942639236,0
4034,3.4269401811798264,0
4035,6.124459789243335,0
4036,-2.8872408640857348,0
4037,1.0857944247933855,0
4038,-0.47234706789148895,0
4039,0.10638344855446681,0
4040,-0.08940440746541471,0
4041,-0.030351999632052068,0
4042,-0.0034255655385095132,0
4043,-0.06516039486859476,0
4044,-0.07338799809943602,0
4045,-0.08309168948535958,0
4046,-0.14472553000018326,0
4047,0.04316857017662456,0
4048,-0.012994593187916383,0
4049,-0.12131148735751704,0
4050,0.5329255375479364,0
4051,5.626210258400605,0
4052,3.127258589368385,0
4053,-2.713941929971717,0
4054,1.4893643119188096,0
4055,-0.9449361340774811,0
4056,0.17150506974932134,0
4057,-0.3182743609224937,0
4058,-0.1584104490447267,0
4059,-0.20883596460667328,0
4060,-0.1097007595944682,0
4061,-0.13359179194709825,0
4062,-0.08252600301801141,0
4063,-0.12061054288464446,0
4064,-0.03901264754577405,0
4065,-0.04424861066691016,0
4066,-0.08522047478766805,0
4067,1.6472231311879,0
4068,6.918628885913757,0
4069,-0.45660443282548735,0
4070,-0.9801942287186989,0
4071,0.6443094248014414,0
4072,-0.4251244149896531,0
4073,0.10926360091400658,0
4074,-0.10231040766383862,0
4075,-0.020486891454230383,0
4076,0.009296591916213938,0
4077,-0.005589916670900079,0
4078,-0.027670588927882565,0
4079,-0.036548917080850084,0
4080,-0.020064356455378875,0
4081,-0.047416054736069836,0
4082,-0.04855130939624619,0
4083,0.02508061014665236,0
4084,3.509290448707024,0
4085,6.078008479346046,0
4086,-2.781379836069872,0
4087,1.0969069401814562,0
4088,-0.4495497388237146,0
4089,0.12979298022962005,0
4090,-0.08459823352261475,0
4091,-0.05142980443688026,0
4092,-0.016083723892119678,0
4093,-0.11633761007339918,0
4094,-0.05592803870466795,0
4095,-0.004688999279787588,0
4096,-0.1310721741895325,0
4097,-0.08864125201307556,0
4098,0.06948929900666656,0
4099,-0.03792116483316608,0
4100,0.5874791327289485,0
4101,5.590103569640943,0
4102,3.2085351336377648,0
4103,-2.6879353678074036,0
4104,1.4685771857195458,0
4105,-0.8512687704486571,0
4106,0.32855609877274705,0
4107,-0.17108904348090218,0
4108,-0.045068254933652796,0
4109,0.00045856423932147394,0
4110,-0.177350692025168,0
4111,-0.04895019128902545,0
4112,-0.097014865798267,0
4113,-0.07339409609620523,0
4114,-0.18063249601639297,0
4115,-0.12455592647291017,0
4116,-0.25458155453170894,0
4117,1.5776249044057173,0
4118,6.826554897109609,0
4119,-0.5089394340928182,0
4120,-0.8788069512559692,0
4121,0.6712794710067802,0
4122,-0.4266231522754902,0
4123,0.1439313918318221,0
4124,-0.1477162157257759,0
4125,-0.046468961952312454,0
4126,-0.12135804137646371,0
4127,-0.008171127734313388,0
4128,0.015031560532422751,0
4129,-0.017970648314693274,0
4130,-0.07642166376763457,0
4131,-0.04817209905741589,0
4132,0.02330455017393908,0
4133,0.10330775338793564,0
4134,3.5416090823455657,0
4135,6.057617577010776,0
4136,-2.818592874861612,0
4137,1.0857786449502993,0
4138,-0.4437976193372636,0
4139,0.17809639527552873,0
4140,-0.06439204373398208,0
4141,0.045108184590857914,0
4142,0.05350046610242009,0
4143,0.007804839132537749,0
4144,0.03115997884626867,0
4145,-0.01926083827269474,0
4146,0.03816811199416071,0
4147,-0.0037602600101822974,0
4148,0.07546254237550004,0
4149,0.05870606746672934,0
4150,0.6086225406148659,0
4151,5.591498858842383,0
4152,3.1975650408709377,0
4153,-2.712866535208024,0
4154,1.536212421439061,0
4155,-0.7318315290229291,0
4156,0.22500873762642154,0
4157,-0.12475106706213512,0
4158,0.06424906128907383,0
4159,-0.003801438354390105,0
4160,0.012317480755431973,0
4161,-0.07330725898139849,0
4162,-0.053130173383017,0
4163,0.00532848417121819,0
4164,0.003972430903636372,0
4165,-0.0018474639905903339,0
4166,-0.018773269755180608,0
4167,1.6628584163425415,0
4168,7.011354715870879,0
4169,-0.47518519972483614,0
4170,-0.7462401588681006,0
4171,0.6314084512468721,0
4172,-0.42568997481385107,0
4173,0.20684899325734732,0
4174,-0.05267921872494945,0
4175,-0.09073900203351355,0
4176,-0.014592026354392825,0
4177,-0.025919481319018403,0
4178,-0.0667916047918199,0
4179,-0.02119999363905,0
4180,0.0031915917368710058,0
4181,-0.05534466270746341,0
4182,-0.051308499558348666,0
4183,0.05031381009236427,0
4184,3.60953349166854,0
4185,6.133705315007804,0
4186,-2.830088677924776,0
4187,1.1322605803499417,0
4188,-0.43518981823422487,0
4189,0.0709909119470544,0
4190,-0.14868347116875175,0
4191,0.018263793939261412,0
4192,-0.10486092766979571,0
4193,-0.031769442662168336,0
4194,-0.07875582137965462,0
4195,0.061773528947232335,0
4196,-0.09989862353237508,0
4197,0.037164838697793266,0
4198,-0.02431705880241314,0
4199,-0.027160518654149264,0
4200,0.6456583032724167,0
4201,5.709016495037335,0
4202,3.2637662576078115,0
4203,-2.645560181722362,0
4204,1.6105469492522098,0
4205,-0.7362415815699695,0
4206,0.4032931831152721,0
4207,-0.12056758634952537,0
4208,-0.007102988115158811,0
4209,-0.02242057829881659,0
4210,0.027699345077720264,0
4211,-0.07789515739954213,0
4212,-0.036158808110595554,0
4213,0.013488997207676877,0
4214,-0.06609530488790563,0
4215,0.011143964542787453,0
4216,-0.0039950621246801505,0
4217,1.6917351743539994,0
4218,6.802173917325164,0
4219,-0.487760321994571,0
4220,-0.8781830019346997,0
4221,0.6287483663496521,0
4222,-0.3556930594568718,0
4223,0.15366054840245574,0
4224,-0.07822479122132366,0
4225,-0.06302224799517862,0
4226,0.018002029462751767,0
4227,0.12343541353895016,0
4228,0.004572361466603534,0
4229,0.0603546949478216,0
4230,0.014657650042691994,0
4231,-0.014793603741422402,0
4232,0.026870466861214855,0
4233,0.16250783196392804,0
4234,3.6254152286766432,0
4235,6.110384057976393,0
4236,-2.767241741711331,0
4237,0.9877605767392741,0
4238,-0.41052654101730895,0
4239,0.030697792065064913,0
4240,-0.10741916832295269,0
4241,-0.004802577538879294,0
4242,-0.0831324755981645,0
4243,-0.09423592034285677,0
4244,-0.009965073319128829,0
4245,-0.07636552372143451,0
4246,-0.04408428319177793,0
4247,0.01298599638602235,0
4248,-0.04703634112758296,0
4249,-0.010802145330514008,0
4250,0.5284120740092652,0
4251,5.795563699660489,0
4252,3.069349003598921,0
4253,-2.708121829578941,0
4254,1.4995509446746085,0
4255,-0.8156220482613004,0
4256,0.33418941760616394,0
4257,-0.21901929409627524,0
4258,-0.0019057348456806478,0
4259,0.01297454248897461,0
4260,-0.033191850485081414,0
4261,-0.0352488122502357,0
4262,-0.04151254990079637,0
4263,-0.022296776466373146,0
4264,0.016889446571556492,0
4265,-0.010352112204046485,0
4266,0.0023110835877505308,0
4267,1.7517421842483505,0
4268,6.986062502388445,0
4269,-0.5006640034541926,0
4270,-0.7599238261166378,0
4271,0.6776075906649726,0
4272,-0.26774515409569255,0
4273,0.1921479257670801,0
4274,0.01607539930146286,0
4275,0.03678861957292746,0
4276,0.037288013485753314,0
4277,0.06415106619251609,0
4278,0.028370665619537987,0
4279,-0.013631052358188659,0
4280,-0.01784665600013052,0
4281,0.07993662149950098,0
4282,-0.016297821003541955,0
4283,0.0961875137677988,0
4284,3.666462652777324,0
4285,6.076086374718897,0
4286,-2.8296666614554873,0
4287,1.2268637680500203,0
4288,-0.40477653618487625,0
4289,0.1227047738056759,0
4290,-0.10769127957257603,0
4291,0.12430038240383993,0
4292,0.06018907376786406,0
4293,0.04477372062860534,0
4294,-0.05066384679237631,0
4295,-0.028175255433823758,0
4296,0.022742989464415265,0
4297,-0.009384596431801187,0
4298,-0.019514694795024476,0
4299,0.04276810422553097,0
4300,0.645591115586896,0
4301,5.7075584049318495,0
4302,3.1031660054041863,0
4303,-2.5651314447613527,0
4304,1.617892197776087,0
4305,-0.7805945590221335,0
4306,0.4177027784883623,0
4307,-0.13255841160390097,0
4308,0.06227889064661469,0
4309,-0.03847144194695852,0
4310,0.06259662118964773,0
4311,0.04013764501216752,0
4312,-0.029974217030704603,0
4313,0.051924190577198506,0
4314,0.13065975019959147,0
4315,-0.02666333901989734,0
4316,-0.03759619180791121,0
4317,1.7021127415595745,0
4318,6.853569228196925,0
4319,-0.4748278331077733,0
4320,-0.7440267926241566,0
4321,0.646538377305954,0
4322,-0.41402896595521227,0
4323,0.07661680432635937,0
4324,-0.04254114798887487,0
4325,-0.07984497340860144,0
4326,-0.07645842310435992,0
4327,-0.006795311845289968,0
4328,-0.040314817823132114,0
4329,-0.014343045376482264,0
4330,-0.08348495113190826,0
4331,-0.029311766421179702,0
4332,0.02752389994613543,0
4333,0.10278948971065589,0
4334,3.740315170319862,0
4335,6.0507278998396,0
4336,-2.766092507860234,0
4337,1.129553960718215,0
4338,-0.4534514626856364,0
4339,0.15535035261243313,0
4340,-0.07246864413814284,0
4341,0.06594186153699676,0
4342,0.10690714134201704,0
4343,-0.09163538673770857,0
4344,0.04034623884656752,0
4345,0.026007704871161184,0
4346,-0.018950382657636138,0
4347,0.051295094652420464,0
4348,-0.020833040316135004,0
4349,-0.013682370697373984,0
4350,0.6061656253996673,0
4351,5.753315260538156,0
4352,3.121274052923768,0
4353,-2.6986936574371643,0
4354,1.492504261085691,0
4355,-0.7327739267510756,0
4356,0.3098013840547419,0
4357,-0.13167304966665583,0
4358,0.05062793944995991,0
4359,-0.08265043881218127,0
4360,-0.08509740568345256,0
4361,0.07825735581052135,0
4362,0.010094116827518818,0
4363,0.01114043704536771,0
4364,0.09314477045756264,0
4365,0.02949130698948453,0
4366,-0.02195437061222115,0
4367,1.7038595785123933,0
4368,6.906941771920361,0
4369,-0.5789000003257725,0
4370,-0.79215744833811,0
4371,0.6761941895381485,0
4372,-0.36257227059558633,0
4373,0.05739658725038027,0
4374,-0.08231770278214279,0
4375,-0.0657441650618515,0
4376,0.0036864202183321607,0
4377,-0.11107936669007373,0
4378,-0.016945548709051857,0
4379,-0.02386355957245718,0
4380,-0.007248850293152781,0
4381,-0.08483524747476612,0
4382,-0.026853781798969613,0
4383,0.14149660838357675,0
4384,3.7255149316663903,0
4385,5.978448426585641,0
4386,-2.740979708094893,0
4387,1.1337821340042782,0
4388,-0.47574174844672756,0
4389,0.172550436452708,0
4390,-0.05515066988896078,0
4391,0.02991624900693463,0
4392,0.07693764812434135,0
4393,-0.0631749123660468,0
4394,-0.010361454841451845,0
4395,0.06035061103322051,0
4396,0.03575993326745407,0
4397,-0.12774795493119961,0
4398,-0.09679843832057229,0
4399,0.01649628465276546,0
4400,0.44118016310716385,0
4401,5.690700821852738,0
4402,3.0497747382693596,0
4403,-2.7495647328507875,0
4404,1.4729112635439838,0
4405,-0.9459504730027656,0
4406,0.33468950984386353,0
4407,-0.2001712915199785,0
4408,0.05999496411819179,0
4409,-0.054572519645469136,0
4410,-0.14168278605627763,0
4411,-0.04990198208630676,0
4412,0.014893461151795614,0
4413,-0.10687182233174176,0
4414,0.048196704745755645,0
4415,-0.07676997892246265,0
4416,0.029938883298589222,0
4417,1.6936370876401605,0
4418,6.924257625508435,0
4419,-0.4504025909061673,0
4420,-0.7697875884806543,0
4421,0.7323136547125676,0
4422,-0.424430389370972,0
4423,0.0787278272356467,0
4424,-0.10172007786153961,0
4425,-0.0028139127803626287,0
4426,-0.11988137531783413,0
4427,-0.03861428668028924,0
4428,-0.04646070985312213,0
4429,-0.09464813994337382,0
4430,-0.07233856955270078,0
4431,-0.10480931976323209,0
4432,-0.07277531537031322,0
4433,0.0704655892446619,0
4434,3.8146392829909406,0
4435,5.970069007888618,0
4436,-2.9392836217182,0
4437,1.1271399399306155,0
4438,-0.43847930359469867,0
4439,0.11265472998814635,0
4440,-0.18625836813249785,0
4441,-0.12385059388327861,0
4442,-0.14329968638137086,0
4443,-0.109877859377811,0
4444,-0.0780050590765819,0
4445,-0.014573511532116529,0
4446,-0.12206122357570316,0
4447,-0.026460162433733884,0
4448,-0.06831435076446377,0
4449,-0.07964421902423612,0
4450,0.6273435069858769,0
4451,5.668280340873018,0
4452,3.0444102413040675,0
4453,-2.6120449475894234,0
4454,1.4079089544751464,0
4455,-0.882096168502894,0
4456,0.24218775050339847,0
4457,-0.1915378084022634,0
4458,-0.049492102406983964,0
4459,-0.046456676174827266,0
4460,-0.08073888367853976,0
4461,-0.12186878323048013,0
4462,-0.11594682661961653,0
4463,-0.1589015470444004,0
4464,-0.055812637536068535,0
