timestamp,value-0,is_anomaly
0,0.34823413456663155,0
1,3.455714176355729,0
2,6.9552060902804005,0
3,-0.24940603905080785,0
4,-2.0253212074368947,0
5,1.5911471987550123,0
6,-0.6753310300651126,0
7,0.18716442065573283,0
8,0.07340182834511472,0
9,0.010821169788895697,0
10,0.05014789348105592,0
11,-0.028012987266213308,0
12,-0.10445039023716188,0
13,-0.044022234953667194,0
14,0.01505514087711985,0
15,0.1191785579758294,0
16,-0.019021417652649756,0
17,0.024183531709831785,0
18,-0.07878159475146912,0
19,0.02556404333793382,0
20,0.35180851550436876,0
21,3.558616932136568,0
22,6.8737242182701594,0
23,-0.1777967423443822,0
24,-1.9478730351247953,0
25,1.512137120426377,0
26,-0.6862803324719696,0
27,0.12325990641046496,0
28,0.039464612862141285,0
29,0.08936358386688197,0
30,0.06625619059948619,0
31,-0.03604065935653062,0
32,-0.018985508470453424,0
33,0.07751477981791902,0
34,-0.05596312150900998,0
35,0.0026376977712974778,0
36,0.03897149227631254,0
37,0.032866293589655926,0
38,-0.018443182700054662,0
39,-0.032516257086393295,0
40,0.30690364453074426,0
41,3.4479732374515866,0
42,6.867713331053902,0
43,-0.2696475344523835,0
44,-1.955016604407769,0
45,1.48706350651803,0
46,-0.7116344615011567,0
47,0.1067467468886118,0
48,-0.035437818742706385,0
49,0.04966071148811575,0
50,0.03215473502806704,0
51,0.027784602499245335,0
52,0.06275129906629036,0
53,0.046315180572861187,0
54,-0.07016105226611519,0
55,0.03539952499439476,0
56,-0.0363839667407614,0
57,-0.059267102131409295,0
58,-0.013144490637514182,0
59,-0.019478805376620726,0
60,0.2781121467481732,0
61,3.5024054737636683,0
62,6.848104721770767,0
63,-0.32622742061726545,0
64,-1.959601842705247,0
65,1.6119643239903703,0
66,-0.7018633845717792,0
67,0.10715602082911269,0
68,0.03998174059398819,0
69,-0.08198018565502943,0
70,0.08673023547534273,0
71,0.04335603448455817,0
72,-0.08412934781081959,0
73,0.01718543240200489,0
74,-0.04430771520900474,0
75,-0.021708028597563336,0
76,0.004433752100927614,0
77,-0.07323026415414444,0
78,0.02718894768925484,0
79,0.0393123056092857,0
80,0.35788155305853037,0
81,3.5061439562872634,0
82,6.736874801609902,0
83,-0.31975729868183633,0
84,-1.8998566471505869,0
85,1.6578800135694858,0
86,-0.7073744878290582,0
87,0.1442043107017099,0
88,0.11865387408076923,0
89,-0.017274625006525483,0
90,0.0973074535186066,0
91,0.15152746022193458,0
92,0.10100181473036822,0
93,0.027566268994807352,0
94,0.03979690411656426,0
95,0.0016474630898986372,0
96,0.07677280066552661,0
97,-0.03511987400193891,0
98,0.03457200239253426,0
99,-0.01065780247700379,0
100,0.20079743643838846,0
101,3.5454287580152606,0
102,6.880239047441903,0
103,-0.2971503557515367,0
104,-1.9929556281688672,0
105,1.5141038381622707,0
106,-0.7801602562287266,0
107,0.12908122491698748,0
108,-0.012761726241790738,0
109,-0.0753111540449005,0
110,0.0699152302711156,0
111,-0.003100275129412013,0
112,-0.0005109918677316137,0
113,0.07986524079244588,0
114,0.11771298317955153,0
115,0.03906160047887664,0
116,0.051706445860537756,0
117,0.06552720407883411,0
118,0.0666811638753731,0
119,0.019817951450403156,0
120,0.28300517755226373,0
121,3.558948622874083,0
122,6.860535038704013,0
123,-0.2762078891454238,0
124,-1.8986717804265663,0
125,1.5570717542802606,0
126,-0.7515287672246205,0
127,0.13029538298706847,0
128,0.012197063859322229,0
129,-0.04572850948729108,0
130,0.004992940447930423,0
131,-0.05628046260368982,0
132,-0.07344370588107231,0
133,-0.02436332293254046,0
134,-0.021757661930539844,0
135,0.025700086680720876,0
136,0.0369330404574529,0
137,0.023045819128112408,0
138,0.001018354829491289,0
139,-0.05327490279717724,0
140,0.23843711701015868,0
141,3.511956050971402,0
142,6.888414512336851,0
143,-0.35561775676735985,0
144,-1.8474398390674596,0
145,1.5546709804455339,0
146,-0.7649824394987375,0
147,0.12631692364533803,0
148,0.052863482891566844,0
149,0.024111722702062674,0
150,0.09432186765670707,0
151,-0.11491761336765254,0
152,-0.00975565749940718,0
153,0.038567259543361015,0
154,0.003750919848859006,0
155,-0.016451981560448577,0
156,0.04674483013905388,0
157,-0.055806386618328374,0
158,-0.100500373137037,0
159,0.03885648837928081,0
160,0.355145798552037,0
161,3.526182017413757,0
162,6.85758441226068,0
163,-0.28725955009020904,0
164,-1.9402385166136524,0
165,1.4931916301081818,0
166,-0.6960088940791918,0
167,0.04344545481893664,0
168,0.03549050458669366,0
169,-0.16978122804338788,0
170,-0.013958647835069577,0
171,-0.1196179008106867,0
172,-0.08534860434837989,0
173,-0.07035906578864486,0
174,-0.028421208826135393,0
175,-0.048898802151585485,0
176,-0.06510809827423095,0
177,-0.05176506876594054,0
178,-0.1668822452042659,0
179,-0.14202749939125062,0
180,0.13745247226131713,0
181,3.5181740727847215,0
182,6.764713102971681,0
183,-0.3814384366712809,0
184,-1.9797097696193413,0
185,1.4612368687427666,0
186,-0.7735466774960885,0
187,0.08717205398161754,0
188,0.05261328844978541,0
189,-0.06280224242471558,0
190,0.058221071015143636,0
191,0.01807118934705814,0
192,-0.12263064666985997,0
193,-0.01240391348922737,0
194,0.010957637597753707,0
195,0.01821813093602049,0
196,0.017364386037801445,0
197,-0.07077878107053868,0
198,0.05537775916154526,0
199,-0.059721588224264294,0
200,0.14109798239083812,0
201,3.4869525203715654,0
202,6.715186672936719,0
203,-0.29584137889760703,0
204,-1.9773597874006246,0
205,1.481170103140741,0
206,-0.7027566343094902,0
207,0.1103850738493261,0
208,-0.10421097836240917,0
209,-0.1339073437995194,0
210,-0.05026585896971683,0
211,-0.0998316443527467,0
212,0.0026221142612907478,0
213,-0.1286362496260779,0
214,-0.08677379894129104,0
215,-0.08248367796342097,0
216,-0.0947602962644728,0
217,-0.030969908305661153,0
218,0.04987618704519851,0
219,-0.03668659421012003,0
220,0.21486458482568718,0
221,3.474631702206273,0
222,6.7961090708034835,0
223,-0.2742518112167476,0
224,-2.1018231854705123,0
225,1.3807054982828384,0
226,-0.7897261942463311,0
227,0.18812116944386886,0
228,0.10074214886168659,0
229,-0.10165237981851022,0
230,-0.04651698267961961,0
231,-0.09817140944922084,0
232,-0.06830654165120054,0
233,0.016695512683326776,0
234,-0.04364714684032465,0
235,0.03468668597623674,0
236,-0.015957814127557556,0
237,-0.017450926297714595,0
238,-0.04819406737067234,0
239,-0.07621719229426059,0
240,0.2405833652211499,0
241,3.5021196572674937,0
242,6.898810797169419,0
243,-0.3540509917812227,0
244,-1.9960340245106276,0
245,1.5126088889139497,0
246,-0.7551052599546245,0
247,0.11247519955701189,0
248,-0.062131081219741,0
249,-0.03524012358335166,0
250,-0.022025161482034407,0
251,-0.0754305350346174,0
252,-0.07240788978678996,0
253,-0.0019091765815550873,0
254,-0.10403846468769498,0
255,0.013317693304939093,0
256,-0.08447619246860076,0
257,-0.06776751624674453,0
258,-0.11503677320827832,0
259,-0.05808501791854836,0
260,0.20658467776622605,0
261,3.518037840497876,0
262,6.772169730119476,0
263,-0.4143655222089753,0
264,-1.9544703882191534,0
265,1.4321698024009768,0
266,-0.7450714132577816,0
267,0.1746582406628869,0
268,0.08164326974281744,0
269,0.01306353019879896,0
270,0.0233933853260055,0
271,0.037477311808677395,0
272,-0.013800044392692553,0
273,0.02168289169507283,0
274,-0.05026184502458812,0
275,-0.02879927518711349,0
276,0.004967005322179717,0
277,-0.08067651649061731,0
278,-0.08211313492894254,0
279,-0.03277711617147315,0
280,0.2599273150410706,0
281,3.5528908357591273,0
282,6.7898020226072875,0
283,-0.4302070203399498,0
284,-1.8756687169938768,0
285,1.5557479354163166,0
286,-0.780499202863532,0
287,0.19341749281445492,0
288,-0.04778073836023172,0
289,0.04002164304288839,0
290,0.0691526620479132,0
291,-0.09726842106720077,0
292,-0.036497506453433165,0
293,-0.04926095803535409,0
294,0.005719140863500841,0
295,0.05042678611440793,0
296,-0.0010519814803155014,0
297,-0.00935541328898499,0
298,-0.11606039292492994,0
299,-0.00878292845768338,0
300,0.24658252269087436,0
301,3.4907477715435427,0
302,6.845044857705716,0
303,-0.37330055379783456,0
304,-1.9093006725656296,0
305,1.6124855618725733,0
306,-0.610524597405657,0
307,0.14204925021251522,0
308,0.0825222308369834,0
309,-0.06942116405810121,0
310,0.0008276446171670178,0
311,0.014341833249743138,0
312,0.030869260522772318,0
313,-0.0044182192289669185,0
314,0.06865737080959279,0
315,-0.03307653125036685,0
316,0.018027801446260552,0
317,0.03259511248041603,0
318,-0.029908679954492513,0
319,0.0021448591050852233,0
320,0.29554278696814285,0
321,3.6250950191591325,0
322,6.872283938591537,0
323,-0.2757468025038324,0
324,-1.9245788583622432,0
325,1.4442612040557492,0
326,-0.7818029873857157,0
327,0.21353876528510746,0
328,0.13493228873980356,0
329,-0.07639052153166087,0
330,-0.0648216820205904,0
331,0.09219136206205207,0
332,-0.028473972846338503,0
333,0.006247251122160914,0
334,-0.00809125317533846,0
335,0.02512836013498228,0
336,0.05099010015192486,0
337,-0.08651473272726638,0
338,0.047000405142660295,0
339,-0.04724135197442286,0
340,0.2720276061982627,0
341,3.578204573130601,0
342,6.892432522184927,0
343,-0.3568526463503353,0
344,-1.9428549397055985,0
345,1.614696863667949,0
346,-0.8146848436183298,0
347,0.13957501974539202,0
348,0.10582762889829696,0
349,-0.004631706373818153,0
350,0.0872374619492799,0
351,0.05554117193694413,0
352,0.006736125425563934,0
353,0.07988142982886712,0
354,0.06464431630846927,0
355,-0.022410941510362742,0
356,0.056418643717371667,0
357,0.022689471752663504,0
358,0.08161410107672376,0
359,0.12335468630280383,0
360,0.31823805985636905,0
361,3.6216518660769834,0
362,6.939830843799123,0
363,-0.36323013868361653,0
364,-1.8888055436841682,0
365,1.6103509826485694,0
366,-0.6819853733659333,0
367,0.21791234405080737,0
368,0.0018128715843359275,0
369,-0.04447370867143847,0
370,0.0279518460698051,0
371,0.010392036583549258,0
372,0.06563653292671305,0
373,0.128067062833918,0
374,0.1374881082336563,0
375,0.05913521164001136,0
376,0.05023298656108489,0
377,0.08074031325264741,0
378,0.1247867257673329,0
379,0.1411059732165969,0
380,0.28690686465176796,0
381,3.610701561868807,0
382,6.779524635187977,0
383,-0.2892406996820149,0
384,-1.8420167855235194,0
385,1.5607993791030101,0
386,-0.6744517971787748,0
387,0.13546073869100533,0
388,0.055119924895310236,0
389,0.004112754159180221,0
390,-0.01002261347178102,0
391,0.00013494834573571889,0
392,-0.03958140238091386,0
393,0.048520535222784905,0
394,0.005684952620120462,0
395,0.08733563866757807,0
396,0.02881410109692151,0
397,0.08942228301500654,0
398,0.12967474441921029,0
399,0.036387796070214785,0
400,0.29955543514564487,0
401,3.685204443754776,0
402,6.993182532656941,0
403,-0.2931642876176843,0
404,-1.9379017720721023,0
405,1.5622592287904542,0
406,-0.6778763808075436,0
407,0.22920965467890148,0
408,0.08902671775656404,0
409,-0.0160499816480517,0
410,0.08401408139936806,0
411,-0.011482637151656892,0
412,-0.034833132942954745,0
413,0.15249796817544112,0
414,0.15641134906362442,0
415,0.05551146201817093,0
416,0.02961244346047775,0
417,0.07811177825385376,0
418,0.1198496121943971,0
419,0.10409229267426667,0
420,0.3257609861782877,0
421,3.665532216383375,0
422,6.960359506671494,0
423,-0.30026108487137265,0
424,-1.8788505955762782,0
425,1.5991932165110294,0
426,-0.5878233136920725,0
427,0.2850683626306662,0
428,0.07294780144500557,0
429,-0.09054940524409656,0
430,0.15752551064422204,0
431,-0.013709472450876115,0
432,-0.047004250938000744,0
433,0.03272282691483919,0
434,0.10696279159857618,0
435,-0.0221124028341306,0
436,0.0423500694724744,0
437,0.02266593059082995,0
438,0.018150255077020526,0
439,-0.03616850420654218,0
440,0.31130882300074364,0
441,3.5584141907459275,0
442,6.7999473560356005,0
443,-0.33276478242728647,0
444,-1.9955546510638864,0
445,1.539598875237781,0
446,-0.7591954217461963,0
447,0.13173390208141178,0
448,0.030625687100995592,0
449,-0.09688089369297628,0
450,0.05939693940462967,0
451,0.05993960769514797,0
452,0.01593420636433015,0
453,0.05249236696776766,0
454,-0.005757466109388959,0
455,-0.033266839979204876,0
456,0.02398578510510884,0
457,0.04235985154938833,0
458,0.026814838069155612,0
459,-0.027273093167731414,0
460,0.3141216174334182,0
461,3.6187361534545355,0
462,6.941129427494246,0
463,-0.4163340710491218,0
464,-1.8534151912174195,0
465,1.595133913308686,0
466,-0.7267556564752125,0
467,0.13147437411228366,0
468,0.05899776105888608,0
469,-0.06803043391016238,0
470,0.12224224142055246,0
471,-0.00733605719607967,0
472,-0.004292301359286139,0
473,-0.02148611133178178,0
474,-0.019682173456196116,0
475,0.012632187916749462,0
476,0.008218593072817826,0
477,0.03548025097830606,0
478,-0.0003944505029511193,0
479,-0.06926751074655005,0
480,0.32646664490039906,0
481,3.5345464284626185,0
482,6.84717859531579,0
483,-0.4316565814946368,0
484,-1.8855435707619783,0
485,1.48092877026007,0
486,-0.7430307260487465,0
487,0.1370519545900837,0
488,-0.0005691879533415659,0
489,-0.10953931009075972,0
490,-0.07545373825332347,0
491,0.011551800284371787,0
492,0.017557456653162943,0
493,0.009313318207675038,0
494,-0.06035329970880374,0
495,0.11079457377229086,0
496,-0.0008795859450010115,0
497,-0.036622719316718975,0
498,0.029395136093062397,0
499,-0.01510248974336447,0
500,0.2655217368182981,0
501,3.6635787656422907,0
502,6.85116651927047,0
503,-0.3961709190308088,0
504,-1.888636699198255,0
505,1.5259831122592933,0
506,-0.7619156575365611,0
507,0.04878973758149083,0
508,-0.10462813316672118,0
509,-0.06849912954520429,0
510,-0.0026888044682236364,0
511,-0.006300366547933797,0
512,-0.08241709126411571,0
513,-0.030196574651298845,0
514,-0.08689093539815425,0
515,0.027745850684285374,0
516,-0.03568726886707248,0
517,0.041233397267395534,0
518,0.04935598528027415,0
519,-0.010440115451484547,0
520,0.22068994228676503,0
521,3.586890293142286,0
522,6.773935588824536,0
523,-0.4416433044600485,0
524,-2.0200632482747403,0
525,1.452261155154302,0
526,-0.7792673622543982,0
527,0.06664829407784441,0
528,-0.05102351372628774,0
529,-0.06296923960131462,0
530,-0.05236833190289969,0
531,-0.18135770770100856,0
532,-0.02246659596192046,0
533,-0.10743431527115052,0
534,-0.1637749728555306,0
535,-0.08408868254593782,0
536,-0.06655213933546607,0
537,0.04152506384443129,0
538,-0.0008530140480322579,0
539,-0.0704125987709619,0
540,0.14084732525696342,0
541,3.6135727608363117,0
542,6.769818805938658,0
543,-0.4009402676774983,0
544,-1.9324907468181804,0
545,1.4765523640768548,0
546,-0.7592938042942691,0
547,0.09905750444683778,0
548,0.027280154201754465,0
549,0.0037715137081014705,0
550,-0.03995717153306329,0
551,-0.054245095737971136,0
552,0.05752388813876935,0
553,-0.07612607467906149,0
554,-0.03807244489088,0
555,-0.03932938605447902,0
556,0.029923090942029974,0
557,0.020746825668242166,0
558,0.03255989329616908,0
559,-0.07531224744960466,0
560,0.12365714405967601,0
561,3.577235772757163,0
562,6.841578232945785,0
563,-0.48667048685971315,0
564,-1.9313043813397819,0
565,1.4035523588066188,0
566,-0.9106825749312664,0
567,0.09263571172115853,0
568,0.050207373770025265,0
569,-0.09254240959514183,0
570,0.05269756958008043,0
571,-0.037455201045113434,0
572,-0.024227034651504352,0
573,-0.017396845524760094,0
574,-0.10305671842752832,0
575,-0.023058861090409853,0
576,0.008773220059628543,0
577,-0.07106780027703968,0
578,-0.010673726502965313,0
579,-0.03006396391449932,0
580,0.40453785980760004,0
581,3.487706329781778,0
582,6.752207548195445,0
583,-0.47191084587724097,0
584,-1.9243526350988198,0
585,1.4946320488804867,0
586,-0.7867349694918676,0
587,0.06759311252468003,0
588,0.06254469288218076,0
589,-0.11141167102060448,0
590,-0.06963246444424293,0
591,-0.04533203199363569,0
592,-0.055726823483477184,0
593,0.019839313637516426,0
594,-0.06653587315813775,0
595,-0.01183351676802852,0
596,-0.0017557908060057935,0
597,0.012560683827614761,0
598,0.032036450976723446,0
599,0.023943307414051776,0
600,0.20368753048572513,0
601,3.6044736216704414,0
602,6.846476610202153,0
603,-0.336021825811548,0
604,-1.790574185112765,0
605,1.6428223416393373,0
606,-0.6198810419140734,0
607,0.23042376272157356,0
608,-0.013359775606964129,0
609,-0.008336710217389482,0
610,0.059623183484573614,0
611,0.01114389083761496,0
612,-0.048774675839546124,0
613,-0.13211857751183798,0
614,0.015302258145704382,0
615,-0.03783906606793515,0
616,-0.02312320042953238,0
617,0.07365672964966727,0
618,0.04013863276171998,0
619,-0.03512323613141709,0
620,0.24750761460573356,0
621,3.538485486593679,0
622,6.826991447620466,0
623,-0.48003009103852984,0
624,-1.836796659645515,0
625,1.4722463965612784,0
626,-0.8041099660760456,0
627,0.20204322159147942,0
628,0.042333063853439525,0
629,-0.14991279594356588,0
630,-0.02609478741156011,0
631,-0.018950543882943097,0
632,-0.055945659717921245,0
633,-0.05900244688282176,0
634,-0.12038899453441654,0
635,-0.0024728632603480023,0
636,-0.013809162917136235,0
637,-0.08531007077975662,0
638,-0.027444634248562524,0
639,0.010870622475778087,0
640,0.2623925085679725,0
641,3.5873928976393086,0
642,6.927228048347608,0
643,-0.38587626178874523,0
644,-1.8400921315080243,0
645,1.6032192154587062,0
646,-0.7794685522867041,0
647,0.03435686718785838,0
648,-0.06712362943431278,0
649,-0.10554786800722574,0
650,0.003107510474507705,0
651,-0.14525419829736524,0
652,-0.12740372461270444,0
653,0.0033349101639769396,0
654,-0.09587044049274754,0
655,-0.02959257053291034,0
656,-0.06770257505815468,0
657,-0.032509503012723345,0
658,-0.10151319918504337,0
659,-0.10024629959560373,0
660,0.28511782572208716,0
661,3.607145267039621,0
662,6.823961635583687,0
663,-0.47523956198114076,0
664,-1.8923544111572494,0
665,1.4131258152593578,0
666,-0.7688988958803166,0
667,0.1490288468306292,0
668,-0.022362154533552288,0
669,0.022236667008546582,0
670,-0.0718361320801113,0
671,-0.07558544263862953,0
672,-0.0367148567846666,0
673,0.02699064512095749,0
674,0.038752972882285686,0
675,-0.011515397938427298,0
676,-0.059027197009542384,0
677,-0.025971205202014083,0
678,-0.06307253032746617,0
679,-0.020516894832569525,0
680,0.3331105518324351,0
681,3.567025987932034,0
682,6.791713391263586,0
683,-0.44981917813868644,0
684,-1.925676873975108,0
685,1.4933735547513556,0
686,-0.7594109042132795,0
687,0.1406322881293197,0
688,0.11448858240539113,0
689,-0.05836979363510621,0
690,0.033712248067951,0
691,0.0041450405292953445,0
692,-0.06686806972710654,0
693,-0.02664590398220489,0
694,-0.05440906027602083,0
695,0.07256140766506515,0
696,0.0627742321300917,0
697,0.011061449947950332,0
698,-0.03326781791000684,0
699,-0.020703067018237407,0
700,0.3229502524524183,0
701,3.6076119301148912,0
702,6.804348278245135,0
703,-0.4745873524641637,0
704,-1.7988991888145198,0
705,1.4469296822792548,0
706,-0.7230287876585427,0
707,0.15478095662922822,0
708,-0.06391143970852955,0
709,-0.045752422361260744,0
710,-0.18635283838941757,0
711,0.06409777820287701,0
712,-0.10395326224769506,0
713,-0.018277144626673146,0
714,-0.021851923738697546,0
715,-0.06835403414638067,0
716,-0.13839432493176906,0
717,0.014861967880796868,0
718,-0.03270381822416531,0
719,0.04981110649738823,0
720,0.31745373200570653,0
721,3.618434216333521,0
722,6.812220833760445,0
723,-0.418620952150657,0
724,-1.8663538359633742,0
725,1.5374031887263107,0
726,-0.6077897640901624,0
727,0.16235746128958645,0
728,0.09254696090646403,0
729,-0.006796488703718392,0
730,0.03261100019156534,0
731,0.06069266544811927,0
732,0.12871319002758397,0
733,0.07925900786392423,0
734,0.028100914544204658,0
735,-0.10990734342976338,0
736,-0.04769065247397791,0
737,0.060170779024626614,0
738,0.008608339746272656,0
739,-0.09615460259654456,0
740,0.24516245880987927,0
741,3.6303403437032866,0
742,6.827974425360169,0
743,-0.4873466589905149,0
744,-1.7345277777140895,0
745,1.5183971499106332,0
746,-0.7292576910013252,0
747,0.1978935207309994,0
748,0.020864250800933064,0
749,-0.018117056347189645,0
750,0.12595610123699372,0
751,0.04472629333557619,0
752,0.052793788782010354,0
753,0.07857165122770582,0
754,0.0059480219875694545,0
755,0.15431528852393536,0
756,-0.01626805202401952,0
757,-0.013744891620092674,0
758,0.053478845894128046,0
759,0.019361680279219473,0
760,0.29353390375529703,0
761,3.7018056940011115,0
762,6.790587518367009,0
763,-0.4668364925353447,0
764,-1.835089659242473,0
765,1.6632515330736974,0
766,-0.7660941516507176,0
767,0.06633968369151877,0
768,0.057679059356767204,0
769,-0.06254170817944994,0
770,0.12696745634797085,0
771,-0.005140649438343241,0
772,-0.0013297254599266145,0
773,-0.06475690127361292,0
774,0.0088691485010708,0
775,-0.043671252459986695,0
776,-0.02861075635015448,0
777,0.0019997407716181477,0
778,0.03531840937721305,0
779,0.038166210205737294,0
780,0.22270269261526066,0
781,3.6488392300169488,0
782,6.850405181544763,0
783,-0.5501287851114217,0
784,-1.8251290230810793,0
785,1.5224157363620874,0
786,-0.7634112049672012,0
787,0.15350668341790505,0
788,0.13209075184750058,0
789,0.013132427702260675,0
790,0.016822367884937316,0
791,0.04010275608380686,0
792,0.048406788984493146,0
793,-0.025924387755494764,0
794,-0.010955143862666817,0
795,-0.06731156815074321,0
796,0.01915838560044859,0
797,-0.10708350090078479,0
798,-0.0849849315977261,0
799,-0.1036363759519563,0
800,0.27144608383615487,0
801,3.661876613417368,0
802,6.836114762129968,0
803,-0.5731001726695291,0
804,-1.9268674334561486,0
805,1.4629528470923379,0
806,-0.7232000585403044,0
807,0.06823342666663654,0
808,-0.00863735782767764,0
809,-0.0948711981115579,0
810,-0.014681401638797213,0
811,-0.05053188840665758,0
812,0.0028534106753296193,0
813,-0.0005178915259585123,0
814,-0.027603593176167222,0
815,0.050845420790691404,0
816,-0.0015791809848589716,0
817,0.0631416616580813,0
818,0.06194621284238647,0
819,0.025239032135692008,0
820,0.32948927869787553,0
821,3.593444160825308,0
822,6.854939722355064,0
823,-0.5031127236716183,0
824,-1.7642008154003976,0
825,1.4955475505243614,0
826,-0.7131177014494371,0
827,0.2438256546944909,0
828,0.020056427239247422,0
829,-0.08712571455598901,0
830,0.1974482066116082,0
831,-0.06963922090528875,0
832,0.016632633521335094,0
833,0.04736242596537857,0
834,-0.014978823337893786,0
835,-0.01961224030455653,0
836,0.02045821576650662,0
837,-0.015515598253370837,0
838,-0.010715135915650716,0
839,0.02591716578288531,0
840,0.3463437279528445,0
841,3.725136794339042,0
842,6.917664285809539,0
843,-0.414612110926273,0
844,-1.7852848567191792,0
845,1.57720662907717,0
846,-0.6746865712579149,0
847,0.1736708171182113,0
848,0.15367380489628582,0
849,0.007690947970075986,0
850,0.12860787139581512,0
851,0.0060462733232765145,0
852,0.006743789157857574,0
853,0.01722483373841801,0
854,0.08317663571204886,0
855,-0.0696500877621351,0
856,0.12694335997849304,0
857,-0.04778075381110985,0
858,0.024091997462254343,0
859,0.0034352809142120383,0
860,0.29396098733838866,0
861,3.706536134060572,0
862,6.886974747796028,0
863,-0.4792192515223035,0
864,-1.7775483737403721,0
865,1.520969074022602,0
866,-0.7589192651762886,0
867,0.27139931070940093,0
868,0.09834163282447102,0
869,-0.010410874291306979,0
870,0.11083088950475758,0
871,0.022985302726918865,0
872,0.1037483367998717,0
873,0.04516566280888843,0
874,0.122662951757141,0
875,0.07479666674625052,0
876,0.032848618534434826,0
877,0.06607555626107857,0
878,-0.002939904303119037,0
879,0.05129547140825169,0
880,0.3465040093122926,0
881,3.692264101264167,0
882,6.952438135911784,0
883,-0.4377410946495344,0
884,-1.8888552425291643,0
885,1.586983592761069,0
886,-0.6982277594955014,0
887,0.19222636835818763,0
888,0.1231320392698963,0
889,0.10716329749253573,0
890,0.18644188036203058,0
891,0.15863739157266915,0
892,0.035143102259416484,0
893,0.16164589354870854,0
894,0.12462363206440374,0
895,0.07315954686588941,0
896,0.04807144104851544,0
897,0.06211532778428926,0
898,0.10957084036344966,0
899,0.09976685030705952,0
900,0.37021454981941676,0
901,3.7507328301579137,0
902,6.830229385884033,0
903,-0.3758786655345623,0
904,-1.7633538635053732,0
905,1.5307302519834185,0
906,-0.7410022993066125,0
907,0.11245270023015679,0
908,0.12752729072164323,0
909,0.03149436867264368,0
910,0.0647744163330534,0
911,0.05267144177600319,0
912,0.07197197682391171,0
913,0.04754057230505147,0
914,-0.06703608007929743,0
915,0.02299995386311887,0
916,0.03446195556069924,0
917,0.06547958488571409,0
918,0.15079889979136002,0
919,0.010407036972564308,0
920,0.34336373413087223,0
921,3.7182173934016727,0
922,6.875905442546647,0
923,-0.49339226054099444,0
924,-1.8387134528078106,0
925,1.4669492401240711,0
926,-0.7945614782661424,0
927,0.2127929857259367,0
928,0.03247411913854439,0
929,-0.0753872522928919,0
930,0.007933021034112232,0
931,0.07894430914381191,0
932,-0.005047212100064147,0
933,-0.03852148846648358,0
934,0.1071458129286695,0
935,0.06745446359596262,0
936,0.10066538143829884,0
937,-0.10870097933157379,0
938,-0.01629298343346909,0
939,0.05996564251317768,0
940,0.1954762805020829,0
941,3.7056006644399377,0
942,6.799479873872341,0
943,-0.43844082194373624,0
944,-1.8380414660553042,0
945,1.4690781816698768,0
946,-0.701380741104509,0
947,0.18803764139244108,0
948,0.023471462173407235,0
949,0.03070670859023681,0
950,0.07300833245036586,0
951,-0.03332524532208916,0
952,0.013860565767027695,0
953,0.045545075474134084,0
954,0.05500228533255823,0
955,0.0368035831576687,0
956,0.009162490551826236,0
957,-0.041296522827957254,0
958,0.13835637935323575,0
959,-0.00648258952391766,0
960,0.3231307711965445,0
961,3.723032310716825,0
962,6.8145876420565745,0
963,-0.5259056373311954,0
964,-1.757553580366778,0
965,1.5285170745079246,0
966,-0.8263405177275165,0
967,0.12167589937392097,0
968,0.0904320326908745,0
969,-0.023451143130054208,0
970,-0.009234362212916063,0
971,0.009870614275705472,0
972,-0.03098532279375259,0
973,-0.0004921118730782763,0
974,-0.05398599275674373,0
975,-0.00932221215920434,0
976,0.06785674525187775,0
977,-0.03642124106845958,0
978,0.0036192459475433633,0
979,0.03638231341789551,0
980,0.24783003612851648,0
981,3.6838253146661533,0
982,6.8132626490268065,0
983,-0.5206956480057897,0
984,-1.8360632088920665,0
985,1.5139259813895252,0
986,-0.7472104817701704,0
987,0.16529234600534165,0
988,-0.024927642980088153,0
989,-0.03734951657758949,0
990,0.004488721381416878,0
991,-0.00012783952321251263,0
992,0.007244516476314342,0
993,-0.016739725493733527,0
994,-0.014419929739662937,0
995,0.003041495683818912,0
996,-0.013203913326982914,0
997,0.034059850659837285,0
998,0.010756467263219294,0
999,-0.048089226877381513,0
1000,0.3078483119389626,0
1001,3.6305130158944534,0
1002,6.911324996207767,0
1003,-0.5821802013543018,0
1004,-1.864817050520674,0
1005,1.5159052600609417,0
1006,-0.727369894487349,0
1007,0.13629206070105163,0
1008,0.0805110008264764,0
1009,0.02442771423757665,0
1010,0.05331374977882833,0
1011,0.0527264473744126,0
1012,-0.03377016192538562,0
1013,0.06026180301061776,0
1014,0.07494560550243487,0
1015,0.14481441135430886,0
1016,0.07203393093859202,0
1017,-0.03244585537130031,0
1018,-0.015950605834472983,0
1019,-0.006965492291550444,0
1020,0.24898945609600395,0
1021,3.684304889389394,0
1022,6.739653283838158,0
1023,-0.5107714308547276,0
1024,-1.787020915830704,0
1025,1.4599624189501537,0
1026,-0.6783881935452689,0
1027,0.16513653660031813,0
1028,-0.1419478629344979,0
1029,-0.08432777859483412,0
1030,-0.0007053845536252636,0
1031,-0.0576122285175023,0
1032,-0.031176496743563657,0
1033,-0.02537040199169237,0
1034,-0.04412510909337562,0
1035,0.009437811064365038,0
1036,0.05186122517631978,0
1037,0.06495717410999538,0
1038,-0.055459655209258975,0
1039,-0.12619977905456714,0
1040,0.33383371594951555,0
1041,3.667653240815881,0
1042,6.849069713383686,0
1043,-0.5678377187743567,0
1044,-1.7233702657426104,0
1045,1.5202764112961888,0
1046,-0.7479393298371052,0
1047,0.138472369227026,0
1048,0.04889320601673029,0
1049,-0.005278852897499388,0
1050,0.04940264381640782,0
1051,-0.027452324632465577,0
1052,0.07670610936507037,0
1053,-0.10194913474349662,0
1054,0.012402973143954596,0
1055,0.08039110057702789,0
1056,0.030349147145635663,0
1057,-0.11373820609327424,0
1058,-0.00589046685921147,0
1059,0.0765765261682081,0
1060,0.2560154365630475,0
1061,3.671548179593238,0
1062,6.850456358901969,0
1063,-0.5886882466081791,0
1064,-1.766196666952693,0
1065,1.5737950160025587,0
1066,-0.7331789375053276,0
1067,0.1531973400691599,0
1068,0.1369490159488448,0
1069,-0.06620920580773944,0
1070,0.14716351537119948,0
1071,0.023410043987077765,0
1072,0.050770589783963226,0
1073,0.053101306530156066,0
1074,0.12296546937483893,0
1075,0.038089917556838895,0
1076,0.02190345556592161,0
1077,0.17349818283980029,0
1078,0.04418580240887849,0
1079,0.021367455453895103,0
1080,0.3065522947670881,0
1081,3.685280508389601,0
1082,6.883553864078083,0
1083,-0.42728019706185694,0
1084,-1.6900823651889025,0
1085,1.5620550434753786,0
1086,-0.6691953839073255,0
1087,0.2719093467275605,0
1088,0.05030481066370158,0
1089,0.05808848370340983,0
1090,0.06108368833064888,0
1091,0.02487764184638687,0
1092,0.0332398681377297,0
1093,0.06853925648693703,0
1094,0.10486264227086523,0
1095,0.041163745017339465,0
1096,0.09151635184906584,0
1097,0.1233912451777138,0
1098,0.0491386193790394,0
1099,0.17718598133232047,0
1100,0.3933801130056355,0
1101,3.845178495008779,0
1102,6.819238720187685,0
1103,-0.4823305823865446,0
1104,-1.7355426151121334,0
1105,1.5814641424479698,0
1106,-0.5920894983473454,0
1107,0.3259529149456998,0
1108,0.057961236794854806,0
1109,0.07281637324200135,0
1110,0.02273253298336926,0
1111,0.04916354340482851,0
1112,0.004264269263146804,0
1113,0.07589981570675913,0
1114,0.09905595762783798,0
1115,0.0733925509505855,0
1116,0.047895221425344775,0
1117,0.04611072524057751,0
1118,0.014652351925391674,0
1119,0.1287843522088151,0
1120,0.37609187903438146,0
1121,3.7486035159166065,0
1122,6.791180618312228,0
1123,-0.4879444459349757,0
1124,-1.7174640979840943,0
1125,1.5715098802609009,0
1126,-0.5685744345059677,0
1127,0.30026032176285233,0
1128,0.06559564196921575,0
1129,0.003414144486873112,0
1130,0.10674372379614078,0
1131,0.1048151683420539,0
1132,0.06600333707806164,0
1133,0.02337661067697787,0
1134,0.005336958429318445,0
1135,0.022738439863066257,0
1136,0.06830861149038879,0
1137,0.05733386411871498,0
1138,0.10770383473606554,0
1139,0.01751872273695696,0
1140,0.3547040049334121,0
1141,3.8070027574521728,0
1142,6.8257409959055675,0
1143,-0.5718487481954366,0
1144,-1.706559713327009,0
1145,1.6101975738595249,0
1146,-0.7148636814561404,0
1147,0.1867383826169206,0
1148,0.07200717448321196,0
1149,0.04431004396174898,0
1150,0.1925274047763479,0
1151,0.08849199234897832,0
1152,0.11236842479061718,0
1153,0.05370983289679992,0
1154,0.12611721271801687,0
1155,0.05507498085687815,0
1156,0.08365124847660722,0
1157,0.005738966085632,0
1158,0.05286428257728146,0
1159,0.07546705573317719,0
1160,0.37118552262186855,0
1161,3.7735118170181727,0
1162,6.909718814693476,0
1163,-0.5781675978890124,0
1164,-1.7271955987002217,0
1165,1.627906576163955,0
1166,-0.6906936066783809,0
1167,0.27300359108943595,0
1168,0.12011339022749887,0
1169,0.032751293630123565,0
1170,0.11882190569715068,0
1171,0.033461396542646626,0
1172,0.019269696585404825,0
1173,0.040740362001982305,0
1174,0.055889839774574165,0
1175,0.024046571185143573,0
1176,0.07834138357655172,0
1177,0.0415854086803302,0
1178,0.0646635699848751,0
1179,0.021568161790377186,0
1180,0.32133760897901104,0
1181,3.7465375986556513,0
1182,6.836797110055902,0
1183,-0.6290319414796072,0
1184,-1.7110662997068091,0
1185,1.554000182915346,0
1186,-0.688737421146949,0
1187,0.23312631823492985,0
1188,0.06284453067652776,0
1189,0.1025256818062515,0
1190,0.06662503052643173,0
1191,-0.014154439703732272,0
1192,0.059582332897776216,0
1193,0.12067080645436364,0
1194,0.030606262375264627,0
1195,0.021289689332795,0
1196,0.05411764899652032,0
1197,0.017102727874998676,0
1198,-0.029086465330333433,0
1199,-0.02273275971475274,0
1200,0.39370426915133094,0
1201,3.7250261418913793,0
1202,6.818841245801156,0
1203,-0.5886303802857467,0
1204,-1.69031777988582,0
1205,1.5584752117307865,0
1206,-0.6827197765474077,0
1207,0.1803236300353061,0
1208,0.01583861909927055,0
1209,-0.041530955743881624,0
1210,0.10547440983985182,0
1211,-0.023883922148189143,0
1212,-0.008477287983780158,0
1213,-0.05909593018539882,0
1214,0.008481376495070293,0
1215,0.05688239426142784,0
1216,-0.015641353157602823,0
1217,-0.10532581042466507,0
1218,-0.006364139223441116,0
1219,-0.05226200292457219,0
1220,0.27193563366885115,0
1221,3.7219475988523354,0
1222,6.830025310646197,0
1223,-0.599107770219146,0
1224,-1.7424182438163047,0
1225,1.543396077618232,0
1226,-0.7787408369818608,0
1227,0.13511802850277738,0
1228,0.0907414376346152,0
1229,-0.04805903445739719,0
1230,0.04156728212128091,0
1231,-0.009245388877988175,0
1232,-0.04716403029102427,0
1233,-0.038631777695650196,0
1234,-0.10276200334014704,0
1235,-0.03507643321334568,0
1236,-0.07024739496912762,0
1237,-0.08276113414482636,0
1238,-0.11585901491207798,0
1239,-0.15343927975221955,0
1240,0.23657390066061282,0
1241,3.592523566177766,0
1242,6.635548823559315,0
1243,-0.6457052400252101,0
1244,-1.8039892506128794,0
1245,1.3905441995395507,0
1246,-0.7284097363309461,0
1247,0.11741244183758706,0
1248,-0.09680897008525369,0
1249,-0.06669086054011172,0
1250,0.01066915636274134,0
1251,0.048340784650746704,0
1252,0.032240443279268484,0
1253,-0.0517029571749689,0
1254,0.043023145985977174,0
1255,-0.1081580893855833,0
1256,-0.035418889667434145,0
1257,0.015282726355353306,0
1258,-0.09276730098840083,0
1259,0.06696645606209937,0
1260,0.2948490395499838,0
1261,3.7235733107362554,0
1262,6.675364332267486,0
1263,-0.6046391161048803,0
1264,-1.7430958597064214,0
1265,1.4479064585146164,0
1266,-0.8303397359570436,0
1267,0.1881496044198258,0
1268,0.049522191651345415,0
1269,-0.10362746133885503,0
1270,-0.05200072269534368,0
1271,-0.07003387801127223,0
1272,0.06641607672897006,0
1273,-0.05159664161524362,0
1274,0.0526033532959346,0
1275,0.0059210932200614574,0
1276,-0.05319152794576951,0
1277,-0.09412401590738641,0
1278,-0.0844185872615702,0
1279,-0.09443558923793918,0
1280,0.3284666835526647,0
1281,3.6414880588380276,0
1282,6.752963811311096,0
1283,-0.6240252610375213,0
1284,-1.6495328325811855,0
1285,1.5186159906361485,0
1286,-0.8357418766335013,0
1287,0.14372015619553605,0
1288,-0.012669432573696002,0
1289,-0.036626411551613836,0
1290,0.04660989571898067,0
1291,0.021261053895578468,0
1292,-0.01098559071480755,0
1293,0.029792659289746996,0
1294,-0.02350558671272797,0
1295,0.005034234111149804,0
1296,-0.07428972059497166,0
1297,0.025798357941079486,0
1298,-0.08225832405396438,0
1299,-0.08524150730870673,0
1300,0.32078342833002593,0
1301,3.5927772361628687,0
1302,6.767179944931513,0
1303,-0.6088473237177501,0
1304,-1.8516841397092723,0
1305,1.5226978118679448,0
1306,-0.7531362466765723,0
1307,0.08217407134494092,0
1308,-0.08802549266100576,0
1309,-0.09969004884558746,0
1310,-0.013902325951408216,0
1311,-0.0891641149667842,0
1312,-0.1283378769874837,0
1313,-0.04946178351165201,0
1314,-0.02973306086205328,0
1315,-0.018777164605376588,0
1316,-0.004148237224151613,0
1317,-0.033631156211068075,0
1318,-0.03172271765150876,0
1319,-0.08861786108962155,0
1320,0.2335314255083012,0
1321,3.6516758486449548,0
1322,6.669195206277329,0
1323,-0.7019573403144785,0
1324,-1.8758619067186753,0
1325,1.430670908201614,0
1326,-0.8735578670498967,0
1327,0.11578173036965142,0
1328,-0.04007883182867194,0
1329,-0.1061340077831032,0
1330,-0.050535151474111265,0
1331,-0.040100510552581556,0
1332,-0.0398594137699514,0
1333,-0.06021705662190486,0
1334,-0.02428397416024143,0
1335,0.016929333202950862,0
1336,-0.0009825158223224703,0
1337,-0.04138963252075864,0
1338,-0.022903729910972715,0
1339,-0.10709144286179365,0
1340,0.22162053135167653,0
1341,3.7799040421492704,0
1342,6.702928236716308,0
1343,-0.6913596877243557,0
1344,-1.8145842844808378,0
1345,1.4545423485153997,0
1346,-0.7817526480916709,0
1347,0.12093617151342294,0
1348,-0.01229584135850428,0
1349,0.0022304253261179185,0
1350,-0.03153139747572332,0
1351,-0.05389797641538498,0
1352,-0.0036012035561263506,0
1353,0.024632184952804108,0
1354,-0.05905062771472208,0
1355,-0.03164900554326408,0
1356,-0.06279748314526419,0
1357,0.010963918523131756,0
1358,0.019570836231666878,0
1359,-0.05788367879214022,0
1360,0.30409739194635166,0
1361,3.6621121742123837,0
1362,6.854779343258781,0
1363,-0.6985506925048266,0
1364,-1.8456679898415123,0
1365,1.397271579600424,0
1366,-0.7045849024464254,0
1367,0.14172960781955862,0
1368,-0.05991856411876075,0
1369,-0.013823921766572995,0
1370,-0.014179996429719713,0
1371,0.0009665967526296913,0
1372,-0.07530535143836896,0
1373,0.017261977161604637,0
1374,-0.03600515112540494,0
1375,0.007420574724894945,0
1376,-0.051885812416929966,0
1377,-0.013449147092716919,0
1378,-0.044271798109901686,0
1379,-0.07303959872854889,0
1380,0.34266988784753527,0
1381,3.83911963169635,0
1382,6.751173332086991,0
1383,-0.7230964139181475,0
1384,-1.7745734902147092,0
1385,1.4875366737311158,0
1386,-0.80212347716423,0
1387,0.048352187188791265,0
1388,0.02632001461584256,0
1389,-0.10079963644236345,0
1390,0.006238236958384046,0
1391,-0.06855688062144738,0
1392,-0.0902193776633084,0
1393,0.040360840197201125,0
1394,0.005741796001799956,0
1395,-0.06566185096014088,0
1396,-0.06660774272609614,0
1397,0.0037109739527496147,0
1398,0.048094856952071594,0
1399,-0.047292998222025644,0
1400,0.3166243538262271,0
1401,3.831935822819809,0
1402,6.744361062308732,0
1403,-0.6204729069846084,0
1404,-1.7482882394491943,0
1405,1.50992907721838,0
1406,-0.7869134153109733,0
1407,0.0025715598110364057,0
1408,0.08011960306592493,0
1409,-0.13890624285298583,0
1410,0.01608165447255861,0
1411,-0.014462582900700769,0
1412,-0.021040908067564347,0
1413,0.04009505308534201,0
1414,-0.009451836189535955,0
1415,0.07866193901102159,0
1416,0.06557186829635564,0
1417,0.09510706455069814,0
1418,0.13865333671565555,0
1419,0.032382474173561535,0
1420,0.37439968514766814,0
1421,3.7503016846413546,0
1422,6.788438172370399,0
1423,-0.5576742165748968,0
1424,-1.7191725390453618,0
1425,1.4370097396324208,0
1426,-0.770089549400777,0
1427,0.1807581008077022,0
1428,0.02794685206208174,0
1429,-0.038616889849638604,0
1430,0.08906258984667578,0
1431,0.02796080249810543,0
1432,0.05271276957292787,0
1433,-0.060934572440846865,0
1434,-0.03859916618195013,0
1435,0.035538914820442885,0
1436,0.026588889879391064,0
1437,0.01081329350862936,0
1438,0.008514444891215592,0
1439,0.01999670689129652,0
1440,0.33910735280361887,0
1441,3.711738497643516,0
1442,6.818203080917654,0
1443,-0.6616800826458287,0
1444,-1.6543632938976591,0
1445,1.5105154940093255,0
1446,-0.844447236524779,0
1447,0.1972373374706858,0
1448,-0.02390606051196497,0
1449,-0.10974362674092263,0
1450,0.11098160207022163,0
1451,-0.012899108375298736,0
1452,0.016206940617381645,0
1453,-0.022948760778053225,0
1454,-0.013675530149924273,0
1455,-0.028481268468565506,0
1456,0.032718264779050966,0
1457,-0.024361034996667117,0
1458,0.012415898158335445,0
1459,0.09509391418299759,0
1460,0.31278798065732816,0
1461,3.7680990728349353,0
1462,6.719072168038335,0
1463,-0.6160639404317864,0
1464,-1.6937154420613785,0
1465,1.5789504141667474,0
1466,-0.7959605443907803,0
1467,0.2656596861413028,0
1468,0.014609660541844392,0
1469,-0.053075943955211466,0
1470,-0.014758887236050249,0
1471,-0.016284720292654115,0
1472,-0.025929140833234207,0
1473,-0.05354318930942634,0
1474,-0.05823674535006751,0
1475,-0.06154796963585833,0
1476,-0.002461202093050202,0
1477,0.07199725953637394,0
1478,0.016355712817061725,0
1479,-0.013174155575576925,0
1480,0.2850222923835354,0
1481,3.7987028218516996,0
1482,6.725581069064141,0
1483,-0.6959556011006957,0
1484,-1.6664254861002943,0
1485,1.5026938002103447,0
1486,-0.69246149469641,0
1487,0.22292355807009823,0
1488,0.0074287196581267635,0
1489,0.01300262910307115,0
1490,0.0525102975206494,0
1491,0.03430348298507087,0
1492,0.005540392872068812,0
1493,-0.04958356425114592,0
1494,0.012285280351243549,0
1495,0.026968583846453984,0
1496,-0.026571896151369866,0
1497,-0.05411410101758139,0
1498,0.09841992610422294,0
1499,0.09517207378897943,0
1500,0.2278198599568047,0
1501,3.7866218553554276,0
1502,6.900002564947857,0
1503,-0.6377413039676298,0
1504,-1.7132408070184328,0
1505,1.498410713225214,0
1506,-0.7776305391320357,0
1507,0.1398084909783077,0
1508,-0.013926414001304767,0
1509,-0.0464287205683233,0
1510,-0.0313550306105994,0
1511,-0.035643040719444005,0
1512,-0.029759953806699536,0
1513,0.071287154337483,0
1514,-0.023430799087700495,0
1515,-0.06222528331832009,0
1516,-0.002472887893459211,0
1517,0.06585151782726988,0
1518,0.04365622941842281,0
1519,0.039932465538064545,0
1520,0.23763465768017838,0
1521,3.7868470246781127,0
1522,6.700065849518595,0
1523,-0.6296224487532581,0
1524,-1.7095580926548077,0
1525,1.562035694113866,0
1526,-0.772243714600913,0
1527,0.14193194980313056,0
1528,0.02736149281093203,0
1529,-0.034311068464406104,0
1530,0.07364701244253634,0
1531,0.034005508068901916,0
1532,0.012384573086604357,0
1533,0.04438306520139511,0
1534,-0.08513436132008653,0
1535,-0.05070057747594454,0
1536,0.011916931713515828,0
1537,0.05430976527866076,0
1538,0.05540669278297848,0
1539,0.01016546734914375,0
1540,0.29025461111765977,0
1541,3.7659307572976846,0
1542,6.827975787167545,0
1543,-0.6585306982983451,0
1544,-1.7413379643737703,0
1545,1.5310441274708129,0
1546,-0.7728585264551243,0
1547,0.21017393754188435,0
1548,0.08522955282281809,0
1549,-0.08175162595513157,0
1550,0.06967818975663631,0
1551,-0.04885696886210347,0
1552,0.06328357565872575,0
1553,0.057953379649350295,0
1554,-0.007211945625087802,0
1555,-0.006785413376803908,0
1556,0.05636777263979008,0
1557,-0.06303893957691525,0
1558,0.0066046499536057904,0
1559,0.045562851494266914,0
1560,0.3767582485331607,0
1561,3.774938156410669,0
1562,6.71933337492184,0
1563,-0.7308628222540445,0
1564,-1.65074421725357,0
1565,1.5134364371799232,0
1566,-0.8317248460590528,0
1567,0.23088943932343325,0
1568,0.002738641466121677,0
1569,-0.051781193599504345,0
1570,0.060649590516546184,0
1571,-0.02354361282020387,0
1572,0.010285974771313332,0
1573,-0.03947030243763645,0
1574,-0.06037983330110731,0
1575,-0.025838181076116448,0
1576,-0.009448177461602926,0
1577,-0.012450024446241879,0
1578,0.006458600808690131,0
1579,-0.019812521082574072,0
1580,0.35457491389206,0
1581,3.8268600663001955,0
1582,6.731314482112662,0
1583,-0.6771086255168358,0
1584,-1.7963796499535358,0
1585,1.4271739716942426,0
1586,-0.7891596509644515,0
1587,0.018695490229251155,0
1588,-0.03891393554255307,0
1589,-0.103983185987014,0
1590,0.06669167482593262,0
1591,-0.04189158208930034,0
1592,-0.0632528283244063,0
1593,-0.0016268542856535868,0
1594,0.11530427743577899,0
1595,0.0041778196713093945,0
1596,-0.006683676501896482,0
1597,0.035583687254189526,0
1598,0.0535351781853012,0
1599,0.12343139749605282,0
1600,0.30013791561044745,0
1601,3.885656831747142,0
1602,6.857349946015343,0
1603,-0.5285593516042623,0
1604,-1.6054622136331351,0
1605,1.5643384527196946,0
1606,-0.7465869529248076,0
1607,0.20575379344746228,0
1608,0.1473437533771329,0
1609,-0.011384114602622238,0
1610,0.027097784441860857,0
1611,0.11322651927967214,0
1612,0.07188586817485002,0
1613,-0.0995867760421085,0
1614,-0.10607695968566096,0
1615,-0.10184071519418632,0
1616,0.06702382835576345,0
1617,0.05300035925598387,0
1618,0.07969613931655563,0
1619,-0.05474369638479261,0
1620,0.3757271399960302,0
1621,3.7605939292691324,0
1622,6.749376854551521,0
1623,-0.7156269382727246,0
1624,-1.6341992567680972,0
1625,1.567196562075978,0
1626,-0.6966285916783862,0
1627,0.1995155513923218,0
1628,-0.0025704250458154013,0
1629,-0.048530579685647224,0
1630,0.057761385328585345,0
1631,-0.02112852086678206,0
1632,0.035356980017848205,0
1633,0.06453022291000732,0
1634,-0.016324614120080714,0
1635,-0.05533536449184928,0
1636,0.02376036649546157,0
1637,0.10808256492139814,0
1638,0.13335389674069345,0
1639,-0.03268622331847862,0
1640,0.28398847706704977,0
1641,3.8255020969710802,0
1642,6.688015160324135,0
1643,-0.6786320510928545,0
1644,-1.765520714659934,0
1645,1.539767621946088,0
1646,-0.8096863322814245,0
1647,0.1706048146938334,0
1648,-0.00807149221492201,0
1649,-0.12221894374049232,0
1650,0.03223567317451051,0
1651,-0.08162165918533945,0
1652,-0.017616929493287956,0
1653,-0.03870923353542025,0
1654,-0.03752452467646947,0
1655,-0.0650849195291637,0
1656,0.05245862097878334,0
1657,0.03557003564982571,0
1658,0.049614928249543194,0
1659,-0.03928898996169418,0
1660,0.2326719036960354,0
1661,3.82136262265059,0
1662,6.758822973905461,0
1663,-0.7438895940884951,0
1664,-1.622368134159062,0
1665,1.5901557958197665,0
1666,-0.8025696325149347,0
1667,0.24223458806652756,0
1668,0.008631281045582188,0
1669,-0.028418584612088123,0
1670,0.05510007756161185,0
1671,-0.01950558195513039,0
1672,0.02386006412918193,0
1673,-0.018702055126943506,0
1674,0.004789451093085064,0
1675,0.055198778091104406,0
1676,0.05660804865177212,0
1677,0.0938557814390755,0
1678,0.06632779216550835,0
1679,0.050192859441631356,0
1680,0.32439228795445496,0
1681,3.787576523013268,0
1682,6.759097153550922,0
1683,-0.7483376728629578,0
1684,-1.7185392137030484,0
1685,1.4849561308535262,0
1686,-0.7509238429029126,0
1687,0.06371665897761064,0
1688,-0.02683449413586972,0
1689,-0.040504829100690934,0
1690,-0.030830076918969572,0
1691,0.06080139856577671,0
1692,-0.026036267877213436,0
1693,-0.1331200794200665,0
1694,-0.02008096346089794,0
1695,-0.08764289029762493,0
1696,-0.05014900192300186,0
1697,-0.0321077596835825,0
1698,-0.010058624070729338,0
1699,0.03930642804357377,0
1700,0.34140428565838354,0
1701,3.759251189348639,0
1702,6.8154732559541635,0
1703,-0.699005750980528,0
1704,-1.6755241573582715,0
1705,1.531339223991865,0
1706,-0.8193135491900855,0
1707,0.24570959500376927,0
1708,0.07023539431487082,0
1709,0.05586812505270315,0
1710,0.08496854878388639,0
1711,-0.01834777575539653,0
1712,-0.025346102322053764,0
1713,0.14765534108780456,0
1714,0.08746354229582445,0
1715,0.007866014268193878,0
1716,0.0027653309918110186,0
1717,0.008486212104865082,0
1718,0.0425914694436864,0
1719,0.0852179163694475,0
1720,0.3170056531192218,0
1721,3.8908922541235893,0
1722,6.718178537328067,0
1723,-0.699869597458834,0
1724,-1.7217546204159455,0
1725,1.5136403356456425,0
1726,-0.7899456884902458,0
1727,0.18724668014850854,0
1728,0.01817090810886781,0
1729,-0.01793870242647099,0
1730,0.013724442094646253,0
1731,0.005466272703006911,0
1732,0.030420953382949426,0
1733,0.038927144074236926,0
1734,0.0828806375118413,0
1735,-0.041611198516363745,0
1736,0.014451755953020845,0
1737,-0.01755873413082526,0
1738,-0.006033022112122376,0
1739,0.0051258991598012085,0
1740,0.2738011587762042,0
1741,3.823471076916,0
1742,6.707876045581024,0
1743,-0.7499914467034181,0
1744,-1.7103168547930858,0
1745,1.5516555713322546,0
1746,-0.737200255373218,0
1747,0.1928514643773463,0
1748,0.05759689833999472,0
1749,-0.10839018136992534,0
1750,0.037445950691374824,0
1751,-0.018725309823094477,0
1752,-0.06837982590252915,0
1753,0.023736075854794026,0
1754,0.04455470105423704,0
1755,0.09268890510995566,0
1756,-0.0620098254719936,0
1757,0.04402828311046163,0
1758,-0.03903024360535698,0
1759,-0.05509969726871894,0
1760,0.3962502565597232,0
1761,3.723950239876241,0
1762,6.766081355548228,0
1763,-0.7485919986273387,0
1764,-1.6921517245936601,0
1765,1.3695650379614663,0
1766,-0.8255809811081594,0
1767,0.19494509122392242,0
1768,-0.04256769469125279,0
1769,-0.0134348067368295,0
1770,0.022261716590753673,0
1771,-0.020610513979823032,0
1772,0.030605367268677387,0
1773,-0.032977086688782374,0
1774,-0.009956013147841612,0
1775,-0.03067225198778628,0
1776,-0.04966176351032381,0
1777,0.004703474042094941,0
1778,-0.03046846707727622,0
1779,0.048093359945522204,0
1780,0.3270872655930504,0
1781,3.8306083642345685,0
1782,6.744043449758918,0
1783,-0.7321305385704925,0
1784,-1.671424647679209,0
1785,1.540567629217842,0
1786,-0.7975471041402206,0
1787,0.1361567332734423,0
1788,-0.03168012576542104,0
1789,-0.14680533298558754,0
1790,-0.15754113638815478,0
1791,-0.1263587868740657,0
1792,-0.02502173852376456,0
1793,-0.0993058440522076,0
1794,-0.09050784297931595,0
1795,-0.1057233278080735,0
1796,-0.0706106429198278,0
1797,0.06575043208305824,0
1798,-0.04721744613329086,0
1799,-0.0034001797893101968,0
1800,0.39834641044951663,0
1801,3.837018118569734,0
1802,6.727560992644145,0
1803,-0.7318355538210006,0
1804,-1.6313168392055155,0
1805,1.4306987421598372,0
1806,-0.7322094485465818,0
1807,0.3462542268328568,0
1808,-0.021135311871636506,0
1809,-0.03748546033859368,0
1810,-0.00670497254573508,0
1811,-0.06272508239165683,0
1812,0.1032100082303603,0
1813,-0.020172849915529107,0
1814,-0.03526754792251147,0
1815,-0.0758087780954683,0
1816,-0.06197829042146136,0
1817,0.008110304201284245,0
1818,-0.015987845118321256,0
1819,-0.055387823849840846,0
1820,0.2548405473326321,0
1821,3.7636353609841584,0
1822,6.665707598549286,0
1823,-0.7435138200459733,0
1824,-1.659714028736923,0
1825,1.4058328777329772,0
1826,-0.7078836997776699,0
1827,0.13886321728925288,0
1828,-0.041666230085911526,0
1829,0.0282771826030383,0
1830,0.03210701252631126,0
1831,-0.0768533713729081,0
1832,0.09921616035085885,0
1833,-0.06576877720834243,0
1834,0.012902945067696249,0
1835,0.007499558605971503,0
1836,-0.020913687620635665,0
1837,0.06367975107928132,0
1838,-0.06692678025169177,0
1839,-0.011726145321202506,0
1840,0.31761182008732014,0
1841,3.7632586643520165,0
1842,6.639720172226552,0
1843,-0.7899193620747849,0
1844,-1.7176348696749202,0
1845,1.3823874989680265,0
1846,-0.7393801349203813,0
1847,0.12257908576395754,0
1848,-0.04759767196641231,0
1849,-0.09707947420076789,0
1850,0.0003647499323050467,0
1851,0.024600182876465503,0
1852,-0.12012603055254299,0
1853,-0.07356011854710694,0
1854,-0.06952669725428098,0
1855,-0.03945271593712078,0
1856,-0.06464759126455938,0
1857,-0.08634584874453434,0
1858,0.0012613958428261754,0
1859,-0.019498092344147216,0
1860,0.33064770145427613,0
1861,3.8312016007856333,0
1862,6.59507321784146,0
1863,-0.8714429302302664,0
1864,-1.7027022478408638,0
1865,1.40663011139285,0
1866,-0.7414880797788579,0
1867,0.1531818170536085,0
1868,-0.07051520191072361,0
1869,-0.05134724688608883,0
1870,0.016155672039529573,0
1871,-0.019926510159835903,0
1872,0.098362610317219,0
1873,-0.03805732728761348,0
1874,0.03129354602601586,0
1875,-0.010842797215003034,0
1876,-0.11390661807230713,0
1877,0.021408473177079813,0
1878,-0.09503329689884644,0
1879,-0.08215371427343368,0
1880,0.33725646929616476,0
1881,3.8241741114499868,0
1882,6.7730213307212015,0
1883,-0.6914058997461182,0
1884,-1.6331982814256434,0
1885,1.4758540378935427,0
1886,-0.9108042760401311,0
1887,0.11198699314412683,0
1888,0.0547949567670367,0
1889,0.030317421935101216,0
1890,-0.033281986059998714,0
1891,-0.01149736341848005,0
1892,-0.04121491916363536,0
1893,0.053950129186487214,0
1894,0.023781006280420694,0
1895,-0.0755532334460418,0
1896,-0.03314902974984766,0
1897,-0.003511276786296671,0
1898,-0.06921256402756847,0
1899,-0.09615629400086123,0
1900,0.361711795659911,0
1901,3.7908013114364225,0
1902,6.6974752801501545,0
1903,-0.7917970228926969,0
1904,-1.6788503706887712,0
1905,1.4781950514561781,0
1906,-0.7721267118215688,0
1907,0.24470738191047903,0
1908,0.07069067483395135,0
1909,0.032429566737393514,0
1910,0.0408064289054557,0
1911,0.11461406204395647,0
1912,0.06310024457499366,0
1913,0.06229662393098085,0
1914,-0.06735046555563948,0
1915,0.047661122415742496,0
1916,0.00046576719836013275,0
1917,0.09352090778750867,0
1918,-0.045576513173612526,0
1919,0.025661882895834504,0
1920,0.3031890902912852,0
1921,3.8555373499308994,0
1922,6.6785204323490115,0
1923,-0.8596413092668151,0
1924,-1.676903391975014,0
1925,1.3723132174708697,0
1926,-0.8776352029145797,0
1927,0.11008045867422982,0
1928,-0.15946448748657382,0
1929,-0.15442611799926353,0
1930,-0.09353505913679522,0
1931,-0.1272221239485532,0
1932,-0.08017888250203721,0
1933,-0.10693441554552545,0
1934,-0.0005929020867787849,0
1935,-0.16920929948807578,0
1936,-0.1372937530882941,0
1937,-0.0705781998493304,0
1938,-0.03378276272904965,0
1939,-0.10810457284326244,0
1940,0.31418308293235647,0
1941,3.937697617455256,0
1942,6.745316498926852,0
1943,-0.8504834828514066,0
1944,-1.712247117526793,0
1945,1.4125366346843624,0
1946,-0.7530268362613862,0
1947,0.08523559364735867,0
1948,-0.032115329515721464,0
1949,-0.19706144019651656,0
1950,-0.06260054189610967,0
1951,-0.06556524290044707,0
1952,0.008213812001873586,0
1953,-0.09145361553393097,0
1954,-0.1153250462829373,0
1955,-0.14984047709261195,0
1956,-0.07078685595650193,0
1957,-0.0826184107359854,0
1958,-0.11255083253996548,0
1959,-0.09427684522863708,0
1960,0.2715286944558204,0
1961,3.851688542712249,0
1962,6.63759029762663,0
1963,-0.8971379648383794,0
1964,-1.6450682811053992,0
1965,1.4672097640371686,0
1966,-0.9155823269444859,0
1967,0.12523956081842846,0
1968,-0.1414828252171959,0
1969,-0.08623164469226788,0
1970,-0.05649020913788412,0
1971,0.02174892805069098,0
1972,-0.11429775200296881,0
1973,-0.13078048674749781,0
1974,-0.1298858123802946,0
1975,-0.10237773244030798,0
1976,-0.07169709700612173,0
1977,-0.08755868812234006,0
1978,-0.008696566737878275,0
1979,-0.08529199132824944,0
1980,0.21792297454517834,0
1981,3.7980105977759773,0
1982,6.66728747978768,0
1983,-0.8903978963180047,0
1984,-1.6487324397035201,0
1985,1.4227721235926718,0
1986,-0.8592935519019275,0
1987,0.14148178039195555,0
1988,0.04288328628322677,0
1989,-0.19080530088828984,0
1990,0.03970476519203,0
1991,-0.07079853931224812,0
1992,-0.10176819753653818,0
1993,-0.08457856955421973,0
1994,0.09220280493118772,0
1995,-0.10268978766023938,0
1996,-0.085608506768267,0
1997,-0.01576743447182412,0
1998,-0.026856243412156713,0
1999,-0.0306175346231592,0
2000,0.3105036280629553,0
2001,3.8474621529420694,0
2002,6.663232653901289,0
2003,-0.8136557644630141,0
2004,-1.6900124543162727,0
2005,1.425764241467453,0
2006,-0.880993023736614,0
2007,0.17681047118222085,0
2008,-0.12092568352034162,0
2009,-0.010380244791796944,0
2010,-0.003794940552969625,0
2011,-0.11811236499198213,0
2012,-0.13054752476002002,0
2013,-0.036228919511525876,0
2014,-0.10652032792693514,0
2015,-0.1197397044173006,0
2016,-0.01253157593502606,0
2017,-0.1091452439172455,0
2018,-0.08612745894815527,0
2019,-0.01915486210856536,0
2020,0.3294450751227601,0
2021,3.7281722516620674,0
2022,6.749184366353602,0
2023,-0.872733645317553,0
2024,-1.8105393515849149,0
2025,1.3458511813398415,0
2026,-0.8255003830128671,0
2027,0.02483211602181047,0
2028,-0.0898430288202003,0
2029,-0.18684927020327016,0
2030,-0.1641028290023678,0
2031,-0.08989664048442811,0
2032,-0.21014758365699293,0
2033,-0.17258251179901762,0
2034,-0.08338246150856085,0
2035,-0.1848150994917629,0
2036,-0.11249642420191157,0
2037,-0.07571895920288811,0
2038,-0.07198968234191999,0
2039,-0.026794131949301206,0
2040,0.3007723136293094,0
2041,3.838936028152208,0
2042,6.646144053494836,0
2043,-0.9126638661859351,0
2044,-1.725941161936575,0
2045,1.3827502031682335,0
2046,-0.8922172821399772,0
2047,0.025528976686103252,0
2048,-0.052982599714593084,0
2049,-0.197372866927532,0
2050,-0.10603344510771222,0
2051,-0.16447151310259833,0
2052,-0.14999448782696767,0
2053,-0.12713156749948026,0
2054,-0.06237659474368508,0
2055,-0.1072493687502617,0
2056,-0.047517916093633164,0
2057,-0.1843463926792574,0
2058,-0.04107948275455715,0
2059,-0.11325579025062318,0
2060,0.2940046301396515,0
2061,3.842336615961773,0
2062,6.677637378557521,0
2063,-0.797316883187575,0
2064,-1.6184598711315945,0
2065,1.4969086824528626,0
2066,-0.8619818266930909,0
2067,0.21168721527006867,0
2068,-0.09802007974388655,0
2069,-0.0737437460182118,0
2070,0.017541765370145953,0
2071,0.009851904146282488,0
2072,0.036970283875412874,0
2073,-0.07563188328368095,0
2074,-0.06090643588085794,0
2075,-0.04937264803535011,0
2076,-0.042061114627930926,0
2077,0.13065678785737106,0
2078,0.07739532258417813,0
2079,0.05404820557987365,0
2080,0.40743809675850684,0
2081,3.902199428423331,0
2082,6.71173298440308,0
2083,-0.7594074794883034,0
2084,-1.6211233474896989,0
2085,1.4759572180171832,0
2086,-0.7053766830118909,0
2087,0.19587629141741078,0
2088,-0.13968529131886803,0
2089,-0.14171444587025883,0
2090,0.007058815178637344,0
2091,-0.004169354053939159,0
2092,-0.027592463934737015,0
2093,0.035683400318458555,0
2094,0.09752741543489546,0
2095,-0.0408303331577553,0
2096,-0.00392717367541115,0
2097,-0.0665129156251934,0
2098,-0.06880989909518402,0
2099,-0.08569844269896272,0
2100,0.31173457115752046,0
2101,3.8715487729442963,0
2102,6.766441525520711,0
2103,-0.7906455857352004,0
2104,-1.5923114698658347,0
2105,1.4617024911517287,0
2106,-0.75303294978171,0
2107,0.18693293287095972,0
2108,-0.008100588378377356,0
2109,-0.10034268590658209,0
2110,0.10376248900158251,0
2111,-0.03156165895391447,0
2112,0.03221253335370823,0
2113,-0.03503349437827602,0
2114,0.027524255146810898,0
2115,0.023087004152681553,0
2116,-0.023216390704980522,0
2117,0.006830122508567498,0
2118,-0.06244900297548987,0
2119,-0.07325572552897967,0
2120,0.2926451324221143,0
2121,3.9111969433745624,0
2122,6.759008467012391,0
2123,-0.9014828698520617,0
2124,-1.6205233300244521,0
2125,1.5252340827801063,0
2126,-0.7395960681113891,0
2127,0.2184433436042278,0
2128,-0.10980247008458312,0
2129,0.0272001510545559,0
2130,0.11900528392444895,0
2131,0.06449062358060206,0
2132,0.09361221092623478,0
2133,0.0009894046878763385,0
2134,0.0825494007943453,0
2135,0.06433226233648519,0
2136,0.04665982011144708,0
2137,0.1342087350647425,0
2138,0.06377311115747265,0
2139,-0.001248350072190249,0
2140,0.4253488321889665,0
2141,3.9362301532911252,0
2142,6.772361250702446,0
2143,-0.8714330611275402,0
2144,-1.6325598177989253,0
2145,1.4645611523515922,0
2146,-0.6105234396821938,0
2147,0.2203076482213161,0
2148,-0.03042160551696435,0
2149,0.0053448644025065935,0
2150,0.048580070179424784,0
2151,-0.0399979808070065,0
2152,0.024425937264813513,0
2153,-0.03441498485276045,0
2154,-0.048471464664495464,0
2155,0.02531794519268154,0
2156,-0.04680610435262985,0
2157,0.04486660906951741,0
2158,-0.060215920724475985,0
2159,-0.12389642694983181,0
2160,0.3038015814759166,0
2161,3.829019375131346,0
2162,6.668002387110683,0
2163,-0.82301762648008,0
2164,-1.650091405057261,0
2165,1.4893330862529748,0
2166,-0.8593575313258695,0
2167,0.19997614855999324,0
2168,-0.1495585339719715,0
2169,0.00867432409754379,0
2170,-0.007533085700326406,0
2171,0.052022138291352625,0
2172,0.10544668500428249,0
2173,0.02231848099553444,0
2174,0.025261150546422154,0
2175,-0.08970929823831172,0
2176,-0.06965222064422073,0
2177,-0.06388943881137253,0
2178,0.011371396311245624,0
2179,-0.04781094189512615,0
2180,0.3274958137578541,0
2181,3.9221526239179436,0
2182,6.71672563733231,0
2183,-0.8504336517349362,0
2184,-1.6156871411911728,0
2185,1.423376661005349,0
2186,-0.8357548325103563,0
2187,0.23447563409963706,0
2188,0.06417531260696749,0
2189,-0.014820618798086403,0
2190,0.11779137211139308,0
2191,-0.10737572528236326,0
2192,0.008616581963861902,0
2193,-0.009278689706390288,0
2194,0.07880889544196187,0
2195,0.14236122319887676,0
2196,-0.03643155611577831,0
2197,0.014849200652083398,0
2198,0.02752518991153148,0
2199,0.050557254574496474,0
2200,0.27305114523197327,0
2201,3.9053041753246145,0
2202,6.718388152429358,0
2203,-0.8855858933983036,0
2204,-1.5647970766091042,0
2205,1.3971723530199767,0
2206,-0.7952398788094119,0
2207,0.16530136654378993,0
2208,-0.008652822586209655,0
2209,-0.0538890998322651,0
2210,-0.026096388134247896,0
2211,-0.13430481642441966,0
2212,-0.03176004401295837,0
2213,-0.065702994584597,0
2214,-0.055022657533702925,0
2215,-0.07693145366387638,0
2216,-0.07102634058802415,0
2217,-0.11766297271876165,0
2218,-0.07669586566669173,0
2219,-0.013363557640382545,0
2220,0.42935560281273366,0
2221,3.8713853389042425,0
2222,6.751116742407413,0
2223,-0.8524648675561379,0
2224,-1.6383528644290972,0
2225,1.4434913815379868,0
2226,-0.8015642488748057,0
2227,0.13844096139712742,0
2228,-0.04465809371232593,0
2229,-0.03970902248658888,0
2230,0.1046547893292522,0
2231,-0.05714712278554285,0
2232,0.011015122035294287,0
2233,0.07133065249324862,0
2234,-0.055776978029018036,0
2235,0.0020291169740242095,0
2236,-0.04810661285074575,0
2237,0.11005910415644554,0
2238,0.029009002351082426,0
2239,-0.054765730966002124,0
2240,0.3812519175138274,0
2241,3.788180777828583,0
2242,6.647882630269152,0
2243,-0.8775281357491507,0
2244,-1.6239642860038932,0
2245,1.4397057611776198,0
2246,-0.7730366669770853,0
2247,0.09693665382026088,0
2248,-0.034941270569346275,0
2249,-0.07493135602440555,0
2250,0.07517638746676504,0
2251,-0.0623124771927526,0
2252,-0.16907867523322434,0
2253,-0.009907173099008564,0
2254,-0.04517933314955641,0
2255,0.0037536089767268668,0
2256,0.005616852553626912,0
2257,0.01837757480885372,0
2258,-0.003472870334448786,0
2259,0.01950396851429109,0
2260,0.37272061425784847,0
2261,3.8919522644540594,0
2262,6.72072153039137,0
2263,-0.9334547425282745,0
2264,-1.700953505374414,0
2265,1.4567144653130666,0
2266,-0.7537952148842372,0
2267,0.11803960748416181,0
2268,0.08416760534474517,0
2269,-0.08826169429130395,0
2270,-0.0017722339724359736,0
2271,-0.036429567062577925,0
2272,-0.00791226328360458,0
2273,0.038197126136049024,0
2274,-0.016831174388645204,0
2275,0.03788943076418158,0
2276,-0.08561878151973706,0
2277,0.02884754167425292,0
2278,-0.06094766830745098,0
2279,-0.03227050771927965,0
2280,0.2781108632735794,0
2281,3.880283724309562,0
2282,6.701116450185226,0
2283,-0.813292620090602,0
2284,-1.58145264052034,0
2285,1.4327979117017453,0
2286,-0.7264906196260341,0
2287,0.1386082240888133,0
2288,0.03210321679335919,0
2289,-0.05281244248847845,0
2290,-0.030798496661333823,0
2291,-0.05818805815014886,0
2292,0.010047414454294357,0
2293,0.03870456088564592,0
2294,-0.0614158182142866,0
2295,0.045561616642663824,0
2296,-0.05104269144505609,0
2297,0.017134515414509936,0
2298,0.019318547026822126,0
2299,0.013857884421031391,0
2300,0.4036399740071046,0
2301,3.956682093491916,0
2302,6.6816503507215215,0
2303,-0.8936905992393055,0
2304,-1.549850086318812,0
2305,1.4387296063721295,0
2306,-0.789188763081528,0
2307,0.14207387909169317,0
2308,0.1094976262355951,0
2309,0.02121280591639993,0
2310,-0.06657930817607743,0
2311,0.07012229457484719,0
2312,0.02844181716448354,0
2313,0.06459652775410941,0
2314,0.028575708492856053,0
2315,0.06603431394457221,0
2316,-0.08178155160219473,0
2317,-0.005659023329489921,0
2318,0.03223036149318166,0
2319,0.04682763742139185,0
2320,0.3432396101139,0
2321,3.895127923821519,0
2322,6.695047383902456,0
2323,-0.8467964660448263,0
2324,-1.6213121303313065,0
2325,1.4233017738257832,0
2326,-0.7279785868329894,0
2327,0.16476244931159592,0
2328,-0.035675788507722114,0
2329,-0.09878993868694076,0
2330,0.0182544659336963,0
2331,-0.05302513290279782,0
2332,-0.12355287573123133,0
2333,-0.04692388710686084,0
2334,0.013623255474707618,0
2335,-0.082893328424347,0
2336,0.043158875517669455,0
2337,0.02716782431263956,0
2338,-0.0362545382949195,0
2339,0.06063734331540128,0
2340,0.4711443183676554,0
2341,3.974260686649931,0
2342,6.711558335849861,0
2343,-0.810616531489576,0
2344,-1.580257669898965,0
2345,1.499038684064111,0
2346,-0.8387093361902218,0
2347,0.16786377003422903,0
2348,-0.06603847923634654,0
2349,-0.06748135191278765,0
2350,0.0194869864490152,0
2351,-0.04378979629794022,0
2352,-0.0021288998751776214,0
2353,-0.023223108337844772,0
2354,0.010541161291915006,0
2355,0.021508307756043694,0
2356,-0.07954008617079036,0
2357,0.006229201880336713,0
2358,0.02095425472942751,0
2359,-0.007685884549378876,0
2360,0.4540997896424286,0
2361,4.010499892682628,0
2362,6.7430007146764135,0
2363,-0.8667935559676722,0
2364,-1.554536955985493,0
2365,1.4699014867018296,0
2366,-0.6937580465827647,0
2367,0.18440702903153233,0
2368,0.04141957711835244,0
2369,-0.03481439017759966,0
2370,0.02300549015439748,0
2371,0.025718947634902543,0
2372,0.0205922233075471,0
2373,-0.0012968957975099662,0
2374,-0.08594692616645737,0
2375,-0.01539449401710161,0
2376,-0.02722192064980033,0
2377,-0.05707393753141967,0
2378,0.03225167029803454,0
2379,-0.05520424733828643,0
2380,0.27990443101797596,0
2381,3.9218935993785813,0
2382,6.62107493956035,0
2383,-1.0074910178632372,0
2384,-1.5770787923689138,0
2385,1.4880664348383776,0
2386,-0.7232491227218084,0
2387,0.15408196809610367,0
2388,-0.049448347164745415,0
2389,-0.058195377525714374,0
2390,0.06917128447394998,0
2391,0.0024852495713924526,0
2392,0.0269397581514611,0
2393,-0.009651380363439887,0
2394,-0.055110477275109954,0
2395,0.0126990416065759,0
2396,-0.016714505440960772,0
2397,0.026236346735111424,0
2398,-0.015602447795859052,0
2399,-0.10771373201409203,0
2400,0.38925235406599173,0
2401,3.896597160541867,0
2402,6.6601302704813,0
2403,-0.9925271519653585,0
2404,-1.665114701562011,0
2405,1.56682329254389,0
2406,-0.8479435834702379,0
2407,0.08347877406945367,0
2408,-0.0387088791363149,0
2409,-0.09786741562558643,0
2410,-0.02249629985067735,0
2411,-0.07305383238161858,0
2412,-0.03477760479063984,0
2413,-0.002676139696190998,0
2414,-0.024990719084460437,0
2415,-0.02282974486236812,0
2416,-0.0006760427242786983,0
2417,0.048782138069031526,0
2418,0.001531729278458415,0
2419,0.08134821245558434,0
2420,0.4321912386020149,0
2421,3.92521935551299,0
2422,6.681388876256948,0
2423,-0.9181080382353359,0
2424,-1.5804038450723112,0
2425,1.5441216589276028,0
2426,-0.7253781973783586,0
2427,0.2197901131301139,0
2428,0.0016281811311382038,0
2429,-0.1783343390066771,0
2430,-0.02086451557965482,0
2431,-0.023547090595523817,0
2432,-0.08335033973372072,0
2433,-0.10240604174527079,0
2434,-0.11023502779044742,0
2435,-0.1733357578465584,0
2436,-0.09880532048583777,0
2437,-0.17434659766736565,0
2438,-0.18514756556936524,0
2439,-0.09167026780759818,0
2440,0.22563506944003786,0
2441,3.755380377417135,0
2442,6.582676738010125,0
2443,-0.9580657982479002,0
2444,-1.5920142407416102,0
2445,1.430921731186738,0
2446,-0.8460272686955288,0
2447,0.09585636258681463,0
2448,-0.07062703736414565,0
2449,-0.07432980269089187,0
2450,-0.08268555525630042,0
2451,0.004857147687239646,0
2452,-0.009789953325242984,0
2453,0.07596449546672572,0
2454,-0.06347435717120865,0
2455,-0.01837014589750252,0
2456,-0.018237807506530344,0
2457,-0.016085816252087364,0
2458,0.01744755621406422,0
2459,0.034839632415905805,0
2460,0.4248778709362423,0
2461,4.034887177902409,0
2462,6.662382023778262,0
2463,-0.9297650110964736,0
2464,-1.4888156810191597,0
2465,1.4875589020522575,0
2466,-0.7880767446473693,0
2467,0.25020823646298085,0
2468,-0.03929491733229808,0
2469,-0.014408053295246515,0
2470,-0.013879696339752645,0
2471,-0.15191327284458667,0
2472,-0.027475139206942056,0
2473,-0.03461917175897011,0
2474,0.00029255823573597246,0
2475,-0.045032472953459836,0
2476,-0.013977962244907535,0
2477,0.01245248321806961,0
2478,0.026885817264539785,0
2479,0.0016881625705281924,0
2480,0.3398417738726919,0
2481,4.00494446261138,0
2482,6.734986513036724,0
2483,-0.9388369013458113,0
2484,-1.4829955429570572,0
2485,1.5549761258819608,0
2486,-0.6454852771197606,0
2487,0.13504356987894858,0
2488,0.09203203427260168,0
2489,0.06495360762712979,0
2490,0.04126526794970928,0
2491,0.11201661636595872,0
2492,0.0954134901963547,0
2493,-0.027038100986707427,0
2494,0.09842321668533419,0
2495,0.10659171991528474,0
2496,0.03310088859263535,0
2497,0.10873775647178686,0
2498,-0.01199381462101494,0
2499,0.004835247841884258,0
2500,0.28088476859664085,0
2501,3.9962771289363053,0
2502,6.610739252484697,0
2503,-0.9055886926826026,0
2504,-1.5553229367683825,0
2505,1.4590081174431775,0
2506,-0.789393934495728,0
2507,0.14444607179139357,0
2508,0.011752153836026248,0
2509,0.019924147248333374,0
2510,0.02945207762789281,0
2511,0.04404661182390535,0
2512,0.040435311140113034,0
2513,0.06301500270311546,0
2514,0.05265938724770934,0
2515,-0.03076667056918288,0
2516,0.022926345324805295,0
2517,0.023765723384072526,0
2518,0.03770503307796573,0
2519,-0.1146491226174767,0
2520,0.2930854686313063,0
2521,3.91348536559732,0
2522,6.662655528778552,0
2523,-0.9682638745429915,0
2524,-1.5335653376611023,0
2525,1.374213944441619,0
2526,-0.7981420477564513,0
2527,0.18218557512089656,0
2528,0.012743315334206542,0
2529,0.012261859419381418,0
2530,0.031498224884159313,0
2531,0.06235541876082144,0
2532,0.13606416322807643,0
2533,0.04148608705561371,0
2534,0.019957250728072994,0
2535,0.09820354820394528,0
2536,0.08207951172955266,0
2537,0.2256504298989908,0
2538,-0.012350199875267934,0
2539,0.08700290323754595,0
2540,0.4188255526562977,0
2541,4.0833707016802165,0
2542,6.799775006273834,0
2543,-0.8783171381420897,0
2544,-1.4050914555085132,0
2545,1.5413976434235859,0
2546,-0.6965132289190383,0
2547,0.2882188185976975,0
2548,0.07288200483698784,0
2549,0.030057670516634515,0
2550,0.12610691701747068,0
2551,0.0251030380051539,0
2552,-0.043964143083786364,0
2553,0.07136786808973505,0
2554,-0.007170674620028735,0
2555,0.07864156150007783,0
2556,-0.06056533141235989,0
2557,0.11242875072925801,0
2558,0.02690404883841463,0
2559,-0.01823763247933583,0
2560,0.3889628203813975,0
2561,4.036587758069449,0
2562,6.684015606531656,0
2563,-0.987667062495406,0
2564,-1.4686846009516106,0
2565,1.505187725362334,0
2566,-0.6975807800672401,0
2567,0.18674676131596366,0
2568,0.06126040642120318,0
2569,-0.03234014073075825,0
2570,0.1196358743163162,0
2571,0.08774219974302105,0
2572,-0.004970229702107691,0
2573,0.062489186921819505,0
2574,0.015484417364490091,0
2575,-0.014703844869865909,0
2576,0.029400661067974447,0
2577,0.14000689011699485,0
2578,0.10994981759991732,0
2579,0.1557233264775746,0
2580,0.47091556653952005,0
2581,4.0129346500327925,0
2582,6.755106554989076,0
2583,-0.8337673645757603,0
2584,-1.5112124213184186,0
2585,1.4309116212731596,0
2586,-0.7093931298898435,0
2587,0.3136353215311753,0
2588,0.004733513703602192,0
2589,-0.047285397277623584,0
2590,0.00656714527245067,0
2591,0.06742439591674948,0
2592,0.04121699988885194,0
2593,-0.0008740407743540422,0
2594,0.0702676877802707,0
2595,-0.13199252127482197,0
2596,0.05722336166295926,0
2597,-0.02400608431593783,0
2598,0.04613476911873625,0
2599,-0.03620666688817896,0
2600,0.3462624303995849,0
2601,3.9905696103527166,0
2602,6.633122634744981,0
2603,-0.9691463840764775,0
2604,-1.516688416817489,0
2605,1.4525149728129338,0
2606,-0.7606870047083102,0
2607,0.11945619425362411,0
2608,-0.02067382140080956,0
2609,-0.16732128643248267,0
2610,0.026153485745971414,0
2611,0.00787009082975584,0
2612,-0.022596424826487937,0
2613,0.031999828404209466,0
2614,-0.07520084713278297,0
2615,0.0003538925558444622,0
2616,-0.014735341013095144,0
2617,0.06237045642850715,0
2618,0.07530683033095753,0
2619,0.10010624276661324,0
2620,0.4503637003557994,0
2621,4.029903882047823,0
2622,6.711594715755803,0
2623,-1.0380501395728374,0
2624,-1.489914702058885,0
2625,1.4796363854372945,0
2626,-0.7306177540299167,0
2627,0.18558412175891814,0
2628,0.04339454789413567,0
2629,-0.019644940668474595,0
2630,-0.020712623214620994,0
2631,-0.027706655540596724,0
2632,-0.052298491851124757,0
2633,0.03459171479118158,0
2634,-0.018852493354092545,0
2635,0.03230812095662565,0
2636,0.0294307928650408,0
2637,-0.00681960147054675,0
2638,-0.06345697206299496,0
2639,-0.010866659685755193,0
2640,0.3393120265719528,0
2641,3.9729573055980643,0
2642,6.734903706529036,0
2643,-0.9969580008647212,0
2644,-1.6072524015732448,0
2645,1.4239714376012222,0
2646,-0.6622247764559492,0
2647,0.24741832672945321,0
2648,0.06635656445058363,0
2649,-0.04648506211826089,0
2650,0.002352846743172677,0
2651,0.017126888798587297,0
2652,0.06441351281250679,0
2653,-0.0521912738770319,0
2654,0.05486954883834547,0
2655,-0.0691716578332739,0
2656,0.0025112746761176974,0
2657,-0.05178345228980262,0
2658,0.023097186176375954,0
2659,0.0028178704175899974,0
2660,0.2768467156194354,0
2661,3.9529848357460513,0
2662,6.600642639046252,0
2663,-1.0448713015808466,0
2664,-1.5755539271595025,0
2665,1.4100974684508676,0
2666,-0.772473668386364,0
2667,0.16136343336504497,0
2668,0.07098031140351765,0
2669,-0.0745856638299645,0
2670,-0.01174776779441385,0
2671,-0.10898956344770022,0
2672,-0.13956126791532036,0
2673,-0.06663747933264327,0
2674,-0.013656110379661881,0
2675,-0.015133286264298457,0
2676,-0.021178753158494133,0
2677,-0.11065517461651517,0
2678,-0.09912991539122437,0
2679,-0.08095405510402763,0
2680,0.2648167665942607,0
2681,3.8620033312234794,0
2682,6.501413336867247,0
2683,-1.0298296875310362,0
2684,-1.5905882849843866,0
2685,1.341126574228618,0
2686,-0.8459734427268703,0
2687,0.16491345598897178,0
2688,-0.06082593059588938,0
2689,-0.1696842472123111,0
2690,-0.07037719558063356,0
2691,-0.11989017715376786,0
2692,-0.12867019119143003,0
2693,-0.07277888771303297,0
2694,0.001957038474123915,0
2695,-0.05369481763130188,0
2696,-0.12783314251109607,0
2697,-0.10810166020286033,0
2698,-0.13501148694508525,0
2699,0.010878859629333229,0
2700,0.2870881115725638,0
2701,4.022447243500719,0
2702,6.7185767808598085,0
2703,-1.0805675371625396,0
2704,-1.5556175504608856,0
2705,1.3988159687842536,0
2706,-0.7841454287371372,0
2707,0.12248573720450517,0
2708,0.1119607536821845,0
2709,0.057088421761054955,0
2710,-0.021815263462760706,0
2711,0.01197405612467391,0
2712,-0.002461645142913152,0
2713,0.01911991428494332,0
2714,0.1211622058912472,0
2715,-0.06250708695114254,0
2716,0.08188826975530952,0
2717,-0.035800382874107875,0
2718,0.025448120641663543,0
2719,-0.020449900881270452,0
2720,0.3289846120078456,0
2721,4.006806700089886,0
2722,6.663281388697549,0
2723,-1.0912303503666998,0
2724,-1.5397384041129534,0
2725,1.3741372644333332,0
2726,-0.7942156796310319,0
2727,0.22429834238610033,0
2728,-0.03301414684014593,0
2729,-0.05973615272770164,0
2730,-0.13507510071094583,0
2731,-0.015309911285979007,0
2732,0.043805324774425995,0
2733,0.0620396731610008,0
2734,0.007448274923236313,0
2735,-0.05702474986808868,0
2736,0.07133981647105418,0
2737,0.04671985845519604,0
2738,0.05973968329908112,0
2739,0.08346541246136366,0
2740,0.33639117156367104,0
2741,4.04786574011543,0
2742,6.703211385361874,0
2743,-0.9751130378419322,0
2744,-1.4472862534724331,0
2745,1.5585439016754163,0
2746,-0.7725144698204505,0
2747,0.22133545770345628,0
2748,-0.028439155892485093,0
2749,-0.01891249527445947,0
2750,-0.00032685299952933417,0
2751,0.017373442838705695,0
2752,-0.07531079068533672,0
2753,-0.00753671424833792,0
2754,-0.050940652067720395,0
2755,0.017283531821357,0
2756,-0.06619053814409781,0
2757,-0.09777072159988032,0
2758,-0.043106089252273834,0
2759,-0.09087206654905366,0
2760,0.2648606320271048,0
2761,3.9126315331367234,0
2762,6.6107986521233455,0
2763,-1.0559520737128052,0
2764,-1.4289860336249702,0
2765,1.435712907048548,0
2766,-0.8026570184806927,0
2767,0.25047105318189117,0
2768,-0.04564452126204096,0
2769,-0.04411541087477099,0
2770,0.006439554156108189,0
2771,0.004538469928803267,0
2772,-0.045245811221037525,0
2773,-0.03885907430294683,0
2774,-0.05863739383739522,0
2775,-0.020597648221858503,0
2776,-0.02866301294701979,0
2777,-0.0023963702600446543,0
2778,-0.029449752267144587,0
2779,0.013489930562671781,0
2780,0.33327386894042976,0
2781,3.9873943589964376,0
2782,6.613650265330722,0
2783,-1.011683251495984,0
2784,-1.6191542395184908,0
2785,1.3742483645677561,0
2786,-0.7933792220245529,0
2787,0.23699516410352353,0
2788,-0.016376519322816686,0
2789,-0.03077029223869489,0
2790,0.07627922319174035,0
2791,0.060892190392421816,0
2792,0.08395399903176974,0
2793,0.026757243800696388,0
2794,0.09351749008971164,0
2795,0.0929045349414211,0
2796,0.0463142218793507,0
2797,0.029484415071354617,0
2798,-0.0026800075823142887,0
2799,0.04091365227606551,0
2800,0.4639107881341744,0
2801,4.009320209723458,0
2802,6.670244873598963,0
2803,-1.041861923715335,0
2804,-1.5283994195441255,0
2805,1.3703810205929023,0
2806,-0.7921722185329293,0
2807,0.14604557919175504,0
2808,0.009070528667749555,0
2809,-0.05819314325994243,0
2810,-0.015600485481406785,0
2811,0.057606188995758534,0
2812,0.0021719411266874506,0
2813,-0.09387732268284119,0
2814,0.029388608242513783,0
2815,0.022138772102044214,0
2816,0.024899393240802547,0
2817,-0.04699753556085681,0
2818,-0.029665738603405246,0
2819,0.019550571882452402,0
2820,0.33182014447507313,0
2821,4.044869820054092,0
2822,6.60821568849121,0
2823,-1.0104562260209051,0
2824,-1.4551635519125592,0
2825,1.5108700330248022,0
2826,-0.7639189177900784,0
2827,0.23167573914867678,0
2828,0.005929213221144753,0
2829,0.06251568666423092,0
2830,0.059939053771644504,0
2831,0.0005557937627722227,0
2832,-0.0693671484576921,0
2833,-0.08671576260048303,0
2834,-0.0730223591016098,0
2835,0.06384258250776054,0
2836,0.022492321858510297,0
2837,0.048697640185924956,0
2838,-0.046632393374051284,0
2839,0.01511484572521421,0
2840,0.3459767712970664,0
2841,3.9030162084213265,0
2842,6.564641307200119,0
2843,-1.0674333698321927,0
2844,-1.5175753062433814,0
2845,1.4521165151191948,0
2846,-0.821489516460211,0
2847,0.1801317238508463,0
2848,-0.027883463646813822,0
2849,0.05293287412053821,0
2850,0.0021284159254667326,0
2851,-0.01206333814857947,0
2852,0.030247333135276576,0
2853,0.025426893537834554,0
2854,0.008440098941638448,0
2855,0.001685854533759354,0
2856,0.09068022471723186,0
2857,-0.0503943560347679,0
2858,0.0567049119409912,0
2859,0.03148641052652407,0
2860,0.4399659891571056,0
2861,4.027658985188025,0
2862,6.620452878118173,0
2863,-1.071242138228194,0
2864,-1.3579326483694303,0
2865,1.5121763049125416,0
2866,-0.8086589938697514,0
2867,0.23682874059379921,0
2868,0.029658331464898654,0
2869,-0.05205900482918152,0
2870,0.0005069541241589232,0
2871,-0.03831281008429033,0
2872,0.03577589312053096,0
2873,-0.03570166574812398,0
2874,0.023672247361690955,0
2875,0.10352301734472504,0
2876,0.019362578180403576,0
2877,0.028828424772039677,0
2878,-0.012026059933180025,0
2879,0.03486587334441775,0
2880,0.39134716014508775,0
2881,4.000004392681487,0
2882,6.6427850161787205,0
2883,-0.8830714073959938,0
2884,-1.499838436389139,0
2885,1.4490674117531461,0
2886,-0.8134851381051551,0
2887,0.14801184297976216,0
2888,-0.00900855563806222,0
2889,-0.001621580240977756,0
2890,-0.05427784655632734,0
2891,-0.07450105012098086,0
2892,-0.05293993347217161,0
2893,-0.041076597374318874,0
2894,-0.042109098836975105,0
2895,-0.05226998224839256,0
2896,-0.0622424433955997,0
2897,-0.04582416500637834,0
2898,-0.017997263563929798,0
2899,-0.020242376542477573,0
2900,0.3423251547352004,0
2901,3.8941767284405877,0
2902,6.595458298530096,0
2903,-1.030857873304009,0
2904,-1.5555487124674732,0
2905,1.488326709504501,0
2906,-0.7968047840263135,0
2907,0.18479079919873798,0
2908,-0.06053590992067664,0
2909,-0.09232314322578658,0
2910,0.101731935313811,0
2911,-0.09697783138351965,0
2912,0.016466990972962732,0
2913,-0.012357278570405139,0
2914,-0.0518084281501125,0
2915,-0.06399632100602351,0
2916,-0.035345969624924055,0
2917,-0.007540534741100904,0
2918,-0.030368439393601482,0
2919,-0.09135308714106613,0
2920,0.3718040786770851,0
2921,3.882817731293854,0
2922,6.580915903158622,0
2923,-1.1330658971097023,0
2924,-1.5216913907690588,0
2925,1.378716975119592,0
2926,-0.7628648962606078,0
2927,0.2654252171345077,0
2928,-0.008151480322819475,0
2929,-0.0744633766621113,0
2930,-0.03071639769753508,0
2931,0.008790548475646108,0
2932,0.03672902049759789,0
2933,-0.049441077634702874,0
2934,0.028687261876148035,0
2935,0.020083947577886042,0
2936,-0.0680846365286597,0
2937,-0.03688329551508296,0
2938,-0.10553453850345451,0
2939,-0.026440775452998184,0
2940,0.2564027723128687,0
2941,4.0254267745583725,0
2942,6.56679253022611,0
2943,-1.0640488598548559,0
2944,-1.5025510908010062,0
2945,1.4005910589276311,0
2946,-0.7293120702571101,0
2947,0.2178999153656302,0
2948,-0.08309000327920321,0
2949,-0.1248684534751972,0
2950,-0.07735274674870551,0
2951,-0.05744652391558641,0
2952,0.04866698180176874,0
2953,-0.10305979396570562,0
2954,-0.06824346927349317,0
2955,-0.02822904293057143,0
2956,-0.07614128365917483,0
2957,-0.01565325617831171,0
2958,0.05081908866567858,0
2959,-0.027628707748334234,0
2960,0.3632801697845512,0
2961,4.004579084734297,0
2962,6.6566607608730815,0
2963,-1.0460264437932731,0
2964,-1.5194349660454336,0
2965,1.359776658366013,0
2966,-0.8657669248145834,0
2967,0.05387308757259952,0
2968,-0.06398749598443354,0
2969,-0.1846348252240907,0
2970,-0.10132544072047844,0
2971,-0.17617454375313582,0
2972,-0.07773184370091228,0
2973,-0.11341074266167248,0
2974,-0.016107303686509367,0
2975,-0.07760240765398968,0
2976,-0.12697148585193857,0
2977,-0.04906967249586584,0
2978,-0.09400812928780061,0
2979,0.041249936562112566,0
2980,0.2799683106037118,0
2981,3.913864395498069,0
2982,6.525511331584256,0
2983,-1.165959512683907,0
2984,-1.4610791118448332,0
2985,1.4149325210565173,0
2986,-0.8454221568272798,0
2987,0.04584516075685323,0
2988,-0.04114582447768595,0
2989,-0.06678501469914437,0
2990,0.05014126245194298,0
2991,-0.0790044849843389,0
2992,-0.0796471462842415,0
2993,-0.06933969423850889,0
2994,-0.041100698264721215,0
2995,0.04269085589087816,0
2996,-0.0832371477948895,0
2997,-0.023619595972569636,0
2998,-0.01850739765460814,0
2999,-0.15725368512675042,0
3000,0.30524303102716,0
3001,3.984843197798049,0
3002,6.568251562946993,0
3003,-1.192686366287249,0
3004,-1.5232838309902266,0
3005,1.4268315470378212,0
3006,-0.7992522523928031,0
3007,0.2240709348479224,0
3008,-0.042497914235210064,0
3009,-0.14285986405842988,0
3010,-0.06589444441990894,0
3011,0.001667631282298629,0
3012,-0.033681648718930035,0
3013,-0.05984544786161689,0
3014,0.06111324583881716,0
3015,0.011850898185573234,0
3016,-0.0019078309077926077,0
3017,-0.03597541303683469,0
3018,-0.02899341378087868,0
3019,-0.09304019290632931,0
3020,0.35451637971268074,0
3021,3.944583362149657,0
3022,6.495046687098947,0
3023,-1.2054167556148865,0
3024,-1.533718537203123,0
3025,1.3720313003903633,0
3026,-0.8057357536740796,0
3027,0.1615235922578292,0
3028,-0.05721079193790472,0
3029,-0.19895975799870466,0
3030,-0.09641984336704576,0
3031,-0.029930021857383485,0
3032,-0.02571814249619793,0
3033,-0.050871834088258516,0
3034,-0.03665609833352493,0
3035,-0.11398652381348134,0
3036,-0.13141131168166667,0
3037,-0.13598188529254301,0
3038,-0.0013279192220951239,0
3039,-0.10420545583806105,0
3040,0.23892552229822658,0
3041,3.87683468433264,0
3042,6.598917935052236,0
3043,-1.0688639258001293,0
3044,-1.552818573669056,0
3045,1.325826428220967,0
3046,-0.8610611040355456,0
3047,0.22650041903698045,0
3048,-0.03643657205370514,0
3049,-0.124323041704917,0
3050,-0.07242282410256952,0
3051,-0.049788267856352236,0
3052,-0.06076470287892999,0
3053,-0.0009090591975165485,0
3054,0.03618387031769981,0
3055,0.07065667601420485,0
3056,-0.04978895131553663,0
3057,0.04490061133662639,0
3058,0.04792474578115825,0
3059,0.06463399999773162,0
3060,0.5196540018481233,0
3061,4.031462274007649,0
3062,6.723436230535778,0
3063,-0.9761441731704567,0
3064,-1.3703941852512345,0
3065,1.4943746792588197,0
3066,-0.6750310679128114,0
3067,0.26604694590859085,0
3068,-0.044661335255258235,0
3069,-0.07355555052942066,0
3070,0.06323207423593573,0
3071,-0.07520268809738326,0
3072,-0.0371850222659339,0
3073,-0.013032309599774052,0
3074,-0.06588533635488933,0
3075,-0.018887647845870548,0
3076,-0.011185569618943417,0
3077,-0.00037601456560033136,0
3078,-0.09984987837750825,0
3079,-0.06032018345197475,0
3080,0.3916363043556205,0
3081,4.008377534722209,0
3082,6.64528704617247,0
3083,-1.106132950094478,0
3084,-1.4358232108997016,0
3085,1.351322473379876,0
3086,-0.8460964356858433,0
3087,0.16679539795421605,0
3088,-0.0658970340819153,0
3089,-0.014377948513333311,0
3090,0.01623135130656276,0
3091,-0.010255702550392936,0
3092,-0.006422539563137166,0
3093,-0.04808473710954112,0
3094,-0.0690437413450868,0
3095,-0.020323378546042905,0
3096,0.040476619330026935,0
3097,0.004276076396459039,0
3098,0.10377208106715737,0
3099,0.07551962911740256,0
3100,0.30017164636299376,0
3101,4.065066692868482,0
3102,6.619330945669701,0
3103,-1.1731473424458934,0
3104,-1.4167163179794122,0
3105,1.524697373760413,0
3106,-0.7515783782667561,0
3107,0.15936562248061265,0
3108,-0.1380358452738622,0
3109,-0.07642783787011001,0
3110,0.01245992512941134,0
3111,-0.04134433767396398,0
3112,-0.04332403533168981,0
3113,-0.1552939605135717,0
3114,-0.1538814562147362,0
3115,-0.02416649882720527,0
3116,-0.06876506608791297,0
3117,-0.010964845205125882,0
3118,-0.11650368264281813,0
3119,-0.13523427417730186,0
3120,0.35114327416859026,0
3121,4.019022648706975,0
3122,6.558320106289439,0
3123,-1.1597273092393747,0
3124,-1.4510885280704444,0
3125,1.4382652973351602,0
3126,-0.847310403988581,0
3127,0.20902364221051253,0
3128,-0.042687353862276796,0
3129,-0.04198594768975533,0
3130,-0.009938800956805029,0
3131,-0.061391526455943535,0
3132,-0.07807056673358884,0
3133,0.049257737325055825,0
3134,0.04976998489684732,0
3135,-0.0035887780342332386,0
3136,-0.052608217325514996,0
3137,-0.06391433809594681,0
3138,-0.04763855664911882,0
3139,0.014999624160964911,0
3140,0.3187772964231101,0
3141,4.031288191846161,0
3142,6.515694496947878,0
3143,-1.125348244579727,0
3144,-1.4998995495316494,0
3145,1.4153515658449423,0
3146,-0.8288150851339234,0
3147,0.1211186444410399,0
3148,-0.06252742953903352,0
3149,-0.08242416608070564,0
3150,0.024947322682490242,0
3151,-0.01999525370542661,0
3152,0.024692516189096746,0
3153,-0.08253648307600903,0
3154,0.001998539435352647,0
3155,0.005309096493914915,0
3156,-0.05193337128455848,0
3157,-0.05573432745656776,0
3158,-0.04739378428910485,0
3159,-0.045117674796828794,0
3160,0.49454353247650196,0
3161,4.0202051923302555,0
3162,6.638435639401443,0
3163,-1.1460391734274795,0
3164,-1.460546070309297,0
3165,1.4034772952878252,0
3166,-0.8257456709403699,0
3167,0.1499600713898886,0
3168,-0.11354709451339866,0
3169,-0.08331528283509618,0
3170,-0.059931800497722766,0
3171,-0.03634784885019455,0
3172,-0.07088215446543975,0
3173,-0.11317953566732022,0
3174,-0.1517273669686161,0
3175,-0.15023060504734287,0
3176,-0.13443081474318186,0
3177,-0.002279265752579543,0
3178,-0.10134197251812146,0
3179,-0.03070674026159215,0
3180,0.35912789867101397,0
3181,4.028690906031843,0
3182,6.583062639582716,0
3183,-1.1030258134113056,0
3184,-1.4567038483251775,0
3185,1.4138323209781651,0
3186,-0.8616326421316511,0
3187,0.20817276439411428,0
3188,-0.07498765208521542,0
3189,-0.008597850150547232,0
3190,-0.02173551581091564,0
3191,-0.04819534418541359,0
3192,0.005415859304813305,0
3193,-0.06960115812337742,0
3194,-0.04498354826312415,0
3195,-0.034945157772632726,0
3196,-0.05188339777568321,0
3197,-0.04138994080314084,0
3198,-0.017263982638494244,0
3199,-0.04027262128215873,0
3200,0.4172963279458698,0
3201,4.0129948854452815,0
3202,6.544059299999654,0
3203,-1.1300171910124712,0
3204,-1.4875383250602754,0
3205,1.3910374182341108,0
3206,-0.8440206766808152,0
3207,0.18807847240097458,0
3208,-0.004458529646206581,0
3209,-0.022085375921245057,0
3210,0.021322554778794182,0
3211,-0.030460964215864417,0
3212,0.09868332218274403,0
3213,0.08133702899206476,0
3214,0.06635596287179721,0
3215,-0.004592430181820022,0
3216,0.050978225890251944,0
3217,0.05846048555764604,0
3218,-0.042511563037983965,0
3219,0.05640879860456782,0
3220,0.4483412002318137,0
3221,4.065276422126269,0
3222,6.674766789003418,0
3223,-1.0517461075017531,0
3224,-1.4254236408809913,0
3225,1.4739942571351954,0
3226,-0.8295078811320925,0
3227,0.2975291196994132,0
3228,-0.04768106464188706,0
3229,-0.04514007864847916,0
3230,-0.026994468154877643,0
3231,-0.07768397961705767,0
3232,-0.09033560808635986,0
3233,-0.11272567139368646,0
3234,-0.04748674872692092,0
3235,-0.05396491279411789,0
3236,0.005203470680013117,0
3237,0.0009162470586765309,0
3238,0.058501190222360396,0
3239,0.0495812930936043,0
3240,0.4368923399431389,0
3241,3.9490578124961373,0
3242,6.614061478802682,0
3243,-1.205256686769015,0
3244,-1.392925617088778,0
3245,1.3425886464530932,0
3246,-0.7364704869847213,0
3247,0.2522467601093111,0
3248,0.052129277306907834,0
3249,-0.028577664143987686,0
3250,-0.046079957860882655,0
3251,0.09810755573116915,0
3252,-0.050403973978919235,0
3253,-0.09049435548586973,0
3254,-0.07951643281122117,0
3255,0.023479680276346535,0
3256,-0.10079618928779852,0
3257,-0.05865496620096719,0
3258,-0.060758857478673205,0
3259,-0.011345889038799808,0
3260,0.3819247898732089,0
3261,4.039566392432963,0
3262,6.608388815958641,0
3263,-1.1240732341119408,0
3264,-1.5086953363934592,0
3265,1.367461800378958,0
3266,-0.733333874763357,0
3267,0.28178578253701947,0
3268,-0.10606949285937214,0
3269,-0.08326462163746565,0
3270,0.012699544913998861,0
3271,0.016536241300085845,0
3272,0.00035462231172046256,0
3273,0.05197138258104715,0
3274,-0.01985650385899105,0
3275,0.01911816957801151,0
3276,-0.015528735218834456,0
3277,0.00956758862182648,0
3278,0.02379086184304673,0
3279,-0.03687449357814306,0
3280,0.4335440427653186,0
3281,3.958018879229296,0
3282,6.517417556653547,0
3283,-1.180669176882066,0
3284,-1.5274057050840302,0
3285,1.406042695837699,0
3286,-0.8024724377016563,0
3287,0.1824044295228581,0
3288,-0.16505881988085175,0
3289,-0.14054978024425946,0
3290,-0.17865556818963826,0
3291,-0.01847509197120442,0
3292,-0.08337817513323212,0
3293,0.011705286842864385,0
3294,-0.07537003618864514,0
3295,-0.1020999051259758,0
3296,0.08807786437432988,0
3297,0.055587881695464025,0
3298,-0.013832176656976393,0
3299,-0.013986935230631768,0
3300,0.39005608977910877,0
3301,4.079130126833582,0
3302,6.536977113423325,0
3303,-1.160002674060897,0
3304,-1.4487723056578348,0
3305,1.4892416928409837,0
3306,-0.7799251169483777,0
3307,0.20162605255761404,0
3308,-0.01748176848188662,0
3309,-0.009111343102106872,0
3310,-0.1261019866556202,0
3311,0.08513739647013599,0
3312,0.05618887693586075,0
3313,0.11093457113728913,0
3314,-0.05385524751282164,0
3315,-0.061118226760728374,0
3316,-0.04995638789492157,0
3317,-0.027872495440422064,0
3318,0.0769515682074366,0
3319,-0.02243141510677569,0
3320,0.388832695897575,0
3321,4.062871459993634,0
3322,6.654678257572827,0
3323,-1.125878929198236,0
3324,-1.3286294437231148,0
3325,1.3773627666648567,0
3326,-0.716336311767787,0
3327,0.10511543898761613,0
3328,0.01743601598181385,0
3329,-0.04355106452989821,0
3330,0.019109174863142453,0
3331,-0.03985009763873733,0
3332,-0.07149236546590487,0
3333,0.007356122413888756,0
3334,-0.003747242984569795,0
3335,-0.001817415759790015,0
3336,-0.015183755123869307,0
3337,0.036420650514147494,0
3338,-0.007773917550746107,0
3339,0.041723175468340916,0
3340,0.4816143372456394,0
3341,4.058142911646232,0
3342,6.539921588744751,0
3343,-1.1585856723628205,0
3344,-1.4268390705576974,0
3345,1.3694240798796704,0
3346,-0.8429331347976592,0
3347,0.08158047324587656,0
3348,-0.07510379790782074,0
3349,0.03357867509856992,0
3350,-0.036749661829034636,0
3351,0.05927448722052746,0
3352,-0.06360548974053364,0
3353,-0.05070326297780442,0
3354,0.0744931834331109,0
3355,0.039563249865369035,0
3356,0.015425191055766006,0
3357,-0.05355114824139194,0
3358,-0.0534723423893637,0
3359,0.08152459022294604,0
3360,0.4048447167225189,0
3361,4.046562753330236,0
3362,6.659032834419848,0
3363,-1.1156817121557572,0
3364,-1.4188945461060967,0
3365,1.392209647372259,0
3366,-0.7220065774254976,0
3367,0.20265674535582445,0
3368,0.05712368550997461,0
3369,-0.03585875172951937,0
3370,0.054153881670120474,0
3371,0.016547094405332502,0
3372,-0.031313867436633336,0
3373,0.05006831221062873,0
3374,0.011785747194737899,0
3375,0.023470321056880083,0
3376,0.038041760600238145,0
3377,-0.028841718212509932,0
3378,0.09316053908511475,0
3379,-0.0016605395390432724,0
3380,0.36990962116749226,0
3381,4.07634092220988,0
3382,6.591390941173737,0
3383,-1.1180857550375811,0
3384,-1.3726182206586974,0
3385,1.3576160084390678,0
3386,-0.686330803068121,0
3387,0.2724607882731685,0
3388,0.06610707392124983,0
3389,-0.043567902124109784,0
3390,0.12337611239816274,0
3391,-0.016888074818170246,0
3392,-0.03426125513373528,0
3393,0.05072497869283958,0
3394,-0.009262809416816838,0
3395,-0.014439011752367129,0
3396,-0.01847436887866861,0
3397,-0.004410306913973268,0
3398,0.092309449031506,0
3399,0.09099583407681548,0
3400,0.46369888752893684,0
3401,4.082639949509939,0
3402,6.571707002038268,0
3403,-1.1079183589742359,0
3404,-1.3399882586502505,0
3405,1.3871300487531275,0
3406,-0.7356800501098836,0
3407,0.23321459385788937,0
3408,-0.09270126168863663,0
3409,0.00650487984576608,0
3410,0.04946271724632253,0
3411,-0.040868769355600784,0
3412,0.10306705206507707,0
3413,0.018006749275003522,0
3414,-0.014920701194068409,0
3415,-0.043620348907923295,0
3416,0.038195531570902864,0
3417,-0.05151090634648039,0
3418,0.016771015310741412,0
3419,0.00043057707787469077,0
3420,0.49817027655453744,0
3421,4.134202364725087,0
3422,6.620374937261256,0
3423,-1.056154827848896,0
3424,-1.2983206697444982,0
3425,1.454185865215094,0
3426,-0.7684199282247104,0
3427,0.18905032219287465,0
3428,0.009208007612520702,0
3429,0.03420935269342801,0
3430,0.04154351216931778,0
3431,0.015057816290148344,0
3432,-0.048361240905263725,0
3433,-0.04490685900080309,0
3434,0.03421990575534949,0
3435,0.02114585504563166,0
3436,-0.027439518959913207,0
3437,0.04496019820223421,0
3438,0.0341821945257902,0
3439,-0.02726796262903293,0
3440,0.36302300941029414,0
3441,4.1417922292142375,0
3442,6.649090029172844,0
3443,-1.1371468914757623,0
3444,-1.1963252311045804,0
3445,1.4086495245363302,0
3446,-0.7694067270063479,0
3447,0.2846776596098238,0
3448,0.15714719939528513,0
3449,0.057673980484843,0
3450,0.10864555478067986,0
3451,0.015598357842683389,0
3452,-0.03390585524729557,0
3453,-0.004496600579915147,0
3454,0.016929537054039205,0
3455,0.005502388169341746,0
3456,0.07806255123428459,0
3457,0.08237802892067261,0
3458,0.07528305057139005,0
3459,0.028782453439984312,0
3460,0.3954204517901518,0
3461,4.225512445902741,0
3462,6.569661415157205,0
3463,-1.1269849120504842,0
3464,-1.337926120847945,0
3465,1.4050986727090422,0
3466,-0.6641756519223327,0
3467,0.33127405938851,0
3468,0.08200668144659534,0
3469,-0.009938465875141734,0
3470,0.10226445052694823,0
3471,-0.03590156336248791,0
3472,0.0556533757407147,0
3473,-0.07550398186868068,0
3474,0.012733047042884096,0
3475,-0.04442130242182078,0
3476,0.04884895226115102,0
3477,0.022251969276052455,0
3478,0.02003548036688557,0
3479,-0.05408666765370586,0
3480,0.42728383119948765,0
3481,4.126673481936031,0
3482,6.516308903590656,0
3483,-1.1511023105345508,0
3484,-1.3278432664382955,0
3485,1.3848754277962443,0
3486,-0.6629308139725315,0
3487,0.23753881069981103,0
3488,-0.0507465631564407,0
3489,0.06844248393274832,0
3490,0.008814722249240764,0
3491,-0.04255385454393044,0
3492,0.008380109901248189,0
3493,-0.0333903602355902,0
3494,-0.04897108150518163,0
3495,-0.10409946128417041,0
3496,-0.03820448407607647,0
3497,0.058781167277337384,0
3498,0.08711919368949281,0
3499,-0.06601543777104915,0
3500,0.4457937721491026,0
3501,4.190872418686228,0
3502,6.510348731573709,0
3503,-1.0930581903251535,0
3504,-1.287791399663454,0
3505,1.487099558182777,0
3506,-0.8414682138023569,0
3507,0.29237830846450524,0
3508,-0.018116790775456016,0
3509,0.040384726449395086,0
3510,0.08765546194965759,0
3511,0.070562718786499,0
3512,0.028828446114102922,0
3513,-0.004102056451513729,0
3514,0.004854394501796332,0
3515,-0.05308869003528924,0
3516,0.07893917476420895,0
3517,0.10551208183058676,0
3518,0.1622272041900666,0
3519,0.09467581888548379,0
3520,0.4106100315229295,0
3521,4.126659904719138,0
3522,6.56524716061805,0
3523,-1.2043971684223702,0
3524,-1.3181591852473786,0
3525,1.389669319726499,0
3526,-0.7404900131148763,0
3527,0.21849100297388319,0
3528,-0.02055108458552078,0
3529,0.07009973132078413,0
3530,-0.007043927175226988,0
3531,-0.04435522932031403,0
3532,0.06401637343347168,0
3533,-0.017104679613826078,0
3534,-0.021111655302861257,0
3535,0.07245124495996316,0
3536,0.030450172997522,0
3537,-0.10886464468610271,0
3538,0.06568603835205808,0
3539,0.06840818246731534,0
3540,0.5286649151830016,0
3541,4.156391482501725,0
3542,6.659956878946707,0
3543,-1.121319811608609,0
3544,-1.3636319093470854,0
3545,1.4492949259047814,0
3546,-0.7827010661425174,0
3547,0.23059950389348444,0
3548,-0.06398431980870412,0
3549,-0.1003239566583711,0
3550,-0.01819330355083406,0
3551,-0.04444871813397135,0
3552,0.027230482914560324,0
3553,-0.01493206309417127,0
3554,-0.0366476173502066,0
3555,-0.08642607170908795,0
3556,-0.02896329976357059,0
3557,-0.03769760033302939,0
3558,-0.13335232760002913,0
3559,0.01632878962094213,0
3560,0.36866360182726415,0
3561,4.050439047636338,0
3562,6.593213330346902,0
3563,-1.1558018250827968,0
3564,-1.3526262131492441,0
3565,1.4355322591540722,0
3566,-0.8881889053958709,0
3567,0.16990571376438646,0
3568,-0.03380044892947428,0
3569,-0.04422607693722073,0
3570,-0.05698161753525572,0
3571,0.05854519358360123,0
3572,0.03398605157304292,0
3573,0.01693798123308145,0
3574,-0.041875882695105185,0
3575,0.08184003131072982,0
3576,0.07028944371533394,0
3577,-0.04377194375399498,0
3578,0.003820303007531063,0
3579,0.04100834015135017,0
3580,0.49213840012396803,0
3581,4.151547794115296,0
3582,6.547984762864685,0
3583,-1.266174572186909,0
3584,-1.292761477386411,0
3585,1.2646121501908916,0
3586,-0.8492409140155632,0
3587,0.18369027883165628,0
3588,-0.07613884635709725,0
3589,-0.00011992434830999932,0
3590,-0.06452113167011388,0
3591,-0.10758042478520662,0
3592,-0.13626292466775372,0
3593,-0.058539641485082526,0
3594,-0.097610466005702,0
3595,-0.028054710240779827,0
3596,-0.08019735887226287,0
3597,-0.08793559583992025,0
3598,-0.060704626021855,0
3599,-0.05718249317080441,0
3600,0.31096928494906545,0
3601,4.2003355609810145,0
3602,6.503406228183284,0
3603,-1.2489371269619711,0
3604,-1.414677942067458,0
3605,1.3458183342963501,0
3606,-0.7936428370122933,0
3607,0.2402682718402163,0
3608,-0.0015428658959441288,0
3609,-0.017615723110396952,0
3610,-0.03148565333211628,0
3611,-0.04421688900629291,0
3612,0.08658518946325013,0
3613,0.026834146781919234,0
3614,-0.07032391351235917,0
3615,-0.011003767664845817,0
3616,0.013598064447135665,0
3617,0.10228407497773827,0
3618,-0.027082457658186364,0
3619,-0.002088953677908501,0
3620,0.41932713490868007,0
3621,4.206183531203891,0
3622,6.653946330964767,0
3623,-1.2296574998096286,0
3624,-1.2369555278574793,0
3625,1.3874390526057625,0
3626,-0.743114353207315,0
3627,0.2835041677864776,0
3628,-0.04912472732563444,0
3629,-0.043031139411657926,0
3630,-0.12986576108167824,0
3631,-0.09205181115565804,0
3632,0.0007754076537384719,0
3633,-0.17035873348502384,0
3634,-0.0885317793840987,0
3635,-0.11427047251436728,0
3636,-0.11352871079274213,0
3637,0.009011664527431087,0
3638,-0.021374778188409285,0
3639,0.021632401292452502,0
3640,0.3972192288196603,0
3641,4.074045920713545,0
3642,6.588719074232985,0
3643,-1.3178680012076878,0
3644,-1.386018052980724,0
3645,1.3569023855003108,0
3646,-0.786597048002673,0
3647,0.27279241060173426,0
3648,0.015136614379183434,0
3649,0.05911499441298898,0
3650,0.08104161678929278,0
3651,-0.07840876101605969,0
3652,-0.02930913312234388,0
3653,-0.0050227449484339624,0
3654,-0.05057493883157872,0
3655,0.03517191529947843,0
3656,-0.031406097941542095,0
3657,0.0004474583923214743,0
3658,-0.04759585867560169,0
3659,0.11141257147120724,0
3660,0.4246718928637899,0
3661,4.09765229380343,0
3662,6.5116367296678455,0
3663,-1.2641959789272166,0
3664,-1.3385367119566975,0
3665,1.4467393605182608,0
3666,-0.749069205523785,0
3667,0.2618677515445287,0
3668,0.0474440437966506,0
3669,-0.046733111359142085,0
3670,-0.020446848694107345,0
3671,-0.05212239672580801,0
3672,-0.03105591118666347,0
3673,0.016162553721303957,0
3674,0.032208626086979115,0
3675,-0.026127385604948428,0
3676,-0.08103596807855198,0
3677,0.13951605988829624,0
3678,0.021050859052890284,0
3679,-0.03729809593680926,0
3680,0.37023128248803006,0
3681,4.085787623188277,0
3682,6.565680644410001,0
3683,-1.2255581655506897,0
3684,-1.485822840903444,0
3685,1.4195260914731167,0
3686,-0.7350285071788298,0
3687,0.2882759155737898,0
3688,-0.005618604401761439,0
3689,-0.04276713007991001,0
3690,-0.0007589010816817076,0
3691,-0.10955872143947233,0
3692,0.015034223429134156,0
3693,-0.010142146517674028,0
3694,-0.03008203734234117,0
3695,-0.10206459021155814,0
3696,-0.009731395956455982,0
3697,0.06452229454090545,0
3698,0.029544973893997465,0
3699,-0.03648430591014007,0
3700,0.47849910658263434,0
3701,4.087290007201318,0
3702,6.5369459263746545,0
3703,-1.1468879860353662,0
3704,-1.3465249117425333,0
3705,1.4138740760617512,0
3706,-0.749804508874805,0
3707,0.21754701956380706,0
3708,0.01867732519328242,0
3709,-0.03788129076258816,0
3710,-0.024287133140758907,0
3711,0.025455184098065294,0
3712,-0.07370742355601083,0
3713,-0.03356212190985038,0
3714,0.06719434202135009,0
3715,0.07199840002134601,0
3716,0.07760297891828923,0
3717,0.013298316957906982,0
3718,0.026067697243145206,0
3719,0.02580838078340974,0
3720,0.4771134920586782,0
3721,4.270402252741663,0
3722,6.674681965004589,0
3723,-1.1546026033495647,0
3724,-1.335831423978176,0
3725,1.4413574255910258,0
3726,-0.8054720212748427,0
3727,0.2610232404654561,0
3728,-0.06316850763257309,0
3729,0.08319354964841841,0
3730,0.07459596831773915,0
3731,0.05509632236090885,0
3732,0.047478158408823475,0
3733,-0.00975234314513318,0
3734,0.07501296746775882,0
3735,-0.04318654403738017,0
3736,0.03943998778327387,0
3737,-0.02564303912310952,0
3738,-0.012057095054513314,0
3739,0.05907520805621778,0
3740,0.48159301719827224,0
3741,4.158721795190448,0
3742,6.555996702673108,0
3743,-1.176574153965815,0
3744,-1.2974549942757536,0
3745,1.3933737242105733,0
3746,-0.7133128995255875,0
3747,0.28623450267678213,0
3748,-0.01926154615373735,0
3749,0.004159752578654554,0
3750,0.04297934295778677,0
3751,-0.029200148556311076,0
3752,0.13107032601916743,0
3753,-0.06885956823780975,0
3754,0.10692215436084174,0
3755,0.027214473872834856,0
3756,0.024094226216840098,0
3757,-0.02303390345747057,0
3758,0.07791455399636427,0
3759,0.06113173971901094,0
3760,0.44777947399293017,0
3761,4.23576982537511,0
3762,6.597833915065092,0
3763,-1.1659475577224574,0
3764,-1.325156188214627,0
3765,1.4776198320645382,0
3766,-0.7877190590403459,0
3767,0.20794388550469492,0
3768,-0.02100943353956034,0
3769,0.03161715447160192,0
3770,0.1167654514155368,0
3771,-0.011548889785290135,0
3772,0.06717287878881842,0
3773,0.11537822478971649,0
3774,0.04761495858935356,0
3775,0.08416639908501061,0
3776,0.03190368999944408,0
3777,0.0973121834241836,0
3778,-0.030897684540015947,0
3779,0.005951518503103884,0
3780,0.5061330316924668,0
3781,4.205714890444485,0
3782,6.545056782409061,0
3783,-1.2178479763357606,0
3784,-1.2929473310674509,0
3785,1.3654884587205598,0
3786,-0.7626802482444908,0
3787,0.2607361547034542,0
3788,0.12446221317006441,0
3789,-0.02622380722775385,0
3790,0.013834713334322273,0
3791,0.045091229383223005,0
3792,0.05310397635016211,0
3793,0.049111556264902934,0
3794,0.020924000056732943,0
3795,0.005153887038025894,0
3796,0.031591480207788,0
3797,-0.05087569973481963,0
3798,0.017372400354694253,0
3799,-0.013411242060062743,0
3800,0.404081785788887,0
3801,4.209732009562867,0
3802,6.602355738218011,0
3803,-1.3152883306778136,0
3804,-1.2849567927680703,0
3805,1.4824700764818965,0
3806,-0.779362332780685,0
3807,0.15905267203581824,0
3808,-0.07516515365281992,0
3809,-0.009324423372147658,0
3810,0.10880158660508187,0
3811,-0.0038017965399974943,0
3812,0.0191516098858934,0
3813,0.09422304328530301,0
3814,-0.051824188202153565,0
3815,-0.007778711328449204,0
3816,-0.05393969578573745,0
3817,0.05171637691473471,0
3818,0.09052835372059112,0
3819,-0.10940090092764447,0
3820,0.4837214253282579,0
3821,4.168163005410067,0
3822,6.47907437364417,0
3823,-1.256880999604622,0
3824,-1.2759947594444188,0
3825,1.4590131990462767,0
3826,-0.7485298376228066,0
3827,0.24303005823549628,0
3828,0.050841377949829236,0
3829,-0.02506952260513896,0
3830,0.07018898749028407,0
3831,0.06099769942184305,0
3832,0.044309153619271735,0
3833,0.010123824444725633,0
3834,0.05378245782427984,0
3835,-0.09446240149470497,0
3836,-0.06082813538687902,0
3837,0.02537937758562373,0
3838,-0.06757398058568471,0
3839,-0.037109820548374896,0
3840,0.4306901408237803,0
3841,4.124843873602678,0
3842,6.50204084617074,0
3843,-1.350908047415943,0
3844,-1.2819988906571356,0
3845,1.3458088128052212,0
3846,-0.7493975649346161,0
3847,0.2514753657443204,0
3848,-0.0084987071792045,0
3849,-0.04772969827655372,0
3850,-0.04868121063395475,0
3851,-0.06970283746540912,0
3852,0.03570454433544154,0
3853,0.08017515314645933,0
3854,0.03101434810967106,0
3855,0.10057265523901829,0
3856,-0.036722710551847254,0
3857,-0.04049175759235266,0
3858,0.0993950574037638,0
3859,0.03704454725634897,0
3860,0.40520926564660265,0
3861,4.219200034601783,0
3862,6.541769441577934,0
3863,-1.2759635245251626,0
3864,-1.2952107024577448,0
3865,1.4316730465289123,0
3866,-0.8112943572679919,0
3867,0.320175568649954,0
3868,-0.05657880919948878,0
3869,-0.04904071005498174,0
3870,0.08366425537737092,0
3871,0.04811739196099445,0
3872,-0.09507987521010769,0
3873,-0.007309771463229312,0
3874,0.08287892123219347,0
3875,-0.003594071752384633,0
3876,-0.004117559300457461,0
3877,-0.06671651896566685,0
3878,-0.009455360408312552,0
3879,-0.02326196844413934,0
3880,0.39064845719045127,0
3881,4.174429413982352,0
3882,6.544929066884562,0
3883,-1.4279632930550417,0
3884,-1.4103714097137408,0
3885,1.320073862945898,0
3886,-0.7465035297268771,0
3887,0.12101445807052327,0
3888,-0.05158066906015418,0
3889,-0.0780011657864532,0
3890,-0.0317819839838285,0
3891,-0.09425402482641618,0
3892,-0.06399901279498407,0
3893,-0.09412248076322434,0
3894,-0.034247863255550716,0
3895,0.032758399826260734,0
3896,0.08182970266046936,0
3897,0.06060148158114145,0
3898,-0.020311603834168076,0
3899,-0.10677975624821667,0
3900,0.45637953032841394,0
3901,4.20622848176971,0
3902,6.538894879230249,0
3903,-1.3148164253359147,0
3904,-1.3032944364234933,0
3905,1.3719520045130527,0
3906,-0.7420190959510787,0
3907,0.2899940243169493,0
3908,-0.009998094304969285,0
3909,-0.08032158369606635,0
3910,-0.0876413947488391,0
3911,-0.01379119771542408,0
3912,-0.05876466939992688,0
3913,0.01213101729039509,0
3914,-0.09052695622363405,0
3915,-0.04884466064161912,0
3916,-0.00956559079422439,0
3917,-0.057249239342907564,0
3918,-0.01449661329648384,0
3919,-0.05926361860845819,0
3920,0.38190271292467015,0
3921,4.078479844721924,0
3922,6.374872965093446,0
3923,-1.3004819868916344,0
3924,-1.4590580519041698,0
3925,1.3739669975157205,0
3926,-0.81000430059155,0
3927,0.1196802864857984,0
3928,-0.09880983885087968,0
3929,-0.06972017504515529,0
3930,0.037925837767574376,0
3931,-0.031010415805199535,0
3932,-0.12067984507937685,0
3933,0.021366485207208602,0
3934,-0.10301059542727076,0
3935,0.036503223847092786,0
3936,-0.07726342673501994,0
3937,-0.05561418548967269,0
3938,-0.10378183635660118,0
3939,-0.08854985430669451,0
3940,0.3455103703455703,0
3941,4.049563110781089,0
3942,6.412292546603411,0
3943,-1.319766981713777,0
3944,-1.322822826982581,0
3945,1.2798562297425475,0
3946,-0.7911559669864737,0
3947,0.15515030003769167,0
3948,-0.053263378686985746,0
3949,-0.027468339897739436,0
3950,0.022748669936241223,0
3951,0.05569708348914606,0
3952,0.0336489703897251,0
3953,0.015677770078558983,0
3954,0.01276706404235704,0
3955,-0.025122527141303592,0
3956,-0.05769628532880086,0
3957,-0.041593070594652934,0
3958,-0.11322232792580614,0
3959,-0.10663729167330752,0
3960,0.2951505667212061,0
3961,4.123797166046429,0
3962,6.386026059079953,0
3963,-1.4838215556701853,0
3964,-1.3876197884547712,0
3965,1.353557861436477,0
3966,-0.9456420585751679,0
3967,0.20358549825615593,0
3968,-0.12182512041377579,0
3969,-0.1447664403738692,0
3970,-0.03232560122440965,0
3971,-0.10620417266900978,0
3972,-0.016486504145983384,0
3973,0.021850503948866194,0
3974,-0.021430410279068685,0
3975,-0.09110541214205703,0
3976,-0.0038132410274352123,0
3977,-0.10573705837405867,0
3978,-0.10024051850114812,0
3979,-0.07787027830970164,0
3980,0.5265843801026371,0
3981,4.171909734090789,0
3982,6.520834884377673,0
3983,-1.3604345330726584,0
3984,-1.4382877668866016,0
3985,1.2630773848500723,0
3986,-0.8642144379835878,0
3987,0.08034562898212928,0
3988,-0.13013027490306603,0
3989,-0.11325078044826722,0
3990,-0.15863091550039668,0
3991,-0.0376316460807435,0
3992,-0.16306397019280103,0
3993,-0.1576851241046746,0
3994,-0.10187474151015792,0
3995,-0.10611225220494072,0
3996,-0.09916703007488531,0
3997,-0.14889757100721937,0
3998,-0.08650159647850968,0
3999,-0.041202790996249926,0
4000,0.44400726174780714,0
4001,4.250332396206452,0
4002,6.466529366820645,0
4003,-1.3527388385992583,0
4004,-1.2760378655656925,0
4005,1.383302357885534,0
4006,-0.769807307492587,0
4007,0.29198201235245475,0
4008,-0.07200415911682934,0
4009,-0.0431175434062727,0
4010,0.08735203864242083,0
4011,0.0031617878224533907,0
4012,0.020425665148387874,0
4013,0.0507267525728797,0
4014,-0.007283402408394037,0
4015,-0.01959885227103562,0
4016,-0.04892424130321497,0
4017,-0.04667667346764084,0
4018,0.03015996998884705,0
4019,-0.003067147635032857,0
4020,0.47232871618683864,0
4021,4.233289561524192,0
4022,6.443486622196027,0
4023,-1.2351669523074185,0
4024,-1.3104792907009706,0
4025,1.3250115090892398,0
4026,-0.7283914012538921,0
4027,0.2812392123947293,0
4028,-0.14219120247915015,0
4029,-0.03152720355994944,0
4030,-0.044850080758795555,0
4031,0.025128873482515607,0
4032,0.004712866578114442,0
4033,0.0009185290639057153,0
4034,0.04275087505459628,0
4035,-0.02154813731502215,0
4036,-0.047597167436893906,0
4037,-0.03889229887827088,0
4038,-0.003748443719916457,0
4039,-0.044165270788220974,0
4040,0.4002603134474726,0
4041,4.247636739640663,0
4042,6.578668609565772,0
4043,-1.3339542801051762,0
4044,-1.2738689397666763,0
4045,1.4172292706112026,0
4046,-0.7412239863217663,0
4047,0.21299584094862195,0
4048,-0.12043844148753127,0
4049,-0.12824180115313707,0
4050,0.06584693697072672,0
4051,0.06980124170111006,0
4052,-0.007640406684600955,0
4053,-0.049529900847982256,0
4054,-0.02762525553149323,0
4055,0.02306804421803852,0
4056,-0.007261260438076619,0
4057,0.007394117402785203,0
4058,0.09151659327114706,0
4059,0.01101782159017865,0
4060,0.40217603171159116,0
4061,4.228250341114761,0
4062,6.544660989581885,0
4063,-1.2570892224364898,0
4064,-1.25193047235261,0
4065,1.365612485817684,0
4066,-0.7257875220352493,0
4067,0.26165585831879273,0
4068,-0.0413701571178708,0
4069,-0.025503487665276995,0
4070,-0.054614113640169375,0
4071,-0.018648821619550036,0
4072,0.029204060179711035,0
4073,0.03603611588947271,0
4074,0.05591553626625255,0
4075,0.016690829440776433,0
4076,-0.0026459282745589507,0
4077,0.0796315996457683,0
4078,0.08560315559220313,0
4079,0.01141961291842819,0
4080,0.40885370627378603,0
4081,4.320595197789097,0
4082,6.485307837663735,0
4083,-1.2341661732553648,0
4084,-1.179311370916566,0
4085,1.3906526397191592,0
4086,-0.7584540646917287,0
4087,0.30403606122235655,0
4088,0.1245458726605969,0
4089,-0.017913316277977917,0
4090,0.03725731145121571,0
4091,0.04277698034880857,0
4092,0.001636403390653747,0
4093,-0.07524768935141757,0
4094,0.07006077732666524,0
4095,0.0015238913187879729,0
4096,-0.008348028506518222,0
4097,-0.004184655672922586,0
4098,-0.05963927597602714,0
4099,-0.05047645815546034,0
4100,0.445274615317423,0
4101,4.1800642676187305,0
4102,6.557897659588748,0
4103,-1.3225215103428762,0
4104,-1.2534814628094542,0
4105,1.4528568780541256,0
4106,-0.6830112551250774,0
4107,0.2603161763157253,0
4108,0.014465062377561396,0
4109,0.10648273735042209,0
4110,0.06743528350914252,0
4111,0.049492009886883036,0
4112,0.12592979875383137,0
4113,0.004498752798808528,0
4114,0.09505604508327123,0
4115,0.0651126648251338,0
4116,0.11103981222824313,0
4117,0.07564642447628267,0
4118,0.08577380336132032,0
4119,0.08567397341598358,0
4120,0.616464229372832,0
4121,4.278843888134772,0
4122,6.493195992198231,0
4123,-1.200046267783359,0
4124,-1.177588745884294,0
4125,1.3997024173671853,0
4126,-0.7663833198725447,0
4127,0.23904953476116308,0
4128,0.01968464397068713,0
4129,-0.05948891190974673,0
4130,0.09153575328739541,0
4131,-0.003913702931299069,0
4132,-0.06313064419593431,0
4133,-0.045392148374057306,0
4134,0.10539099182318146,0
4135,-0.033977996578719284,0
4136,-0.02568570756264012,0
4137,-0.12319236915098072,0
4138,0.09031643153413652,0
4139,0.024377562413969864,0
4140,0.42299477916173644,0
4141,4.3750925989662255,0
4142,6.431202569959456,0
4143,-1.42643894236419,0
4144,-1.2725800766827626,0
4145,1.4126045655970603,0
4146,-0.8295451859736903,0
4147,0.3116506406216464,0
4148,0.014455277257705311,0
4149,0.01947749872177551,0
4150,0.004625700074148741,0
4151,0.006128580802118624,0
4152,0.0023002525876198183,0
4153,0.01240266495903281,0
4154,-0.033971103510710386,0
4155,-0.008276095687310457,0
4156,-0.012538039189438317,0
4157,0.030001241276805056,0
4158,-0.1059809774678321,0
4159,-0.06478693557044907,0
4160,0.4717123000013198,0
4161,4.234591685905573,0
4162,6.54810473623554,0
4163,-1.2961078723978365,0
4164,-1.2300044687907188,0
4165,1.376250790229744,0
4166,-0.7546446373898694,0
4167,0.10220663305747749,0
4168,-0.01771226262881746,0
4169,-0.07614889494027526,0
4170,0.0724899972460881,0
4171,0.09733696165269541,0
4172,-0.040420736142773826,0
4173,-0.010299539161497487,0
4174,0.0786560872880197,0
4175,0.056176575871008085,0
4176,-0.029735748769905056,0
4177,0.11719746847096732,0
4178,-0.04706402192212156,0
4179,-0.016072228850554697,0
4180,0.524383070015398,0
4181,4.225201868560699,0
4182,6.447025664294867,0
4183,-1.3000573101645052,0
4184,-1.150293480837464,0
4185,1.3596749962170878,0
4186,-0.833739426747522,0
4187,0.24853230523633474,0
4188,-0.05569634732286036,0
4189,-0.08061413395354505,0
4190,-0.03901174025368938,0
4191,-0.05928652081791218,0
4192,-0.030146686974493332,0
4193,-0.04372902130171233,0
4194,-0.012064419082253815,0
4195,-0.09856000973176875,0
4196,-0.0732233783595547,0
4197,0.0073163084974982515,0
4198,0.019936393075103552,0
4199,-0.015284639704797036,0
4200,0.37449874700432606,0
4201,4.124756665167572,0
4202,6.40172839696928,0
4203,-1.3405940495548845,0
4204,-1.2513959088439397,0
4205,1.3218904669355238,0
4206,-0.7891316358658469,0
4207,0.23304645349919675,0
4208,-0.10202185404647518,0
4209,-0.04931869311574032,0
4210,-0.04588134344065099,0
4211,0.010880809763204932,0
4212,-0.052031638127067355,0
4213,0.0517202103045333,0
4214,0.037757820280423515,0
4215,-0.03355281154723812,0
4216,0.04225621780031544,0
4217,-0.051125778841105335,0
4218,0.021149211250005996,0
4219,0.01873620589326412,0
4220,0.4743136012560881,0
4221,4.229539870279663,0
4222,6.437016776576546,0
4223,-1.3854934840215198,0
4224,-1.3153362092739376,0
4225,1.359389629248683,0
4226,-0.7600511176810488,0
4227,0.23579517692885893,0
4228,0.023247089307041918,0
4229,-0.10198302570904394,0
4230,-0.07468338797062725,0
4231,-0.09517000384513187,0
4232,-0.02484312847072791,0
4233,-0.01667821106289008,0
4234,-0.033833522153519605,0
4235,-0.09148648417304413,0
4236,0.02360703302839959,0
4237,-0.08948400782188067,0
4238,-0.049155062563800575,0
4239,-0.0794671717379895,0
4240,0.4207926571701326,0
4241,4.268684915910652,0
4242,6.488347351615756,0
4243,-1.4499849560044609,0
4244,-1.264975511869265,0
4245,1.361375484181351,0
4246,-0.8301254794123487,0
4247,0.2455218112843119,0
4248,-0.06275068100109914,0
4249,-0.08217469927075702,0
4250,-0.017016218814022134,0
4251,0.05272770904748899,0
4252,0.006997163009280018,0
4253,-0.04578051232962867,0
4254,-0.04075876325207391,0
4255,-0.02837064437224964,0
4256,-0.020820906841743557,0
4257,0.06886046837942959,0
4258,0.03548961139685281,0
4259,-0.007542789979143559,0
4260,0.42471168013964367,0
4261,4.167095916149371,0
4262,6.4848145827626436,0
4263,-1.2871678278147587,0
4264,-1.222272835924475,0
4265,1.3472068312450174,0
4266,-0.7076890119001849,0
4267,0.25370270087307417,0
4268,-0.005115035694330618,0
4269,0.013953054949048443,0
4270,0.05173575113242597,0
4271,-0.012529915796696357,0
4272,-0.1008554376176846,0
4273,-0.17651726644193194,0
4274,-0.1233347760587439,0
4275,-0.029921841417163603,0
4276,0.003423538408859443,0
4277,-0.05740686977506851,0
4278,-0.07894206049945457,0
4279,-0.024937016661868372,0
4280,0.49347818617654204,0
4281,4.271564408417606,0
4282,6.396361553830165,0
4283,-1.3404768811146295,0
4284,-1.2102640823138904,0
4285,1.3924567008427282,0
4286,-0.7676366253521764,0
4287,0.27770924683170417,0
4288,-0.023017604930549315,0
4289,-0.03127075427408019,0
4290,-0.004494343768402156,0
4291,-0.05199774929901845,0
4292,-0.04306592711051033,0
4293,-0.07556491062864212,0
4294,0.09624309364612792,0
4295,-0.03887270248477431,0
4296,-0.005746542447184415,0
4297,-0.10920240220612454,0
4298,-0.015390018133091491,0
4299,-0.032983198556850134,0
4300,0.39087010373470077,0
4301,4.2111150461142435,0
4302,6.444664508115569,0
4303,-1.4724104473261614,0
4304,-1.3195376693251828,0
4305,1.3016325530363455,0
4306,-0.9113659617742459,0
4307,0.19023554607037235,0
4308,-0.13633764797780282,0
4309,-0.13391789432908238,0
4310,0.06161265348115506,0
4311,0.03696254747623934,0
4312,-0.08314472384828005,0
4313,-0.014519059661325676,0
4314,-0.013363417384997979,0
4315,0.0340951796411507,0
4316,-0.0025391630134974936,0
4317,0.09458864561967413,0
4318,0.08251340562199141,0
4319,0.05868831698557466,0
4320,0.4054300523999831,0
4321,4.370893715922362,0
4322,6.4417305800371345,0
4323,-1.4569899547701135,0
4324,-1.1361621863082703,0
4325,1.2724274799337194,0
4326,-0.7819791649885888,0
4327,0.29087320679732936,0
4328,-0.037785851197075004,0
4329,0.007841205103944017,0
4330,0.012562783626801724,0
4331,-0.033870218510042946,0
4332,0.018325097520753803,0
4333,-0.0430681295121453,0
4334,0.016104082923072072,0
4335,0.008359919856416018,0
4336,-0.02151316634399273,0
4337,0.027656494196268637,0
4338,0.04432481436119869,0
4339,-0.07348959545440048,0
4340,1.4388623993110496,1
4341,3.434904639211311,1
4342,0.9610612058133681,1
4343,-0.5386217724998045,1
4344,-0.20474695749083885,1
4345,-0.03483305615958314,1
4346,-0.14520621982046372,1
4347,-0.005667012359391654,1
4348,-0.05318261948929716,1
4349,-0.06483597989781334,1
4350,1.518147477049817,1
4351,3.4835420192059505,1
4352,0.8717775503834548,1
4353,-0.47055376430041856,1
4354,-0.20111007095779693,1
4355,-0.16751980186613194,1
4356,-0.04611053272524467,1
4357,-0.07344886167088972,1
4358,-0.1630175048564757,1
4359,-0.05010137195469128,1
4360,1.428310348001263,1
4361,3.5237452822985973,1
4362,0.9223074100169297,1
4363,-0.5222897818793278,1
4364,-0.15778105430707862,1
4365,-0.09530930901651896,1
4366,-0.012561439456769546,1
4367,-0.08622048543876566,1
4368,-0.07862075490315192,1
4369,-0.05389662747871533,1
4370,1.5071646092444595,1
4371,3.5127894778893913,1
4372,0.9289485308813739,1
4373,-0.5048599487511234,1
4374,-0.2074716932938391,1
4375,-0.09860143782256808,1
4376,-0.028983113443403492,1
4377,-0.10685546769904344,1
4378,-0.09573224036648907,1
4379,-0.09956254593051891,1
4380,1.5250470770959086,1
4381,3.491407562810707,1
4382,0.9318678834088936,1
4383,-0.538999992064177,1
4384,-0.20649768802477572,1
4385,-0.0897067407020126,1
4386,-0.1330572188020101,1
4387,-0.038560940021729564,1
4388,-0.032407715664472134,1
4389,0.02699875859498288,1
4390,1.4514359467777487,1
4391,3.4564572709255534,1
4392,0.9713469232282579,1
4393,-0.4285564563728317,1
4394,-0.2051084514004209,1
4395,0.016719626273500057,1
4396,-0.12558018454708086,1
4397,-0.07137574710939841,1
4398,-0.05296125647927174,1
4399,-0.06023710751013153,1
4400,1.579823273289541,1
4401,3.425196017032738,1
4402,1.0316096126163217,1
4403,-0.5408361897127294,1
4404,-0.24368534382981752,1
4405,-0.02594733272183953,1
4406,-0.11304993907844657,1
4407,-0.067446961165434,1
4408,-0.12299097663107765,1
4409,-0.15567745772114494,1
4410,1.552328295758463,1
4411,3.433304940632412,1
4412,0.9789949626212063,1
4413,-0.4734200488790686,1
4414,-0.2943679156337765,1
4415,-0.16265513750635024,1
4416,-0.01988056369225725,1
4417,-0.11236954407717074,1
4418,-0.05685237318274707,1
4419,-0.07871132994308286,1
4420,1.500089977810067,1
4421,3.4688177604443955,1
4422,1.0918033518337096,1
4423,-0.5164653288622595,1
4424,-0.16478121851131686,1
4425,-0.1769157133443737,1
4426,-0.0864415903023892,1
4427,-0.015139984311468232,1
4428,-0.0012292704290162507,1
4429,-0.1487969688269656,1
4430,1.5232087223548534,1
4431,3.4176329555060065,1
4432,0.9932424670026553,1
4433,-0.46436573037536427,1
4434,-0.11441770129398213,1
4435,-0.05071936677196798,1
4436,0.0060962781753963885,1
4437,0.042956928234122525,1
4438,0.0385470442346454,1
4439,-0.07629444046217192,1
4440,0.5658687363089261,0
4441,4.382286456794057,0
4442,6.546553463130467,0
4443,-1.2951227859805856,0
4444,-1.129729539546683,0
4445,1.4938555503209026,0
4446,-0.7236856671970917,0
4447,0.4016663077237567,0
4448,0.03901043799686087,0
4449,0.025306477170906123,0
4450,0.06231468749293304,0
