timestamp,value-0,is_anomaly
0,0.22198968355211005,0.0
1,3.4471682329037474,0.0
2,6.865217973761072,0.0
3,-0.2500171270803566,0.0
4,-2.0636839623439083,0.0
5,1.5658767218676974,0.0
6,-0.6649223009772589,0.0
7,0.07050930244927574,0.0
8,0.11037986980439225,0.0
9,-0.0010461360474195956,0.0
10,0.08414478235516415,0.0
11,0.04763397376137908,0.0
12,0.031210059029807617,0.0
13,-0.0008916403159819099,0.0
14,-0.014955102742296025,0.0
15,0.05568147801586701,0.0
16,0.005500484688150053,0.0
17,-0.022938215921083277,0.0
18,0.033600374343982636,0.0
19,-0.06954507690750909,0.0
20,0.21134608916551595,0.0
21,3.41957292585252,0.0
22,6.837174468601976,0.0
23,-0.2627815279933496,0.0
24,-1.942461088382501,0.0
25,1.579242466064013,0.0
26,-0.7336229733743023,0.0
27,0.1037763831646136,0.0
28,0.09171007626352859,0.0
29,-0.05175020026071349,0.0
30,0.03507408103274492,0.0
31,0.046111982226985045,0.0
32,0.06041099873051395,0.0
33,0.07927075219344318,0.0
34,-0.027679142620128168,0.0
35,-0.007992276344166941,0.0
36,-0.011478575078115588,0.0
37,0.01718767365912035,0.0
38,0.14621446562644388,0.0
39,-0.0900409952268187,0.0
40,0.2993542318867404,0.0
41,3.437311607782926,0.0
42,6.87912543913766,0.0
43,-0.3097013712927559,0.0
44,-1.9531055534269541,0.0
45,1.4398503962469327,0.0
46,-0.6862313440036005,0.0
47,0.03780503723650157,0.0
48,-0.04286784253429643,0.0
49,-0.18496997059502082,0.0
50,-0.04984800621763996,0.0
51,-0.035188280695749925,0.0
52,-0.039309526657794164,0.0
53,-0.04109501417553897,0.0
54,-0.1545726836343967,0.0
55,-0.1423018412746804,0.0
56,-0.15425526063802425,0.0
57,0.029572669513322686,0.0
58,-0.017202077966304137,0.0
59,0.04636477832231203,0.0
60,0.27376566261788965,0.0
61,3.5100714335929935,0.0
62,6.868176066188966,0.0
63,-0.3013528597871264,0.0
64,-1.9904882934005115,0.0
65,1.4471708651196797,0.0
66,-0.8380860601091886,0.0
67,0.10822862157305299,0.0
68,-0.08121468868631976,0.0
69,-0.15262824753550183,0.0
70,0.010719307905951783,0.0
71,0.0009210668418330875,0.0
72,-0.04469180766472058,0.0
73,-0.006626077099802015,0.0
74,-0.012605381756944402,0.0
75,-0.12041750557869291,0.0
76,-0.03346456182850875,0.0
77,-0.10564331027698132,0.0
78,-0.07746256626399753,0.0
79,-0.08063019021217147,0.0
80,0.18854266508471276,0.0
81,3.4620198633702888,0.0
82,6.774894470230864,0.0
83,-0.3445499131464939,0.0
84,-1.9734422466238226,0.0
85,1.45365909536744,0.0
86,-0.8385735210391126,0.0
87,0.13285650758224135,0.0
88,0.07941780428616615,0.0
89,-0.06340372488642956,0.0
90,0.060393643362979636,0.0
91,0.051688234925899364,0.0
92,-0.06855453089911931,0.0
93,-0.05602404965765018,0.0
94,-0.04604274732399989,0.0
95,-0.0521079433180902,0.0
96,0.02791682988128466,0.0
97,0.02307165303699868,0.0
98,-0.03531991452327035,0.0
99,-0.12139786405623508,0.0
100,0.22050772523394102,0.0
101,3.3504192725353272,0.0
102,6.798143155751514,0.0
103,-0.22461552838438797,0.0
104,-1.9906410448687024,0.0
105,1.5701078965972992,0.0
106,-0.7191310073911868,0.0
107,-0.00816335051056729,0.0
108,-0.012443860902131565,0.0
109,-0.10147565041703452,0.0
110,-0.05262017132148242,0.0
111,-0.16447671650001527,0.0
112,-0.058840564698728615,0.0
113,-0.08808566189711102,0.0
114,-0.0858335522434143,0.0
115,-0.025991961597728763,0.0
116,-0.05590340419502092,0.0
117,-0.10604799497295253,0.0
118,-0.07610257116124211,0.0
119,-0.05240410750947425,0.0
120,0.17579132532502595,0.0
121,3.482355629889471,0.0
122,6.9103216026300744,0.0
123,-0.3496210496702246,0.0
124,-2.027162914548425,0.0
125,1.4761461180061082,0.0
126,-0.751871604664695,0.0
127,0.0858743011835793,0.0
128,0.028657114226197856,0.0
129,-0.0037526884142379396,0.0
130,-0.021781858924594017,0.0
131,-0.06646291548154273,0.0
132,-0.05559153571233018,0.0
133,0.059790886088636336,0.0
134,-0.011193178171630649,0.0
135,-0.008363788638306648,0.0
136,-0.06294069747793198,0.0
137,-0.2065287523907077,0.0
138,0.014877518731626745,0.0
139,-0.02773625918749007,0.0
140,0.2163384292779844,0.0
141,3.498608878529126,0.0
142,6.822648234043311,0.0
143,-0.4243851720474586,0.0
144,-1.950238208462161,0.0
145,1.458826060675171,0.0
146,-0.7165452887584095,0.0
147,0.10345985679195101,0.0
148,-0.02793425442521603,0.0
149,-0.1152584378637097,0.0
150,-0.01809842953839142,0.0
151,-0.12701610070750657,0.0
152,0.01576299565892504,0.0
153,-0.002042434604758281,0.0
154,-0.004941155800377605,0.0
155,-0.024045508518436284,0.0
156,0.03528109679987532,0.0
157,-0.0406535537935927,0.0
158,-0.09522586545951289,0.0
159,0.035849359869906755,0.0
160,0.311589099695579,0.0
161,3.532636128228907,0.0
162,6.789484335155412,0.0
163,-0.3385919149018859,0.0
164,-1.9697427578124282,0.0
165,1.5065051167068315,0.0
166,-0.7031956693245021,0.0
167,0.13551412485625336,0.0
168,0.012247117467215986,0.0
169,-0.07398143016811123,0.0
170,-0.049171340919756494,0.0
171,-0.10214935337110437,0.0
172,-0.09810033317082434,0.0
173,0.06000313416327639,0.0
174,0.06745375817957108,0.0
175,-0.04607522205668448,0.0
176,-0.15168903260742653,0.0
177,-0.010830047615029714,0.0
178,0.023867341119453486,0.0
179,-0.019270416702775586,0.0
180,0.31903301872090256,0.0
181,3.5431312277824847,0.0
182,6.802232502703252,0.0
183,-0.29191484031339804,0.0
184,-1.9071391295577147,0.0
185,1.477883189799125,0.0
186,-0.6752730124251931,0.0
187,0.08431968535351388,0.0
188,0.0025435947117639283,0.0
189,-0.11882968777429767,0.0
190,-0.09346882785787958,0.0
191,-0.02415534413316469,0.0
192,-0.018612487141497432,0.0
193,-0.13383634155690483,0.0
194,-0.024517541996057525,0.0
195,-0.015967394154744977,0.0
196,0.02905472087042271,0.0
197,0.04135112035357848,0.0
198,-0.04426701582041758,0.0
199,0.02468458960465013,0.0
200,0.3140568532602028,0.0
201,3.541440929558252,0.0
202,6.905111191575368,0.0
203,-0.2677695594412252,0.0
204,-1.967489474181584,0.0
205,1.4263790307496613,0.0
206,-0.7321793289710311,0.0
207,0.10773482661903855,0.0
208,0.0860164449526076,0.0
209,-0.026739529709101352,0.0
210,0.05151346121064494,0.0
211,-0.0008680508148590713,0.0
212,-0.03668899779634878,0.0
213,-0.0011075049631143162,0.0
214,-0.03859005306145403,0.0
215,0.04097416090801749,0.0
216,-0.11290164625666446,0.0
217,0.0023861526925969545,0.0
218,0.012297866678330646,0.0
219,0.022983107356023547,0.0
220,0.24509933044870577,0.0
221,3.555150309195907,0.0
222,6.9267943236594505,0.0
223,-0.3176881006014363,0.0
224,-1.9330598445637819,0.0
225,1.5338725140686362,0.0
226,-0.6915905685668021,0.0
227,0.20676848107291873,0.0
228,0.010506601978066285,0.0
229,-0.015059430586908411,0.0
230,0.02167507893011806,0.0
231,-0.04236541606995818,0.0
232,0.06699098614816204,0.0
233,0.03663982053040271,0.0
234,-0.015981681173490993,0.0
235,0.0525208204468498,0.0
236,0.07354709997009454,0.0
237,0.1390596705756354,0.0
238,-0.04643455746886788,0.0
239,-0.019774355371413713,0.0
240,0.3256759306465073,0.0
241,3.5606682995560472,0.0
242,6.887561380341431,0.0
243,-0.2624419323025727,0.0
244,-1.8958001306191261,0.0
245,1.603266274936286,0.0
246,-0.6704591112680751,0.0
247,0.1450708620152387,0.0
248,0.09465584629110221,0.0
249,0.0739115230958105,0.0
250,0.17190908795831206,0.0
251,0.0397339147686971,0.0
252,0.03304063814910658,0.0
253,0.049212103164974534,0.0
254,0.04978350492426543,0.0
255,0.08872403748564368,0.0
256,-0.0016010616012245849,0.0
257,0.08152391955776542,0.0
258,0.09950115998222747,0.0
259,-0.016783135975734283,0.0
260,0.3405880228571087,0.0
261,3.596972636564995,0.0
262,6.894887839911263,0.0
263,-0.2386604993034924,0.0
264,-1.9441553114215064,0.0
265,1.5689703556833516,0.0
266,-0.702606695535218,0.0
267,0.10353511774693985,0.0
268,-0.0887447262414744,0.0
269,0.07277591288825715,0.0
270,-0.01936163595186985,0.0
271,0.019469143065984133,0.0
272,0.06983268312851149,0.0
273,0.023553084414483536,0.0
274,-0.05795071645291079,0.0
275,-0.01601804539026598,0.0
276,-0.04179672939932898,0.0
277,0.0711394919709373,0.0
278,0.03352214653747086,0.0
279,0.05873735583059143,0.0
280,0.31403106389822566,0.0
281,3.680382568774181,0.0
282,6.8815067234329845,0.0
283,-0.13740067189643138,0.0
284,-1.848919726626343,0.0
285,1.6561207976464947,0.0
286,-0.500042434389339,0.0
287,0.31732134853992167,0.0
288,0.19069388127638412,0.0
289,0.0592953184463978,0.0
290,0.21488237235495072,0.0
291,0.17640470179713036,0.0
292,0.1526252806430264,0.0
293,0.1508184918481462,0.0
294,0.09946434588006552,0.0
295,0.13051630714871754,0.0
296,0.22266756461095738,0.0
297,0.20315389716424567,0.0
298,0.07856333389896582,0.0
299,0.033551468959593,0.0
300,0.33669539506138435,0.0
301,3.6390517300846397,0.0
302,6.918053421162702,0.0
303,-0.27144918745503965,0.0
304,-1.9087292819686108,0.0
305,1.5644002590879604,0.0
306,-0.7004709212008361,0.0
307,0.1752487964651892,0.0
308,0.0019061049251098208,0.0
309,0.046679378343287385,0.0
310,0.05977414406771292,0.0
311,0.07492171611834311,0.0
312,0.08764163295960212,0.0
313,0.04844076313122586,0.0
314,0.013701069707947449,0.0
315,0.0039984652466818725,0.0
316,0.06320826198212817,0.0
317,0.02603266837102327,0.0
318,0.10001979974995459,0.0
319,0.05353433547760494,0.0
320,0.3073906118360745,0.0
321,3.6186413866093186,0.0
322,6.9437931441775795,0.0
323,-0.2609710938456071,0.0
324,-1.8374472527518548,0.0
325,1.5652852167274736,0.0
326,-0.6072777564357187,0.0
327,0.22187448600100004,0.0
328,0.10527279034015359,0.0
329,0.0991667132875746,0.0
330,0.0800663576241154,0.0
331,0.031179677171701527,0.0
332,-0.022412930596129275,0.0
333,0.08308099185049808,0.0
334,0.008616525224208325,0.0
335,0.017107093364390355,0.0
336,-0.0021400628730404436,0.0
337,0.11038029089015355,0.0
338,0.07878530462662069,0.0
339,0.10426618212828997,0.0
340,0.2796064224979725,0.0
341,3.5812213121876404,0.0
342,6.932085725729203,0.0
343,-0.2923907659125839,0.0
344,-1.8434067154283196,0.0
345,1.5401177807561024,0.0
346,-0.7026827564163425,0.0
347,0.1689702131876633,0.0
348,0.13039124835415916,0.0
349,0.03325587057861237,0.0
350,0.125907334114653,0.0
351,0.06649621563262537,0.0
352,-0.026126960883705377,0.0
353,0.053420808370507965,0.0
354,0.054307954178310504,0.0
355,0.02730389836903132,0.0
356,0.12762253948649024,0.0
357,0.05677204215367859,0.0
358,0.1037108985381447,0.0
359,0.08216235805616103,0.0
360,0.30485967557832194,0.0
361,3.624527676707273,0.0
362,6.879716445783586,0.0
363,-0.3399903053551968,0.0
364,-1.8095763206735247,0.0
365,1.5725654921489989,0.0
366,-0.7197307310270873,0.0
367,0.12020538321043606,0.0
368,0.09056208139581573,0.0
369,-0.09020675285519426,0.0
370,0.07368034608464097,0.0
371,0.02379464937369081,0.0
372,0.04968287229046256,0.0
373,-0.0496540565024463,0.0
374,0.0318236245997506,0.0
375,-0.026466998233936074,0.0
376,-0.02014842763848427,0.0
377,0.0071793356778036225,0.0
378,0.0622946260037183,0.0
379,-0.015679115168469517,0.0
380,0.26345758325116836,0.0
381,3.487323709207569,0.0
382,6.8668169716345515,0.0
383,-0.44499087970639845,0.0
384,-1.888128103208842,0.0
385,1.5663439257995664,0.0
386,-0.7171135018996894,0.0
387,0.1219153698962812,0.0
388,0.055713171884726756,0.0
389,-0.04896632470385043,0.0
390,-0.013693392580595702,0.0
391,-0.02041305076526633,0.0
392,0.03406442875257636,0.0
393,0.023032584486670667,0.0
394,0.09630532168221476,0.0
395,-0.022043889241953923,0.0
396,-0.06771016045966836,0.0
397,-0.015115840376688176,0.0
398,-0.06688735458907863,0.0
399,0.05982863709786627,0.0
400,0.24369920518994478,0.0
401,3.5181650660141317,0.0
402,6.772132046343583,0.0
403,-0.2825104743651973,0.0
404,-1.8630449102082056,0.0
405,1.5104306774442882,0.0
406,-0.7730951448141309,0.0
407,0.07363790105758736,0.0
408,0.1012712765008042,0.0
409,-0.09090496977577506,0.0
410,0.035635945464117066,0.0
411,0.009491744108335956,0.0
412,0.06917392897450247,0.0
413,-0.07926595626352628,0.0
414,-0.03816480421687408,0.0
415,0.03247394504874766,0.0
416,0.02392318758133193,0.0
417,0.007151366962638746,0.0
418,-0.007274133264321206,0.0
419,0.07166825792606019,0.0
420,0.28081725268598245,0.0
421,3.6171066240891587,0.0
422,6.78361962215182,0.0
423,-0.44113596728735854,0.0
424,-1.8992399198785133,0.0
425,1.4761157146018253,0.0
426,-0.69205403332633,0.0
427,0.15447297213177882,0.0
428,-0.0034672732595788375,0.0
429,-0.13614408567658087,0.0
430,0.0008770171647353928,0.0
431,0.03281590728481039,0.0
432,-0.007883478015467422,0.0
433,0.108143201337184,0.0
434,0.07051059681646374,0.0
435,0.03554900942547036,0.0
436,0.007850361579018528,0.0
437,-0.009585414174436868,0.0
438,0.029403064268906407,0.0
439,0.025448096537289095,0.0
440,0.36552165221211075,0.0
441,3.5610896516890738,0.0
442,6.881864947618463,0.0
443,-0.3184775342074062,0.0
444,-1.8362681282557018,0.0
445,1.5144529877538893,0.0
446,-0.7675168616134485,0.0
447,0.06268025597816125,0.0
448,0.05519291883421612,0.0
449,-0.13963570773516498,0.0
450,-0.021707314449248824,0.0
451,0.002823824613378753,0.0
452,-0.04941671948018987,0.0
453,-0.010418011079788746,0.0
454,-0.005832460210145584,0.0
455,-0.02344432896502052,0.0
456,0.06865133172061823,0.0
457,0.07230788530366304,0.0
458,0.01803481161630724,0.0
459,0.08815916690668604,0.0
460,0.31778869973354623,0.0
461,3.6078369768783904,0.0
462,6.87150354321872,0.0
463,-0.35769278515668296,0.0
464,-1.9187475818561601,0.0
465,1.5547003588554262,0.0
466,-0.7080444347323633,0.0
467,0.13571970590322802,0.0
468,0.10135460077024633,0.0
469,-0.07595032748166218,0.0
470,0.002551549191545631,0.0
471,-0.08460481000661593,0.0
472,-0.019005599327777237,0.0
473,-0.062381765472531506,0.0
474,-0.027190235978967643,0.0
475,-0.03246677315548805,0.0
476,0.044115129631664085,0.0
477,-0.02795673430028408,0.0
478,-0.043990038460311125,0.0
479,0.002021413456809601,0.0
480,0.2502309872359162,0.0
481,3.6141781255019922,0.0
482,6.876919327199264,0.0
483,-0.39621682508175754,0.0
484,-1.873269019524383,0.0
485,1.5719869457119573,0.0
486,-0.6792336831877018,0.0
487,0.12022278808799161,0.0
488,0.09198039547978733,0.0
489,-0.0018317309139400076,0.0
490,0.03120518579711256,0.0
491,0.043799020564163654,0.0
492,0.06462504749316896,0.0
493,0.02085021720786275,0.0
494,0.052198614576446506,0.0
495,-0.08097894217335455,0.0
496,0.05068730594566008,0.0
497,0.050360800405633926,0.0
498,-0.04972979700356292,0.0
499,-0.014466813311637322,0.0
500,0.26766371142574774,0.0
501,3.609917715243339,0.0
502,6.856763864671732,0.0
503,-0.23078729274003038,0.0
504,-1.893105194158281,0.0
505,1.5901355175776117,0.0
506,-0.7025435423576256,0.0
507,0.23527884824468392,0.0
508,0.056415774579815704,0.0
509,-0.0004777373889840522,0.0
510,0.11806565989314538,0.0
511,0.06070304732959425,0.0
512,-0.04438631348062825,0.0
513,-0.0243577228374919,0.0
514,0.026280522862700474,0.0
515,0.04611933206830878,0.0
516,-0.05224638688770559,0.0
517,-0.07106713274646721,0.0
518,0.057428649440048905,0.0
519,-0.00595231504955892,0.0
520,0.3181742083017624,0.0
521,3.5605953059112956,0.0
522,6.918791676465993,0.0
523,-0.4405593327055341,0.0
524,-1.8742735934372934,0.0
525,1.5414668876678186,0.0
526,-0.7202551436680183,0.0
527,0.25342369351590943,0.0
528,0.13600943145235703,0.0
529,-0.05201827764679274,0.0
530,0.1187691282063176,0.0
531,0.028079316869045683,0.0
532,0.0913583185827474,0.0
533,0.04226023938115518,0.0
534,0.022160351437232027,0.0
535,0.03367007100490593,0.0
536,0.10330629894968213,0.0
537,0.03486176953818679,0.0
538,0.005363414237734893,0.0
539,0.04217086064539311,0.0
540,0.37195199536557366,0.0
541,3.5076725012981878,0.0
542,6.875993253346057,0.0
543,-0.3782643206826643,0.0
544,-1.855312048246715,0.0
545,1.5384277157474504,0.0
546,-0.7087876901385888,0.0
547,0.22705457131280557,0.0
548,0.1091782218115675,0.0
549,0.021707409262935032,0.0
550,0.09454147657242347,0.0
551,0.09096774324195382,0.0
552,0.14430118304349693,0.0
553,0.04370198970148728,0.0
554,0.06249380418373057,0.0
555,0.009537279804350672,0.0
556,-0.03486230594692361,0.0
557,-0.002121537971598267,0.0
558,-0.01940740340535199,0.0
559,0.004971359074860357,0.0
560,0.16319678029278614,0.0
561,3.5119649711476537,0.0
562,6.910809356535721,0.0
563,-0.420539403743836,0.0
564,-1.833483043827605,0.0
565,1.500269079895658,0.0
566,-0.7402528351732627,0.0
567,0.16266962344662655,0.0
568,0.04848237882155217,0.0
569,-0.08385176481517154,0.0
570,0.02414108379216242,0.0
571,-0.007803622002726801,0.0
572,0.03211417238439042,0.0
573,-0.046501755874491485,0.0
574,0.06188307841368206,0.0
575,-0.028708447492512855,0.0
576,0.044994705525898564,0.0
577,0.02533473287150923,0.0
578,0.037680502386591,0.0
579,-0.007429980329682884,0.0
580,0.29965403176246297,0.0
581,3.6271034534460114,0.0
582,6.839752311605872,0.0
583,-0.42952609992908425,0.0
584,-1.8756150120031543,0.0
585,1.4948333905193525,0.0
586,-0.8517329908732955,0.0
587,0.07441753971444379,0.0
588,-0.005481791928490364,0.0
589,-0.08457889513214942,0.0
590,0.12355963155392576,0.0
591,0.02177455129365037,0.0
592,0.06292124962006337,0.0
593,0.0897139112381024,0.0
594,-0.029858913755138876,0.0
595,0.04018867915264552,0.0
596,-0.08721707415112255,0.0
597,-0.02557582842498359,0.0
598,0.0364853869374176,0.0
599,-0.007273051912745222,0.0
600,0.35133842365714985,0.0
601,3.6353829582262676,0.0
602,6.8400789218282005,0.0
603,-0.3744844575720892,0.0
604,-1.85111764679005,0.0
605,1.5995942658260618,0.0
606,-0.6833809872439564,0.0
607,0.21053520799527317,0.0
608,0.11654292420983567,0.0
609,-0.1156663738890249,0.0
610,-0.014447037208275886,0.0
611,0.0007345669106927667,0.0
612,0.013217706120938044,0.0
613,0.105151130106946,0.0
614,0.03993908714597639,0.0
615,0.035570612230643464,0.0
616,0.03880343313779348,0.0
617,0.0879599567607319,0.0
618,0.06801743243268726,0.0
619,0.05153067259495448,0.0
620,0.33718333263004663,0.0
621,3.7331637599506764,0.0
622,6.91708396442511,0.0
623,-0.4312283243621929,0.0
624,-1.8529847964289299,0.0
625,1.5794407809828066,0.0
626,-0.734976282976226,0.0
627,0.014053416883854378,0.0
628,0.003771890319230451,0.0
629,-0.044307652252175256,0.0
630,0.01324664263466619,0.0
631,-0.1346288319077975,0.0
632,-0.02902133834020336,0.0
633,0.016911260263177075,0.0
634,-0.12211608798780704,0.0
635,-0.10868436916007633,0.0
636,0.04333656430745178,0.0
637,-0.036145897822439224,0.0
638,-0.05122092385249523,0.0
639,-0.044281955711952675,0.0
640,0.26167855218809205,0.0
641,3.5836721640610394,0.0
642,6.82220392757494,0.0
643,-0.35439476015013516,0.0
644,-1.938606999307606,0.0
645,1.4809492540982387,0.0
646,-0.7485888153958103,0.0
647,0.12747621510445117,0.0
648,-0.024647330098114876,0.0
649,-0.051043127313565625,0.0
650,-0.03518117838696029,0.0
651,0.045200682305936615,0.0
652,-0.016148170426565488,0.0
653,0.015099467135855478,0.0
654,-0.0627201738873473,0.0
655,0.04357289386953353,0.0
656,0.0328013788351364,0.0
657,-0.010656933169790668,0.0
658,0.013164994227811845,0.0
659,0.02261771066232803,0.0
660,0.28532967759343175,0.0
661,3.517807416458967,0.0
662,6.840375850695355,0.0
663,-0.4875586930593508,0.0
664,-1.9251260920569155,0.0
665,1.5661310638460062,0.0
666,-0.8198462633864938,0.0
667,0.11575170386473776,0.0
668,0.03801082121953984,0.0
669,-0.08663020499491665,0.0
670,0.08309580359691904,0.0
671,-0.024047881251594547,0.0
672,0.012330467657022334,0.0
673,-0.023439235089781924,0.0
674,-0.0712556202644385,0.0
675,-0.059125040888561936,0.0
676,0.004993833213893163,0.0
677,0.010986198152087269,0.0
678,0.005483286778842744,0.0
679,-0.05864098462558941,0.0
680,0.17292476445824162,0.0
681,3.6513863380538316,0.0
682,6.857052879789816,0.0
683,-0.5479706089534134,0.0
684,-1.9054735496744115,0.0
685,1.4923420138047354,0.0
686,-0.7118938751704383,0.0
687,0.07616160670940766,0.0
688,0.031090558300180336,0.0
689,0.005271180416887997,0.0
690,0.03737874252682646,0.0
691,0.08162506103541077,0.0
692,0.038127345857847106,0.0
693,0.10009244690347273,0.0
694,-0.04048006468540179,0.0
695,0.004589865585476056,0.0
696,-0.0053706975734688495,0.0
697,-0.01022321629636748,0.0
698,0.049233705488509936,0.0
699,0.03907823557594593,0.0
700,0.3193489003199987,0.0
701,3.6037402854272877,0.0
702,6.8094990224066985,0.0
703,-0.4768775017721822,0.0
704,-1.914184652983628,0.0
705,1.4810362429730177,0.0
706,-0.7700234677700483,0.0
707,0.11520904226536106,0.0
708,-0.03879703622736635,0.0
709,-0.12087807437220686,0.0
710,-0.05494973868929505,0.0
711,-0.04624084872576272,0.0
712,0.056707068310063675,0.0
713,0.024164950666078648,0.0
714,0.07773042221762567,0.0
715,-0.02246247480613612,0.0
716,-0.028788036703867405,0.0
717,0.02768640697478274,0.0
718,0.0498838300212948,0.0
719,0.06240876415031863,0.0
720,0.2851647881096153,0.0
721,3.6915421276889027,0.0
722,6.9857783530349895,0.0
723,-0.2634350307222908,0.0
724,-1.8149356439549882,0.0
725,1.5186550430800208,0.0
726,-0.6711140940740679,0.0
727,0.08704110524040012,0.0
728,0.02670293486459654,0.0
729,-0.1252569859269689,0.0
730,0.006509704895247926,0.0
731,-0.013441584160973304,0.0
732,-0.061804589430144496,0.0
733,-0.05378160679538231,0.0
734,-0.04126471560481061,0.0
735,0.0577565162011941,0.0
736,-0.02609057188584501,0.0
737,-0.012333244459715818,0.0
738,0.08957948795276138,0.0
739,0.07468442076815324,0.0
740,0.36720321456136773,0.0
741,3.682782551466603,0.0
742,6.832590167034447,0.0
743,-0.3505202247396846,0.0
744,-1.7586578783659939,0.0
745,1.5864831128483283,0.0
746,-0.7605435390139241,0.0
747,0.19907512340267638,0.0
748,0.13245765275855934,0.0
749,-0.05112662075998013,0.0
750,-0.0013750024010895714,0.0
751,-0.006355564829285875,0.0
752,0.039112463722819416,0.0
753,0.022551531685445127,0.0
754,0.024289556484210613,0.0
755,-0.06527039133488446,0.0
756,0.04736813916625928,0.0
757,0.018918193929704195,0.0
758,-0.027294982630995532,0.0
759,0.011671332585218838,0.0
760,0.24188067354949946,0.0
761,3.618370400082328,0.0
762,6.904239657530549,0.0
763,-0.4412439916383067,0.0
764,-1.8945157813806361,0.0
765,1.581306120322278,0.0
766,-0.7438851998273343,0.0
767,0.19096045275207568,0.0
768,0.025520838362181116,0.0
769,0.03320661105210623,0.0
770,0.07784462615095465,0.0
771,-0.042662193473435264,0.0
772,0.10581172374921947,0.0
773,0.12051562983841381,0.0
774,-0.010940713545602346,0.0
775,0.038055686494091856,0.0
776,0.0512473239831814,0.0
777,-0.03983189340844421,0.0
778,0.054659643698534634,0.0
779,0.09282389502902168,0.0
780,0.3595533744545059,0.0
781,3.5307871906739865,0.0
782,6.846035870938208,0.0
783,-0.555855611595029,0.0
784,-1.7827256863816996,0.0
785,1.5885322600889218,0.0
786,-0.6924415479797902,0.0
787,0.21548311971994236,0.0
788,0.09184745473496808,0.0
789,0.11470520308481172,0.0
790,0.07610671697573021,0.0
791,0.0190981657651572,0.0
792,0.038559386864356324,0.0
793,0.11782250507205479,0.0
794,-0.04155332085262856,0.0
795,-0.022613228718974407,0.0
796,0.06300534545442915,0.0
797,-0.03550806428275008,0.0
798,0.07223288327234695,0.0
799,0.11790678543728624,0.0
800,0.28205010994139634,0.0
801,3.7804402473138863,0.0
802,6.931356993947996,0.0
803,-0.4168537639784131,0.0
804,-1.8271929162365013,0.0
805,1.6092907448323794,0.0
806,-0.7381458850066772,0.0
807,0.164120797684709,0.0
808,0.05706010119248906,0.0
809,-0.0165833448972137,0.0
810,0.08980581621315237,0.0
811,0.0439458037596677,0.0
812,0.004110092608737653,0.0
813,0.011827180154285105,0.0
814,-0.016297872640617744,0.0
815,0.04629120526291669,0.0
816,0.11254116090201885,0.0
817,-0.04394696359192372,0.0
818,0.0951200096896232,0.0
819,0.055321059742513064,0.0
820,0.3848750237684641,0.0
821,3.7132256801505394,0.0
822,6.879328197069644,0.0
823,-0.46923736920975295,0.0
824,-1.7424097701677908,0.0
825,1.6540435232312456,0.0
826,-0.6977291397293952,0.0
827,0.2040476325373869,0.0
828,0.11547023143076157,0.0
829,0.045902317602487,0.0
830,0.04986190217606771,0.0
831,0.0003453959808622509,0.0
832,0.04075397128100451,0.0
833,-0.016902524392708174,0.0
834,0.08470907612161983,0.0
835,0.1083779855744902,0.0
836,0.024598911492827644,0.0
837,0.0754184162918909,0.0
838,-0.011214788082005482,0.0
839,0.050076390943347746,0.0
840,0.3304530910783512,0.0
841,3.71911141210343,0.0
842,6.943095338351784,0.0
843,-0.4907677576843175,0.0
844,-1.7509135531664872,0.0
845,1.6185361283016115,0.0
846,-0.5813487515087324,0.0
847,0.19668474656509172,0.0
848,0.09322820507762539,0.0
849,0.04728915559979583,0.0
850,0.1265152307797644,0.0
851,-0.012146317825208336,0.0
852,0.052000985336442,0.0
853,0.07727715037547432,0.0
854,0.05238802791975643,0.0
855,0.02744559662105237,0.0
856,0.07142672753053145,0.0
857,0.023198880837903498,0.0
858,0.033597719672725165,0.0
859,-0.013559278792285585,0.0
860,0.27924462327932104,0.0
861,3.6830736915474747,0.0
862,6.841716696994975,0.0
863,-0.5132390905969391,0.0
864,-1.702543505891513,0.0
865,1.6281830180077173,0.0
866,-0.7402477303815111,0.0
867,0.23722922580084377,0.0
868,0.004972042335179297,0.0
869,-0.06023445376826757,0.0
870,0.0815922484439287,0.0
871,0.059924341386910815,0.0
872,0.03660105352247758,0.0
873,0.04216180998679475,0.0
874,-0.0033431379187594153,0.0
875,0.07784887903281168,0.0
876,0.001182329546174898,0.0
877,0.028959099623165167,0.0
878,0.03296281148693327,0.0
879,-0.04249762135970315,0.0
880,0.3043757154194062,0.0
881,3.5985268537229382,0.0
882,6.834775639288418,0.0
883,-0.4752997782960633,0.0
884,-1.776388057851111,0.0
885,1.5003229753695613,0.0
886,-0.7418992712675929,0.0
887,0.06664865097097349,0.0
888,-0.08324386101610333,0.0
889,-0.12383484505042261,0.0
890,-0.1511588868094794,0.0
891,-0.08170092169931883,0.0
892,-0.01970692143519743,0.0
893,0.02259472853079137,0.0
894,-0.011802095395203499,0.0
895,0.015188614494166041,0.0
896,-0.043979448678335906,0.0
897,-0.026875338137364854,0.0
898,0.022480175187154547,0.0
899,0.01614034357788849,0.0
900,0.2525065257314484,0.0
901,3.5757683732733154,0.0
902,6.784105733898266,0.0
903,-0.4705008362788884,0.0
904,-1.9188905633205071,0.0
905,1.4409563399054148,0.0
906,-0.7474106169043782,0.0
907,0.15273331272635737,0.0
908,-0.04822161345603673,0.0
909,0.0023497611209548908,0.0
910,0.11986321164230039,0.0
911,-0.01719876544877749,0.0
912,-0.1020300412842197,0.0
913,-0.055532407035190086,0.0
914,-0.03026661520736429,0.0
915,0.07325169257391172,0.0
916,0.06039773034091269,0.0
917,-0.02743724388844613,0.0
918,0.04280136867933681,0.0
919,0.044265902606550805,0.0
920,0.26266655128231803,0.0
921,3.672784774898604,0.0
922,6.8325308096764035,0.0
923,-0.4797961364547826,0.0
924,-1.7127042916192683,0.0
925,1.4718779210272466,0.0
926,-0.7874454070794112,0.0
927,0.06526646540088384,0.0
928,0.029661597875014593,0.0
929,-0.009719293108236576,0.0
930,0.008282929208939464,0.0
931,-0.0435196021100246,0.0
932,0.04115073974026273,0.0
933,-0.03784421557829565,0.0
934,-0.013801446057075499,0.0
935,-0.0567394022558424,0.0
936,-0.12347109229369681,0.0
937,0.02626506001707791,0.0
938,-0.11329282947715247,0.0
939,-0.06440740984242507,0.0
940,0.2348946080305341,0.0
941,3.617109738134424,0.0
942,6.797750111918062,0.0
943,-0.5730002916292245,0.0
944,-1.8806754629577545,0.0
945,1.4610126692783578,0.0
946,-0.7784204328645749,0.0
947,0.10556801690233124,0.0
948,0.023308668509536504,0.0
949,0.03386758285881453,0.0
950,0.029143224109332403,0.0
951,-0.12191641664670168,0.0
952,-0.06459729253241905,0.0
953,-0.04363849022910402,0.0
954,-0.048875137081505295,0.0
955,-0.01745661008513983,0.0
956,0.03459137091238084,0.0
957,-0.03389421473583533,0.0
958,0.046853318267450234,0.0
959,-0.0761697488004263,0.0
960,0.2613333255228187,0.0
961,3.6426337350072724,0.0
962,6.896450235865915,0.0
963,-0.5426226359354815,0.0
964,-1.7840513474530668,0.0
965,1.4657430182957851,0.0
966,-0.7855585360677637,0.0
967,0.18610134985860022,0.0
968,0.05055185822947733,0.0
969,-0.013094379405743373,0.0
970,0.04785652622726201,0.0
971,0.007677158387594868,0.0
972,0.09394352522387092,0.0
973,0.05935036312930475,0.0
974,0.00467947291629366,0.0
975,0.05497947700831854,0.0
976,-0.026836925666017857,0.0
977,-0.08580087089951874,0.0
978,-0.0030470066951555214,0.0
979,0.010115339721708923,0.0
980,0.21601704607052474,0.0
981,3.6214629531450067,0.0
982,6.823761492713482,0.0
983,-0.5314672370500177,0.0
984,-1.8119944998671649,0.0
985,1.580256410221022,0.0
986,-0.720506104829226,0.0
987,0.10837470929499993,0.0
988,-0.027010530057970272,0.0
989,-0.014964099245357514,0.0
990,0.024618943568130436,0.0
991,0.08166968333972581,0.0
992,0.027887284621916808,0.0
993,0.006023009849480366,0.0
994,0.09525845938598598,0.0
995,-0.05749648052835039,0.0
996,-0.02073322648953032,0.0
997,-0.03474420345417123,0.0
998,-0.01670425025692547,0.0
999,-0.020163481602689742,0.0
1000,0.383930407340803,0.0
1001,3.585233165844596,0.0
1002,6.77451924724963,0.0
1003,-0.557333016191282,0.0
1004,-1.8752545426062557,0.0
1005,1.422342051972621,0.0
1006,-0.7804455658642031,0.0
1007,-0.045132014228328104,0.0
1008,-0.004930869880092899,0.0
1009,-0.04487140763983939,0.0
1010,-0.06979185205225058,0.0
1011,-0.05892692145128528,0.0
1012,-0.004227473705541544,0.0
1013,0.0005278369858498361,0.0
1014,-0.0062327523768873905,0.0
1015,0.016336911509312855,0.0
1016,-0.07959902985036202,0.0
1017,0.011892558820404273,0.0
1018,0.007963353837202706,0.0
1019,0.018600037888581406,0.0
1020,0.356685862373432,0.0
1021,3.748726839016103,0.0
1022,6.829932045105561,0.0
1023,-0.5392021390726519,0.0
1024,-1.6881425055308696,0.0
1025,1.5047370548543342,0.0
1026,-0.6219970530912353,0.0
1027,0.21770362383817218,0.0
1028,0.1322357832112921,0.0
1029,-0.09114891790406268,0.0
1030,0.028072905441735525,0.0
1031,-0.03631791579709038,0.0
1032,0.01326053030796586,0.0
1033,0.005580043801596331,0.0
1034,0.027884045755635734,0.0
1035,-0.05765249452762237,0.0
1036,-0.010440892711623184,0.0
1037,0.060098129540040145,0.0
1038,-0.053345900770085775,0.0
1039,0.100324022789809,0.0
1040,0.3780548016002229,0.0
1041,3.676616098442541,0.0
1042,6.848828607325808,0.0
1043,-0.4699526122591237,0.0
1044,-1.7535607946326146,0.0
1045,1.530972426260911,0.0
1046,-0.6605066889266313,0.0
1047,0.20553185974719235,0.0
1048,0.03568349110338236,0.0
1049,0.006921856535686402,0.0
1050,0.08772639924123639,0.0
1051,0.03891811257828806,0.0
1052,-0.0074069570286116534,0.0
1053,0.04944528327728333,0.0
1054,0.008022417209914756,0.0
1055,0.016888281640364364,0.0
1056,0.06927894087627537,0.0
1057,0.0262723927504488,0.0
1058,-0.03367106212087973,0.0
1059,0.08240594857930088,0.0
1060,0.33633392016663344,0.0
1061,3.7940842225151883,0.0
1062,6.88324068584555,0.0
1063,-0.5163448535097426,0.0
1064,-1.8307432898393696,0.0
1065,1.564393154238303,0.0
1066,-0.6742044006108825,0.0
1067,0.1565557383570575,0.0
1068,-0.025242034144261155,0.0
1069,-0.008616725332776022,0.0
1070,0.017157767971231072,0.0
1071,0.009792414691663455,0.0
1072,0.08930109641778512,0.0
1073,0.039615399272921986,0.0
1074,0.05999017237134303,0.0
1075,0.05937482433477282,0.0
1076,-0.11167456004931164,0.0
1077,0.09864375120513286,0.0
1078,0.011366551343189826,0.0
1079,0.03911325215926632,0.0
1080,0.3044746672418933,0.0
1081,3.7124820964078507,0.0
1082,6.828190824358414,0.0
1083,-0.517293532816033,0.0
1084,-1.6425101115876684,0.0
1085,1.6041899803288722,0.0
1086,-0.6851262463963287,0.0
1087,0.21901439337597145,0.0
1088,0.024032327344093867,0.0
1089,-0.045438724365211035,0.0
1090,0.03455948212825218,0.0
1091,0.022554951189746226,0.0
1092,-0.05020451379351013,0.0
1093,-0.028826870253154266,0.0
1094,-0.09300129157447214,0.0
1095,0.01681663981684982,0.0
1096,-0.009732397569280373,0.0
1097,-0.09465888546285652,0.0
1098,-0.06829374227660519,0.0
1099,0.09801186225759234,0.0
1100,0.24302545779764143,0.0
1101,3.647923988412387,0.0
1102,6.800652061885681,0.0
1103,-0.5145699247197001,0.0
1104,-1.8019674116518043,0.0
1105,1.4551279772706462,0.0
1106,-0.7643429052316593,0.0
1107,0.22180183594680786,0.0
1108,0.03289460459500622,0.0
1109,-0.14447981307452157,0.0
1110,0.07284936261271374,0.0
1111,0.02789743859619783,0.0
1112,0.04295132269242619,0.0
1113,-0.06793787779726342,0.0
1114,0.002211476968381849,0.0
1115,-0.025805044633644723,0.0
1116,-0.04407811330084967,0.0
1117,0.008974816041746353,0.0
1118,0.004504128174094048,0.0
1119,0.07364261332227831,0.0
1120,0.36038915247385733,0.0
1121,3.7199098428563877,0.0
1122,6.866855527629006,0.0
1123,-0.581507568885042,0.0
1124,-1.7167206033569657,0.0
1125,1.586456731625391,0.0
1126,-0.6915877408256187,0.0
1127,0.1324093892950798,0.0
1128,-0.012854668620315054,0.0
1129,-0.07644880835133977,0.0
1130,0.033207631176834236,0.0
1131,-0.03146658232114787,0.0
1132,0.04446405777216022,0.0
1133,-0.025714125429140318,0.0
1134,-0.012755595536739557,0.0
1135,-0.07536037526712142,0.0
1136,-0.06879697231184817,0.0
1137,0.023006064902453945,0.0
1138,-0.02580609249898096,0.0
1139,0.028824132915669542,0.0
1140,0.32768391708309863,0.0
1141,3.7180534005239267,0.0
1142,6.711890979945723,0.0
1143,-0.581850733056597,0.0
1144,-1.8498866675114567,0.0
1145,1.4599938671730237,0.0
1146,-0.8566535661069239,0.0
1147,0.05036468912695605,0.0
1148,0.04685374112920925,0.0
1149,-0.08979752448417416,0.0
1150,-0.05662876319894772,0.0
1151,-0.08954220978835016,0.0
1152,-0.038995838080722545,0.0
1153,-0.009428256653876126,0.0
1154,-0.02504166615417824,0.0
1155,0.01512143865071118,0.0
1156,-0.008845413962851628,0.0
1157,-0.10625528606809063,0.0
1158,0.014017558055942334,0.0
1159,-0.03594883768320407,0.0
1160,0.2820552500573061,0.0
1161,3.6428904790333543,0.0
1162,6.725196020440875,0.0
1163,-0.5840170038126171,0.0
1164,-1.832085092833744,0.0
1165,1.5343616387478813,0.0
1166,-0.798796758687089,0.0
1167,0.1447669374829579,0.0
1168,0.013065058474506633,0.0
1169,-0.06147866503743413,0.0
1170,0.010629592255560136,0.0
1171,-0.016544787903102577,0.0
1172,-0.1103688217467331,0.0
1173,-0.036359269760961904,0.0
1174,-0.06310379507159226,0.0
1175,-0.04662520281142782,0.0
1176,-0.1056372626012213,0.0
1177,-0.20123880982635028,0.0
1178,-0.18107071511251746,0.0
1179,-0.17049591942473538,0.0
1180,0.0874419383085515,0.0
1181,3.445256320980271,0.0
1182,6.623154519822905,0.0
1183,-0.7462391614107309,0.0
1184,-1.9367158208656488,0.0
1185,1.349518574270279,0.0
1186,-0.9175154134702103,0.0
1187,-0.001430498556810364,0.0
1188,-0.15184274981393397,0.0
1189,-0.13873974748587228,0.0
1190,-0.14267942071473896,0.0
1191,0.0002427384850276354,0.0
1192,-0.03541514271728649,0.0
1193,-0.10013487627648995,0.0
1194,-0.11499325695671686,0.0
1195,-0.020417599125953312,0.0
1196,-0.037651544652177356,0.0
1197,-0.05501557781135887,0.0
1198,0.05838925756471066,0.0
1199,0.002771729921660332,0.0
1200,0.28214493609674596,0.0
1201,3.536668995368786,0.0
1202,6.7354433316854605,0.0
1203,-0.6558646613653623,0.0
1204,-1.89857137040672,0.0
1205,1.479679344479922,0.0
1206,-0.7985076748886285,0.0
1207,0.022903925953580873,0.0
1208,-0.00016653426660342974,0.0
1209,-0.09530618179102941,0.0
1210,0.047936721104392475,0.0
1211,-0.06642130914932784,0.0
1212,-0.024475969604021708,0.0
1213,-0.0018483040649394308,0.0
1214,0.003265830258466988,0.0
1215,-0.06802551755621289,0.0
1216,-0.0728684321108551,0.0
1217,0.026230580650804157,0.0
1218,0.043388345233726706,0.0
1219,0.037760660320784886,0.0
1220,0.3653080319850044,0.0
1221,3.6760980478772374,0.0
1222,6.733651351035007,0.0
1223,-0.6050289063626691,0.0
1224,-1.790251242650147,0.0
1225,1.4557454113625092,0.0
1226,-0.7916162712680163,0.0
1227,0.1610865457173842,0.0
1228,-0.013049573821492163,0.0
1229,-0.05506361532577863,0.0
1230,-0.026168556602409333,0.0
1231,-0.03209525635023201,0.0
1232,-0.06761860069523006,0.0
1233,-0.030976901124669155,0.0
1234,0.042572923462122304,0.0
1235,0.00010338027654280962,0.0
1236,-0.133796299080617,0.0
1237,-0.07901191548551738,0.0
1238,0.04200469175693365,0.0
1239,-0.042065847977197604,0.0
1240,0.22838735749834604,0.0
1241,3.5984152654696477,0.0
1242,6.736751868466186,0.0
1243,-0.6614283712795817,0.0
1244,-1.788311538169199,0.0
1245,1.4642258093250187,0.0
1246,-0.8430979434617081,0.0
1247,0.04207788383594015,0.0
1248,-0.06856423934717891,0.0
1249,-0.08245970086919209,0.0
1250,-0.04528170996345461,0.0
1251,-0.10800149576759985,0.0
1252,-0.06998159810779983,0.0
1253,-0.09530642629368646,0.0
1254,-0.042726497324357654,0.0
1255,0.04034211003567529,0.0
1256,-0.05232146866137202,0.0
1257,0.030750478418489904,0.0
1258,0.03258798675730458,0.0
1259,-0.0005443174663742265,0.0
1260,0.3483420819421147,0.0
1261,3.694044245097425,0.0
1262,6.829282398247543,0.0
1263,-0.5465761601910525,0.0
1264,-1.7562020889357468,0.0
1265,1.4488838669504562,0.0
1266,-0.7765034978842228,0.0
1267,0.24836243462412824,0.0
1268,0.12767972870590982,0.0
1269,0.02766464715220404,0.0
1270,0.07574911296958621,0.0
1271,0.025535336700222636,0.0
1272,0.05059033692652328,0.0
1273,0.04337520515503399,0.0
1274,0.018134462547978524,0.0
1275,-0.029267529826608983,0.0
1276,0.017410176087836807,0.0
1277,-0.012534700183059227,0.0
1278,-0.029408839424208584,0.0
1279,-0.060483270621270485,0.0
1280,0.21626225917857958,0.0
1281,3.594314198047053,0.0
1282,6.813172150435459,0.0
1283,-0.7068294514878555,0.0
1284,-1.7768496365487665,0.0
1285,1.4439910470626238,0.0
1286,-0.8075259715193254,0.0
1287,0.17357591701567274,0.0
1288,0.029723716613045827,0.0
1289,-0.02021118410196125,0.0
1290,0.054103807725631156,0.0
1291,0.0216188351080694,0.0
1292,0.05779459830722696,0.0
1293,-0.05752069847672722,0.0
1294,0.04815074033929554,0.0
1295,-0.01714646845808496,0.0
1296,-0.04611915282853574,0.0
1297,-0.008034230299926514,0.0
1298,0.06552770369580176,0.0
1299,-0.007903787660394929,0.0
1300,0.30252015778865154,0.0
1301,3.7063328748773436,0.0
1302,6.7109754471900835,0.0
1303,-0.6905932648389623,0.0
1304,-1.8085930758037647,0.0
1305,1.591461292278576,0.0
1306,-0.8743402550323505,0.0
1307,0.21847816894773997,0.0
1308,0.06437884363263038,0.0
1309,-0.10492616570821808,0.0
1310,0.008744235105175292,0.0
1311,-0.049857000775215,0.0
1312,0.023824131155733386,0.0
1313,-0.0054808448914776785,0.0
1314,0.055113605581525595,0.0
1315,0.0176791807953882,0.0
1316,-0.07631303701459116,0.0
1317,-0.053357200889488435,0.0
1318,-0.07337508697319098,0.0
1319,-0.08988818123033436,0.0
1320,0.23380137520735203,0.0
1321,3.6863830804476216,0.0
1322,6.763740500226917,0.0
1323,-0.7301857297260267,0.0
1324,-1.6877954009956142,0.0
1325,1.5076928347305671,0.0
1326,-0.7877652971083948,0.0
1327,0.08266117672315842,0.0
1328,0.05595995317665922,0.0
1329,-0.15335654425965745,0.0
1330,0.0044878589018542085,0.0
1331,-0.04713958558176549,0.0
1332,0.06534916182749961,0.0
1333,-0.00033246487289164545,0.0
1334,-0.0008614770941312855,0.0
1335,-0.062206039020528237,0.0
1336,0.0582144191826511,0.0
1337,0.11365544786742678,0.0
1338,0.08714155810357516,0.0
1339,0.018171585916630723,0.0
1340,0.3216621118137843,0.0
1341,3.816061929891112,0.0
1342,6.806690907367118,0.0
1343,-0.541514509320507,0.0
1344,-1.6754140677036722,0.0
1345,1.5553197447170326,0.0
1346,-0.760925416678215,0.0
1347,0.18543150849731685,0.0
1348,0.11623975957730184,0.0
1349,0.003759123049528166,0.0
1350,0.005955239496312603,0.0
1351,-0.02256687265624069,0.0
1352,-0.014080952206688525,0.0
1353,0.05167892004637047,0.0
1354,-0.004448544154684656,0.0
1355,-0.02910610851035233,0.0
1356,0.024248213038227166,0.0
1357,0.05544835776312543,0.0
1358,0.06355754029579089,0.0
1359,0.019428552782313726,0.0
1360,0.46631771553117535,0.0
1361,3.702718532354226,0.0
1362,6.787567070095608,0.0
1363,-0.5709330231595339,0.0
1364,-1.6285998050352632,0.0
1365,1.561015979435578,0.0
1366,-0.7711166858418853,0.0
1367,0.2068086281194224,0.0
1368,-0.062223405326266704,0.0
1369,0.08446438020061091,0.0
1370,0.03182102013447306,0.0
1371,0.012998991301302089,0.0
1372,0.03392654518767249,0.0
1373,0.007209288893788187,0.0
1374,0.03542636863690267,0.0
1375,0.03703062924970996,0.0
1376,0.036832100228791693,0.0
1377,0.04019717353540664,0.0
1378,0.110383058311758,0.0
1379,0.07275934924806722,0.0
1380,0.3885065403043998,0.0
1381,3.774371068110174,0.0
1382,6.781889506638709,0.0
1383,-0.5896389620923839,0.0
1384,-1.6436951327919278,0.0
1385,1.5190913875599177,0.0
1386,-0.6689633366988901,0.0
1387,0.22272802003960748,0.0
1388,-0.018568703033650477,0.0
1389,-0.0006024747488904969,0.0
1390,-0.05446660414490666,0.0
1391,-0.019391505728721562,0.0
1392,0.0787159800485431,0.0
1393,0.05265555246469647,0.0
1394,-0.033350818822044576,0.0
1395,0.010938616892932376,0.0
1396,0.024214668689470382,0.0
1397,0.011660723684028523,0.0
1398,-0.01619235676871304,0.0
1399,0.014411573217023407,0.0
1400,0.2705618307024366,0.0
1401,3.843053761634379,0.0
1402,6.722950011962908,0.0
1403,-0.6148986979318148,0.0
1404,-1.819845851038122,0.0
1405,1.4434010760355476,0.0
1406,-0.7921988004063927,0.0
1407,-0.035525666488314234,0.0
1408,-0.06546325915531115,0.0
1409,-0.08971899677857355,0.0
1410,-0.13942470568967125,0.0
1411,-0.21408181575269233,0.0
1412,-0.06018251580389122,0.0
1413,-0.09740122087119016,0.0
1414,-0.17988462153441154,0.0
1415,-0.16694227394681882,0.0
1416,-0.037098084058724994,0.0
1417,0.001969535073809703,0.0
1418,-0.055671252271586626,0.0
1419,-0.02928155710492453,0.0
1420,0.3561591634560659,0.0
1421,3.7378911176348892,0.0
1422,6.6945337722643385,0.0
1423,-0.5816149490836846,0.0
1424,-1.628272097992086,0.0
1425,1.4944697605301849,0.0
1426,-0.7363220138487037,0.0
1427,0.12817540578443032,0.0
1428,-0.012311717436143503,0.0
1429,-0.029881814688730912,0.0
1430,0.028261571007834572,0.0
1431,0.023043547286331605,0.0
1432,-0.05155574535646547,0.0
1433,-0.010984527417347515,0.0
1434,0.012670475647279598,0.0
1435,-0.020793641758529494,0.0
1436,-0.005799243346352772,0.0
1437,0.10867311539418155,0.0
1438,-0.0629618880301461,0.0
1439,-0.0566119259841322,0.0
1440,0.2906134146635633,0.0
1441,3.6877436076921764,0.0
1442,6.725078207615693,0.0
1443,-0.5694556973790899,0.0
1444,-1.7541187750199956,0.0
1445,1.51251799021489,0.0
1446,-0.7419751420469125,0.0
1447,0.14226216291988839,0.0
1448,0.013525062388181557,0.0
1449,-0.023172044018007182,0.0
1450,-0.002983019782849648,0.0
1451,-0.018539443472560948,0.0
1452,-0.05065241432794383,0.0
1453,0.007314525634776144,0.0
1454,-0.019726998844933376,0.0
1455,0.04040444428161826,0.0
1456,-0.005077864426333713,0.0
1457,-0.03600317505580791,0.0
1458,0.016634757220003106,0.0
1459,-0.03563597978108179,0.0
1460,0.36149495349355837,0.0
1461,3.701839253612041,0.0
1462,6.653024446318024,0.0
1463,-0.6512192688145615,0.0
1464,-1.722361145684484,0.0
1465,1.555722436503701,0.0
1466,-0.7144435432726438,0.0
1467,0.17910619397160582,0.0
1468,-0.06988812899058666,0.0
1469,-0.09432157155392087,0.0
1470,-0.06984207065827484,0.0
1471,-0.059233073366079796,0.0
1472,-0.04244945713294766,0.0
1473,-0.05797712336222961,0.0
1474,0.05347830663169083,0.0
1475,0.009869080960114462,0.0
1476,0.026576182132228274,0.0
1477,-0.07561412511563317,0.0
1478,0.006552857154188983,0.0
1479,-0.06938807991197554,0.0
1480,0.30219540617323215,0.0
1481,3.757415775221083,0.0
1482,6.681974228635805,0.0
1483,-0.6809470972044448,0.0
1484,-1.7462026476452743,0.0
1485,1.5322321074556604,0.0
1486,-0.8272538073328264,0.0
1487,0.01776069909964892,0.0
1488,-0.1235840378610023,0.0
1489,-0.14905213164443495,0.0
1490,-0.006040671888442182,0.0
1491,-0.09494967945205364,0.0
1492,-0.05196880307445654,0.0
1493,-0.00835307920145386,0.0
1494,-0.08655565909916502,0.0
1495,-0.013808142295674886,0.0
1496,-0.05435163958504119,0.0
1497,0.01733185437154704,0.0
1498,0.004740588832358172,0.0
1499,0.05478441443300644,0.0
1500,0.3449493460863522,0.0
1501,3.786739055230696,0.0
1502,6.769920492242714,0.0
1503,-0.7494650011133627,0.0
1504,-1.790251605116106,0.0
1505,1.4969206212784185,0.0
1506,-0.7817605306813984,0.0
1507,0.14283902991320357,0.0
1508,0.04298421701103133,0.0
1509,-0.039953677107378946,0.0
1510,-0.046607701217565176,0.0
1511,-0.05370273069384738,0.0
1512,-0.1410533417379507,0.0
1513,0.029187964825184414,0.0
1514,-0.02899293664477438,0.0
1515,-0.07357588151508178,0.0
1516,-0.020966098586342925,0.0
1517,-0.04421567135824098,0.0
1518,0.023930236771718797,0.0
1519,0.005877074282098891,0.0
1520,0.36334085223996215,0.0
1521,3.7909058743345008,0.0
1522,6.842390764311948,0.0
1523,-0.6388936727382499,0.0
1524,-1.7038276476053382,0.0
1525,1.5340125800781441,0.0
1526,-0.7144097614969552,0.0
1527,0.2579036800455516,0.0
1528,0.026113222297766532,0.0
1529,-0.06253248989721705,0.0
1530,0.11722028992586978,0.0
1531,-0.00944718152676562,0.0
1532,0.024788636678235082,0.0
1533,-0.011850021255102067,0.0
1534,0.011359190861705684,0.0
1535,-0.14190169341180828,0.0
1536,-0.02253797126801632,0.0
1537,-0.010605187411138292,0.0
1538,-0.10102342963274066,0.0
1539,-0.0692514933732079,0.0
1540,0.29684333249076794,0.0
1541,3.6674461029615855,0.0
1542,6.682280064306526,0.0
1543,-0.6884888500373044,0.0
1544,-1.781710222459715,0.0
1545,1.5656784823782082,0.0
1546,-0.7491111171588679,0.0
1547,0.17931600813761128,0.0
1548,0.07655124592776953,0.0
1549,-0.023009885489819755,0.0
1550,0.003304850377565673,0.0
1551,0.06430072260837141,0.0
1552,0.04379292801407894,0.0
1553,-0.0038431193444794787,0.0
1554,-0.06048516984337038,0.0
1555,0.01604441993323998,0.0
1556,-0.018587859452695515,0.0
1557,0.020804250515969482,0.0
1558,0.006705977044780875,0.0
1559,-0.05265711650023126,0.0
1560,0.36882965872453827,0.0
1561,3.775814566210197,0.0
1562,6.686477302323969,0.0
1563,-0.755465810565442,0.0
1564,-1.804935890678687,0.0
1565,1.5120297655533481,0.0
1566,-0.7861827721418434,0.0
1567,0.06637664032351652,0.0
1568,0.011068546418259662,0.0
1569,-0.1289733815119738,0.0
1570,-0.04757521137542048,0.0
1571,-0.10661557929577473,0.0
1572,-0.02970632778284075,0.0
1573,-0.010254087116267699,0.0
1574,-0.09506321677931476,0.0
1575,-0.01502575599396689,0.0
1576,-0.010706302422250083,0.0
1577,-0.10007143071758591,0.0
1578,-0.011481558724913347,0.0
1579,-0.029062003477200005,0.0
1580,0.24336696292700327,0.0
1581,3.6968421843550585,0.0
1582,6.807782097938229,0.0
1583,-0.7938907108475,0.0
1584,-1.8301583545301454,0.0
1585,1.4564504935254758,0.0
1586,-0.8005578587908925,0.0
1587,0.14078184243887185,0.0
1588,-0.09185888069959411,0.0
1589,-0.09477197663299518,0.0
1590,-0.09299540407772491,0.0
1591,-0.08339050065577469,0.0
1592,0.017049587321773724,0.0
1593,0.07447499295325505,0.0
1594,0.029567742264494684,0.0
1595,0.0128567050585425,0.0
1596,0.0020395836869770284,0.0
1597,-0.009052160744766738,0.0
1598,0.04112139601829034,0.0
1599,-0.05763553435669994,0.0
1600,0.2537006148627155,0.0
1601,3.7286442979948697,0.0
1602,6.641183267808365,0.0
1603,-0.7542894961928862,0.0
1604,-1.7112968740527825,0.0
1605,1.3853971368469737,0.0
1606,-0.8000955002607449,0.0
1607,0.19943755134854818,0.0
1608,-0.048761662491198926,0.0
1609,-0.09742336775519062,0.0
1610,-0.09926446884944551,0.0
1611,0.025163907332025413,0.0
1612,-0.116961841204554,0.0
1613,-0.04922616927423155,0.0
1614,-0.13137110114529643,0.0
1615,-0.025373644391167616,0.0
1616,-0.0721779153444372,0.0
1617,0.015413202436612088,0.0
1618,-0.05811681359410362,0.0
1619,-0.14683633117029127,0.0
1620,0.31760229994224864,0.0
1621,3.7222174290564074,0.0
1622,6.664291529236555,0.0
1623,-0.759188361307047,0.0
1624,-1.740416125874856,0.0
1625,1.4576569790217628,0.0
1626,-0.7848527098376655,0.0
1627,0.1378544079369445,0.0
1628,0.02943373840717732,0.0
1629,-0.06684538821513589,0.0
1630,0.08270783476377595,0.0
1631,-0.03124694476738376,0.0
1632,-0.06280689397131962,0.0
1633,-0.101773513100175,0.0
1634,-0.10084125846906856,0.0
1635,-0.07343192198998771,0.0
1636,-0.03221522097856666,0.0
1637,-0.026507548213616554,0.0
1638,-0.12794159072658337,0.0
1639,-0.017787218806467858,0.0
1640,0.1786196606686506,0.0
1641,3.6042800814864635,0.0
1642,6.694847220471912,0.0
1643,-0.8429506141184022,0.0
1644,-1.7755443578728147,0.0
1645,1.4183453163894426,0.0
1646,-0.8522967266739702,0.0
1647,0.04731097506638744,0.0
1648,-0.11745990281251772,0.0
1649,-0.1711430089296192,0.0
1650,-0.034457319350165216,0.0
1651,-0.10645733294774685,0.0
1652,-0.06391962212150323,0.0
1653,-0.03132303231095345,0.0
1654,-0.07350713016698397,0.0
1655,-0.06713197582564984,0.0
1656,-0.01453877148369409,0.0
1657,-0.1363002035455904,0.0
1658,-0.0809558785505633,0.0
1659,-0.048175419432764294,0.0
1660,0.31073584274422783,0.0
1661,3.746456570952088,0.0
1662,6.651371527641692,0.0
1663,-0.7122351120161137,0.0
1664,-1.6751684153925572,0.0
1665,1.432684904018121,0.0
1666,-0.8071916326733007,0.0
1667,0.009966248131212052,0.0
1668,0.053734598888223344,0.0
1669,-0.15724087192731467,0.0
1670,-0.05305531857773331,0.0
1671,-0.051879516817443336,0.0
1672,0.011380438158469959,0.0
1673,-0.12291614171554494,0.0
1674,0.02513200635074002,0.0
1675,-0.03885228686509959,0.0
1676,-0.05437880406385635,0.0
1677,0.011224242774676846,0.0
1678,-0.04048303301737927,0.0
1679,-0.013954461496962771,0.0
1680,0.23635855105130568,0.0
1681,3.6840991637444875,0.0
1682,6.719743787631038,0.0
1683,-0.7712263796229047,0.0
1684,-1.824074131345509,0.0
1685,1.490003314046885,0.0
1686,-0.8507460599768066,0.0
1687,0.07821084081148832,0.0
1688,-0.06274941284373571,0.0
1689,-0.11371081271306116,0.0
1690,0.023690333325992935,0.0
1691,-0.16695249254765276,0.0
1692,-0.1857603454232247,0.0
1693,-0.11523146090854666,0.0
1694,-0.09532980111803567,0.0
1695,-0.0767353619665374,0.0
1696,0.011121843138142795,0.0
1697,-0.08785499384658178,0.0
1698,-0.1096827378793776,0.0
1699,-0.026453361715857188,0.0
1700,0.20441159212884014,0.0
1701,3.7353000494426762,0.0
1702,6.708134572464761,0.0
1703,-0.9129799102236743,0.0
1704,-1.6712195098724623,0.0
1705,1.4749785282937697,0.0
1706,-0.9012736888546828,0.0
1707,0.17841527320117778,0.0
1708,-0.11561309685234357,0.0
1709,-0.0014258145616039275,0.0
1710,-0.02211088909742392,0.0
1711,-0.011408853582537078,0.0
1712,-0.0765375508809007,0.0
1713,-0.06066963609513075,0.0
1714,-0.11674502598591574,0.0
1715,-0.12987573306577638,0.0
1716,-0.038071431416944294,0.0
1717,-0.0907089752770509,0.0
1718,0.06299866525598811,0.0
1719,0.03523574423629275,0.0
1720,0.3388954126736977,0.0
1721,3.791955965462009,0.0
1722,6.766235812428479,0.0
1723,-0.6712110244942034,0.0
1724,-1.6772662359842152,0.0
1725,1.4939204144546177,0.0
1726,-0.7781937997381233,0.0
1727,0.1759766947775735,0.0
1728,-0.0555519484311809,0.0
1729,-0.13174028745966143,0.0
1730,0.04179424177167956,0.0
1731,-0.06440030638920977,0.0
1732,-0.06887306150084557,0.0
1733,0.030534782214512356,0.0
1734,-0.022660679399683192,0.0
1735,-0.04316981206758828,0.0
1736,-0.0035078135922728196,0.0
1737,-0.18047572192708097,0.0
1738,-0.038180899452304455,0.0
1739,-0.06656143954314067,0.0
1740,0.3330191941205057,0.0
1741,3.7212868013195592,0.0
1742,6.7474304355012205,0.0
1743,-0.7753760897644332,0.0
1744,-1.758493518275827,0.0
1745,1.4090237456908197,0.0
1746,-0.8185706552409477,0.0
1747,0.15883147907244483,0.0
1748,-0.03783492389583293,0.0
1749,-0.12465442543118702,0.0
1750,-0.07336575726601585,0.0
1751,-0.1372643425351916,0.0
1752,-0.03490431601836127,0.0
1753,-0.015430365260904893,0.0
1754,-0.03221478493744415,0.0
1755,-0.04666000923276219,0.0
1756,0.016616555770867316,0.0
1757,-0.03880746774517392,0.0
1758,-0.00884998054121585,0.0
1759,-0.05285311566158708,0.0
1760,0.4034756941922629,0.0
1761,3.814418558819468,0.0
1762,6.697101968738803,0.0
1763,-0.829717229952242,0.0
1764,-1.7612034622859194,0.0
1765,1.5054352894513345,0.0
1766,-0.7385584855783147,0.0
1767,0.1966165532709575,0.0
1768,-0.046007241482428074,0.0
1769,0.01992857929454961,0.0
1770,-0.014619169168216253,0.0
1771,-0.02089457617558351,0.0
1772,-0.0328123315496578,0.0
1773,0.006470720282014099,0.0
1774,0.0544580714978275,0.0
1775,0.0629426321467829,0.0
1776,-0.046714653852188565,0.0
1777,-0.09237846237907843,0.0
1778,-0.03990551064869906,0.0
1779,-0.03637559572581961,0.0
1780,0.3483582996350032,0.0
1781,3.7254116705098212,0.0
1782,6.694162856642535,0.0
1783,-0.734327781108766,0.0
1784,-1.7062733835890413,0.0
1785,1.4585298745548412,0.0
1786,-0.7434067505539476,0.0
1787,0.1844593369595523,0.0
1788,-0.0034236957023587424,0.0
1789,-0.04847887555674207,0.0
1790,0.005839546347754581,0.0
1791,-0.1378845559178708,0.0
1792,-0.11474639738419115,0.0
1793,-0.07104291477668337,0.0
1794,-0.05153582780355591,0.0
1795,-0.0036127921051915257,0.0
1796,-0.17625379939797342,0.0
1797,-0.003650605974581597,0.0
1798,-0.03782816557534441,0.0
1799,-0.1666031767728437,0.0
1800,0.20835797826444213,0.0
1801,3.6396514355617,0.0
1802,6.662142338616996,0.0
1803,-0.8673742880645522,0.0
1804,-1.7046803686121528,0.0
1805,1.3346921164925223,0.0
1806,-0.8936358468878949,0.0
1807,0.1390273124587437,0.0
1808,0.06417056024709233,0.0
1809,-0.03556587784484926,0.0
1810,0.07910978946816336,0.0
1811,0.011332268824249446,0.0
1812,0.028879787558293252,0.0
1813,0.029711241592985785,0.0
1814,0.027131109197427408,0.0
1815,0.031141159711630964,0.0
1816,0.017495010071351215,0.0
1817,0.12480783825371759,0.0
1818,0.0901081241044427,0.0
1819,0.08003889028090673,0.0
1820,0.35252300536923875,0.0
1821,3.8012726217350914,0.0
1822,6.779104358227947,0.0
1823,-0.661524297251635,0.0
1824,-1.6319698831119955,0.0
1825,1.5236022174289956,0.0
1826,-0.7434289534048952,0.0
1827,0.07042658505276353,0.0
1828,0.03486309135800981,0.0
1829,-0.06822520331366651,0.0
1830,0.0756549032319391,0.0
1831,0.0030465037573784684,0.0
1832,-0.01828931919206636,0.0
1833,0.07610728034241084,0.0
1834,0.026564234981233496,0.0
1835,0.008709044445263034,0.0
1836,-0.014133438163287639,0.0
1837,0.0509552803842282,0.0
1838,-0.08248672942966494,0.0
1839,0.060963386396614874,0.0
1840,0.38020698263730257,0.0
1841,3.7460662945706686,0.0
1842,6.6959068023450925,0.0
1843,-0.7911936281357475,0.0
1844,-1.6727624542847526,0.0
1845,1.5289800689841275,0.0
1846,-0.7769282846622487,0.0
1847,0.14570757387532668,0.0
1848,0.007607428397762963,0.0
1849,0.028890298729675114,0.0
1850,0.07576361696490674,0.0
1851,-0.052133085851888736,0.0
1852,0.12037498684687359,0.0
1853,0.0544376847670935,0.0
1854,0.0467103675769623,0.0
1855,-0.02967923062538515,0.0
1856,0.03493240598207763,0.0
1857,0.10424885300494018,0.0
1858,0.03251967720742222,0.0
1859,0.03179180972620609,0.0
1860,0.23999911053273437,0.0
1861,3.835836107198346,0.0
1862,6.71873118420106,0.0
1863,-0.6969658891129739,0.0
1864,-1.6406692154799631,0.0
1865,1.4895419303331248,0.0
1866,-0.6694265342244747,0.0
1867,0.22899763818939708,0.0
1868,0.0592562793035204,0.0
1869,-0.006231925406312647,0.0
1870,0.03100172556029918,0.0
1871,0.002609381607544318,0.0
1872,0.07002695351369137,0.0
1873,0.017896074756505436,0.0
1874,0.061535803507808795,0.0
1875,0.08560000115638097,0.0
1876,-0.055845266666974994,0.0
1877,-0.01215082188443772,0.0
1878,0.050982030759235165,0.0
1879,0.018312430468858713,0.0
1880,0.36912588078659586,0.0
1881,3.769938829502797,0.0
1882,6.775593568159441,0.0
1883,-0.7066042883883459,0.0
1884,-1.5232949786153134,0.0
1885,1.4567591614877278,0.0
1886,-0.6626133858412152,0.0
1887,0.2016863958984415,0.0
1888,-0.044075582586071,0.0
1889,0.00010345730557905636,0.0
1890,0.024162132304112908,0.0
1891,0.027842377821604584,0.0
1892,-0.04150982489193862,0.0
1893,0.016747371969687418,0.0
1894,0.027718045947219674,0.0
1895,-0.06577679529087195,0.0
1896,-0.0383897776950722,0.0
1897,-0.030186316537540142,0.0
1898,-0.058402808054003566,0.0
1899,-0.011419707977956384,0.0
1900,0.353298731571496,0.0
1901,3.78259489475539,0.0
1902,6.649593743023377,0.0
1903,-0.8742990651967627,0.0
1904,-1.7373792036165603,0.0
1905,1.5176483927062572,0.0
1906,-0.7851840638158788,0.0
1907,0.21463464668230592,0.0
1908,0.03620117110732004,0.0
1909,-0.0015725306679770477,0.0
1910,-0.0026559553446015224,0.0
1911,0.03226712354087626,0.0
1912,0.022303612258334576,0.0
1913,0.05985016477857543,0.0
1914,0.028308177981152344,0.0
1915,0.10638178361514186,0.0
1916,0.04491165376263569,0.0
1917,0.0525021439644087,0.0
1918,0.03704053792696644,0.0
1919,0.03622609578747842,0.0
1920,0.48026813907654975,0.0
1921,3.855738235864845,0.0
1922,6.72341932602118,0.0
1923,-0.6694737370067775,0.0
1924,-1.6368908797209085,0.0
1925,1.547697657737484,0.0
1926,-0.810898344695574,0.0
1927,0.2514598618676933,0.0
1928,0.016574765485104438,0.0
1929,0.10181624614727308,0.0
1930,-0.009450053705164989,0.0
1931,0.05880366318519355,0.0
1932,0.044348934688866894,0.0
1933,-0.10274328603228469,0.0
1934,-0.03472652246665916,0.0
1935,-0.06335801502870497,0.0
1936,-0.01771609468851122,0.0
1937,0.09307351045509316,0.0
1938,0.007186531372342136,0.0
1939,0.012291741780005402,0.0
1940,0.38708842737213023,0.0
1941,3.8569416876077542,0.0
1942,6.716767622586032,0.0
1943,-0.7818699328936551,0.0
1944,-1.572172946453564,0.0
1945,1.547695466981753,0.0
1946,-0.732972568735102,0.0
1947,0.2231893761932197,0.0
1948,-0.02797854332428768,0.0
1949,-0.05102922609875628,0.0
1950,0.021180833879882885,0.0
1951,0.028630381239656298,0.0
1952,0.040962210945890656,0.0
1953,0.07633597813170373,0.0
1954,0.06518741869728309,0.0
1955,-0.019966088731562963,0.0
1956,-0.0007722325863507573,0.0
1957,-0.011544788072105301,0.0
1958,0.045816837770606224,0.0
1959,0.09706344548170366,0.0
1960,0.37652177967169836,0.0
1961,3.882909540822661,0.0
1962,6.82624114631675,0.0
1963,-0.679221438597527,0.0
1964,-1.5516010159971092,0.0
1965,1.525316011291452,0.0
1966,-0.8034839800709328,0.0
1967,0.26787381359239143,0.0
1968,0.1318444686870418,0.0
1969,0.1100365205883522,0.0
1970,0.021183488173981274,0.0
1971,0.04553708845213432,0.0
1972,0.12162957896925089,0.0
1973,0.0089632075838144,0.0
1974,0.0281445748016906,0.0
1975,0.01656114270154704,0.0
1976,0.0032906507368686347,0.0
1977,-0.029070032000229333,0.0
1978,0.11145763378403964,0.0
1979,0.0879878562232577,0.0
1980,0.36706110563451044,0.0
1981,3.8444812037952265,0.0
1982,6.78521291764605,0.0
1983,-0.7917072549607729,0.0
1984,-1.6021649619504938,0.0
1985,1.4796232093187647,0.0
1986,-0.7938317571720355,0.0
1987,0.20016641224741819,0.0
1988,0.01943519380280646,0.0
1989,-0.023156586173128647,0.0
1990,-0.002027235108858997,0.0
1991,-0.01731570836541338,0.0
1992,-0.035001686361315065,0.0
1993,-0.10092868433970902,0.0
1994,-0.048612431570181414,0.0
1995,0.10472686222204196,0.0
1996,-0.045407211054366965,0.0
1997,0.04698431677358263,0.0
1998,0.04230951816497776,0.0
1999,-0.03671343924340224,0.0
2000,0.42220771944330127,0.0
2001,3.8745880165997377,0.0
2002,6.73915596222973,0.0
2003,-0.8180925504042028,0.0
2004,-1.6283747483259632,0.0
2005,1.4610273633763453,0.0
2006,-0.7862248630877222,0.0
2007,0.20780057528531715,0.0
2008,0.011019565723298078,0.0
2009,-0.06604968117458787,0.0
2010,0.01580620076143937,0.0
2011,-0.006989919347222054,0.0
2012,-0.03864713097478005,0.0
2013,0.041235094901367654,0.0
2014,0.041853677430449654,0.0
2015,0.12215372364110376,0.0
2016,0.08329712200113758,0.0
2017,-0.029849925071501318,0.0
2018,0.06211896791733254,0.0
2019,0.05077104178338346,0.0
2020,0.43861698033977525,0.0
2021,3.9248372207080355,0.0
2022,6.801248045390405,0.0
2023,-0.769673014347937,0.0
2024,-1.5982542714388017,0.0
2025,1.5765126095848374,0.0
2026,-0.8154601230787252,0.0
2027,0.13171154486842634,0.0
2028,0.00841402507949263,0.0
2029,-0.05767047312977432,0.0
2030,0.020979967124420608,0.0
2031,0.00712904300697999,0.0
2032,0.031397818875856146,0.0
2033,0.027436320011473957,0.0
2034,0.023402983295433912,0.0
2035,-0.016814072994582378,0.0
2036,0.00576622828241375,0.0
2037,0.06372310693403019,0.0
2038,0.09489151851325227,0.0
2039,0.036400125987040684,0.0
2040,0.43793357203068284,0.0
2041,3.872122207820247,0.0
2042,6.884552571332682,0.0
2043,-0.7593166243799969,0.0
2044,-1.5455528185469134,0.0
2045,1.4871142761182174,0.0
2046,-0.8260438712073732,0.0
2047,0.1703762946777605,0.0
2048,0.001225237412888977,0.0
2049,-0.015147228214877162,0.0
2050,-0.003997555862574269,0.0
2051,0.15691002652728697,0.0
2052,0.043569753983841136,0.0
2053,0.07473156578007677,0.0
2054,0.03738112743640322,0.0
2055,0.01833334388771296,0.0
2056,0.07276482680616508,0.0
2057,0.09979725196301742,0.0
2058,0.07904780825741392,0.0
2059,0.12157668655285513,0.0
2060,0.44231092152547236,0.0
2061,4.028368680238783,0.0
2062,6.764096956722476,0.0
2063,-0.700169180243756,0.0
2064,-1.5462877681538865,0.0
2065,1.5211170898260136,0.0
2066,-0.782418557822046,0.0
2067,0.17284825836249276,0.0
2068,0.06360489148256171,0.0
2069,-0.05203608340793743,0.0
2070,0.062399364879960756,0.0
2071,0.016190629685084237,0.0
2072,-0.01994380786562224,0.0
2073,-0.023527097117138546,0.0
2074,-0.032736448968459335,0.0
2075,-0.027672166224293422,0.0
2076,-0.031593532771349395,0.0
2077,0.13565259162926174,0.0
2078,-0.003571681059595974,0.0
2079,0.09459948621891895,0.0
2080,0.3687373534643705,0.0
2081,3.958486064208323,0.0
2082,6.714348666700388,0.0
2083,-0.6821625231556563,0.0
2084,-1.5195483167116692,0.0
2085,1.6678355308771806,0.0
2086,-0.7267001634854526,0.0
2087,0.2841154180084079,0.0
2088,0.04656033837265641,0.0
2089,-0.028620247206012778,0.0
2090,0.03359363839626939,0.0
2091,0.027577330525899776,0.0
2092,0.03170332436914468,0.0
2093,-0.005614661061265097,0.0
2094,0.04825169023204531,0.0
2095,0.05413812817545621,0.0
2096,0.02121107767690436,0.0
2097,0.0359286590037414,0.0
2098,-0.06507320918443417,0.0
2099,0.006690226514838294,0.0
2100,0.3395318100028095,0.0
2101,3.8470909512437026,0.0
2102,6.768593783860344,0.0
2103,-0.7776126930119072,0.0
2104,-1.6314746508768063,0.0
2105,1.4762970983642714,0.0
2106,-0.7281190684967823,0.0
2107,0.08058267671748351,0.0
2108,0.03763400490145778,0.0
2109,-0.12111199342162013,0.0
2110,0.11010990260822755,0.0
2111,0.041675024306880734,0.0
2112,0.049327386453412565,0.0
2113,0.09582624231711227,0.0
2114,-0.030036468818595834,0.0
2115,-0.07756552361717692,0.0
2116,0.036467574331165306,0.0
2117,-0.04365289919766892,0.0
2118,0.059121355607305144,0.0
2119,-0.06816692390795792,0.0
2120,0.448576731646705,0.0
2121,3.846300493472062,0.0
2122,6.694283771466919,0.0
2123,-0.8405303892855149,0.0
2124,-1.5778480553768273,0.0
2125,1.4539540533753956,0.0
2126,-0.6973199325948917,0.0
2127,0.25402663824253435,0.0
2128,0.046241368498344086,0.0
2129,-0.10887354982840802,0.0
2130,-0.0533939588042535,0.0
2131,0.07900766945510242,0.0
2132,-0.01657769500583821,0.0
2133,0.09219815259038866,0.0
2134,-0.02186279270606119,0.0
2135,-0.014118052382988834,0.0
2136,0.07066570350768822,0.0
2137,0.09804567328809466,0.0
2138,0.05572169651265372,0.0
2139,0.11654068319727737,0.0
2140,0.4593363118341264,0.0
2141,3.9554383298110896,0.0
2142,6.782602103038028,0.0
2143,-0.7216192479353964,0.0
2144,-1.4545569189673935,0.0
2145,1.4853875986414233,0.0
2146,-0.7281982640338572,0.0
2147,0.25911465822468,0.0
2148,0.004924805566821559,0.0
2149,-0.07941618191427552,0.0
2150,-0.008397391555381058,0.0
2151,0.01946623355226305,0.0
2152,-0.0302340589616914,0.0
2153,0.054174899716083365,0.0
2154,0.013738711614349721,0.0
2155,0.0136643561325022,0.0
2156,0.06588251500576986,0.0
2157,0.08956002252888073,0.0
2158,-0.04513430789034388,0.0
2159,0.007772041277515959,0.0
2160,0.35367967812103596,0.0
2161,3.955856779438464,0.0
2162,6.764986042028645,0.0
2163,-0.9107050922332757,0.0
2164,-1.5623041429252935,0.0
2165,1.560163620309975,0.0
2166,-0.775632368163065,0.0
2167,0.22790429056802988,0.0
2168,0.008069818690871117,0.0
2169,-0.033161645258612656,0.0
2170,-0.05757638655289413,0.0
2171,0.022226356126188188,0.0
2172,-0.0006970927043252126,0.0
2173,-0.0249954779417192,0.0
2174,0.03936373341305023,0.0
2175,0.008270224335896524,0.0
2176,-0.03495215475175206,0.0
2177,0.0682166355253504,0.0
2178,0.005237136935688183,0.0
2179,0.021983402340441126,0.0
2180,0.4516816849617483,0.0
2181,4.0059931791045065,0.0
2182,6.689369385949056,0.0
2183,-0.805263155202887,0.0
2184,-1.5076046889856882,0.0
2185,1.5267854124507554,0.0
2186,-0.7586195048853677,0.0
2187,0.2609341956085957,0.0
2188,0.05622965783729808,0.0
2189,-0.050717140670182945,0.0
2190,0.08307423986709349,0.0
2191,0.006739392349352405,0.0
2192,-0.008537566070109255,0.0
2193,0.1633061396273253,0.0
2194,-0.002764063981516588,0.0
2195,-0.06621842443858716,0.0
2196,-0.008244174434128521,0.0
2197,-0.052605227265001574,0.0
2198,-0.1026509909477741,0.0
2199,0.02316036624161264,0.0
2200,0.37405161316198865,0.0
2201,3.8346237210534753,0.0
2202,6.646330082066721,0.0
2203,-0.8803187074098662,0.0
2204,-1.6786361389288817,0.0
2205,1.455505893802829,0.0
2206,-0.7729364897336601,0.0
2207,0.16046281199619394,0.0
2208,-0.030787248224180032,0.0
2209,-0.1106602248168447,0.0
2210,0.022607978394610016,0.0
2211,0.022621931738486582,0.0
2212,0.00826217118958469,0.0
2213,-0.10338330340320742,0.0
2214,-0.17570597589213757,0.0
2215,-0.1182594827783961,0.0
2216,-0.08052865418947514,0.0
2217,-0.008017994384086492,0.0
2218,-0.017717433735008142,0.0
2219,-0.010201670590902628,0.0
2220,0.24867332930681807,0.0
2221,3.815888063563088,0.0
2222,6.6505447388387005,0.0
2223,-0.9202673461342387,0.0
2224,-1.6570786291531747,0.0
2225,1.4611251730283077,0.0
2226,-0.8245216662159559,0.0
2227,0.10418598689138031,0.0
2228,-0.0872238865147015,0.0
2229,-0.12084988819393708,0.0
2230,-0.013678599200539602,0.0
2231,-0.06821206061928566,0.0
2232,-0.0633461763315033,0.0
2233,0.005070031681377141,0.0
2234,-0.124192957376364,0.0
2235,-0.026146045323020246,0.0
2236,-0.0070994502919723874,0.0
2237,-0.09922153135561912,0.0
2238,-0.05409529288513738,0.0
2239,-0.07519267562413143,0.0
2240,0.25728496477190754,0.0
2241,3.827031217485454,0.0
2242,6.645344143018687,0.0
2243,-0.891089048377858,0.0
2244,-1.6366485834526676,0.0
2245,1.382443068399181,0.0
2246,-0.8381193547347969,0.0
2247,0.1471450680760179,0.0
2248,0.005483762769767461,0.0
2249,-0.16401541132115693,0.0
2250,0.012261768017198457,0.0
2251,-0.06153265734514108,0.0
2252,-0.10518610714856332,0.0
2253,-0.07482072719119542,0.0
2254,0.006517342491332831,0.0
2255,-0.01440591338202317,0.0
2256,-0.03688235385457553,0.0
2257,-0.06434427363091279,0.0
2258,-0.0481777605446678,0.0
2259,-0.08311941013221502,0.0
2260,0.37323259443142226,0.0
2261,3.854306560260362,0.0
2262,6.632022413330545,0.0
2263,-0.9233090245001364,0.0
2264,-1.7141952119745714,0.0
2265,1.453505471897247,0.0
2266,-0.7791908960201491,0.0
2267,0.10595486088800246,0.0
2268,-0.07111829432585287,0.0
2269,-0.07663288694863318,0.0
2270,-0.00852183449158088,0.0
2271,-0.018848803004635838,0.0
2272,-0.033858043023924735,0.0
2273,-0.012673632831443002,0.0
2274,0.0006728706641661517,0.0
2275,-0.04161275067083796,0.0
2276,-0.017893883565922603,0.0
2277,-0.014941715336100767,0.0
2278,0.01576175300920795,0.0
2279,-0.04520351359858375,0.0
2280,0.307557670490781,0.0
2281,3.913666949421234,0.0
2282,6.677008752798842,0.0
2283,-0.9528964015855117,0.0
2284,-1.7229246982125455,0.0
2285,1.4518505617949635,0.0
2286,-0.8570904226505256,0.0
2287,0.20226159902031177,0.0
2288,-0.11631435773573606,0.0
2289,-0.066145382445681,0.0
2290,-0.02059679884128139,0.0
2291,-0.09213639133930049,0.0
2292,-0.11878804357080655,0.0
2293,-0.09223526990929479,0.0
2294,-0.06473643506473833,0.0
2295,-0.0529390220094188,0.0
2296,-0.10101697123494732,0.0
2297,-0.08474483438250471,0.0
2298,-0.05954444815409972,0.0
2299,-0.03646648608500977,0.0
2300,0.29257876059253457,0.0
2301,3.84778067954934,0.0
2302,6.604839760770395,0.0
2303,-0.8813180854625808,0.0
2304,-1.663425509004953,0.0
2305,1.5487741108976667,0.0
2306,-0.7548670244639605,0.0
2307,0.17436695223801235,0.0
2308,0.06489167107737405,0.0
2309,-0.06985166525649104,0.0
2310,-0.10501674831403926,0.0
2311,-0.08544866067299287,0.0
2312,-0.07965840890346862,0.0
2313,-0.09842633197193676,0.0
2314,-0.03445878506848876,0.0
2315,0.055782552396696675,0.0
2316,-0.08944679840366482,0.0
2317,-0.07191647846277299,0.0
2318,-0.19151720106701317,0.0
2319,-0.07857607547987233,0.0
2320,0.359783736013743,0.0
2321,3.8945979761246448,0.0
2322,6.64873280158665,0.0
2323,-0.8852585981668272,0.0
2324,-1.5799250202742674,0.0
2325,1.4141233106846631,0.0
2326,-0.8268361322065952,0.0
2327,0.10816075292003102,0.0
2328,0.001847300779254206,0.0
2329,-0.012593733771152082,0.0
2330,-0.028250115731189282,0.0
2331,-0.08148210368309658,0.0
2332,0.036446327028408346,0.0
2333,0.023386819689515382,0.0
2334,-0.03709840586652786,0.0
2335,-0.09466361422387246,0.0
2336,0.0049129974762247425,0.0
2337,-0.019824324223511065,0.0
2338,-0.018383624804757664,0.0
2339,-0.04432295369215821,0.0
2340,0.32909881531770013,0.0
2341,3.9229715018019866,0.0
2342,6.607412622904396,0.0
2343,-0.9882634354421193,0.0
2344,-1.616994955578575,0.0
2345,1.3920548911858608,0.0
2346,-0.7146519740199211,0.0
2347,0.11527261741202581,0.0
2348,0.017155675255602208,0.0
2349,-0.09093591314857727,0.0
2350,-0.014308030659641117,0.0
2351,-0.042861868198836944,0.0
2352,0.024735493769436363,0.0
2353,-0.06030076153794595,0.0
2354,-0.048321626839551546,0.0
2355,0.008374147201536564,0.0
2356,-0.05053915280087996,0.0
2357,-0.0297081306264183,0.0
2358,-0.10303467534020469,0.0
2359,-0.054725818432288784,0.0
2360,0.2565041681316685,0.0
2361,3.8341081187285524,0.0
2362,6.578505911212387,0.0
2363,-1.0433479689681115,0.0
2364,-1.675517478532125,0.0
2365,1.4185549267893316,0.0
2366,-0.8689491131759831,0.0
2367,0.1164259398464027,0.0
2368,-0.08062283333416759,0.0
2369,-0.07206597670595512,0.0
2370,0.033149899858681844,0.0
2371,0.07507358328507917,0.0
2372,-0.09263501492174839,0.0
2373,0.015715723864457427,0.0
2374,0.026639081179976883,0.0
2375,0.021510034400372247,0.0
2376,-0.036451351658869674,0.0
2377,-0.0016514274325750908,0.0
2378,0.07999350146906568,0.0
2379,-0.00897613398210189,0.0
2380,0.3791227230439708,0.0
2381,3.822948188996538,0.0
2382,6.654096105410318,0.0
2383,-0.8752781215705772,0.0
2384,-1.505170898260178,0.0
2385,1.4704326935662513,0.0
2386,-0.7671382823064361,0.0
2387,0.11400585555353686,0.0
2388,0.07210694818993056,0.0
2389,-0.0019172933494802664,0.0
2390,0.08843931936983121,0.0
2391,0.006035115646141731,0.0
2392,0.06287280882033008,0.0
2393,0.018760435060120376,0.0
2394,0.07198540360047419,0.0
2395,-0.02360682931838526,0.0
2396,0.03417191487820699,0.0
2397,-0.02648601136223726,0.0
2398,0.05239606891542767,0.0
2399,0.02850377999949591,0.0
2400,0.40925402614332224,0.0
2401,3.9946667915636125,0.0
2402,6.715819275453525,0.0
2403,-0.8570725935826355,0.0
2404,-1.5417402088601384,0.0
2405,1.4358114463172464,0.0
2406,-0.7696946517295966,0.0
2407,0.15831018811727313,0.0
2408,-0.029396263394464425,0.0
2409,0.04833422936292768,0.0
2410,-0.05292647538225599,0.0
2411,0.051083417833978864,0.0
2412,0.022647019897099926,0.0
2413,0.12273670806404419,0.0
2414,0.02631079328385316,0.0
2415,0.09841082587494901,0.0
2416,0.013016027062216787,0.0
2417,0.05290729950700855,0.0
2418,0.08004052664576226,0.0
2419,-0.006924633790756182,0.0
2420,0.3554133600047966,0.0
2421,3.9230857651298283,0.0
2422,6.759476159370252,0.0
2423,-0.8416269528911671,0.0
2424,-1.533076287512853,0.0
2425,1.4605027152964825,0.0
2426,-0.6626732214703893,0.0
2427,0.16587096958347636,0.0
2428,-0.04299730026750243,0.0
2429,-0.030465694303588864,0.0
2430,-0.01564876029745542,0.0
2431,0.06800245587660014,0.0
2432,0.10627608484595966,0.0
2433,-0.0898582626732071,0.0
2434,0.0153107947661964,0.0
2435,0.020830180763607053,0.0
2436,0.029016917681877627,0.0
2437,0.0821700774481641,0.0
2438,0.0006327306674011358,0.0
2439,0.033325950331804785,0.0
2440,0.3426000204126374,0.0
2441,3.9487033322952123,0.0
2442,6.734491515051345,0.0
2443,-0.8575024462451898,0.0
2444,-1.5735378612822506,0.0
2445,1.4596422510795433,0.0
2446,-0.8451092224519954,0.0
2447,0.26112355569934115,0.0
2448,0.09985416255159002,0.0
2449,0.009879267762753396,0.0
2450,-0.017522129940106795,0.0
2451,0.06520099393484645,0.0
2452,0.12593128664570427,0.0
2453,0.07618076891040021,0.0
2454,0.0700437804892359,0.0
2455,0.04237285655639418,0.0
2456,0.11705883221667357,0.0
2457,-0.04050265667318754,0.0
2458,0.05683510820909984,0.0
2459,0.06312429618578355,0.0
2460,0.4059916562063679,0.0
2461,4.034851635689624,0.0
2462,6.763090152067772,0.0
2463,-0.9318285704947529,0.0
2464,-1.6113681113537492,0.0
2465,1.4940473019912675,0.0
2466,-0.7449071359096595,0.0
2467,0.16718680634677116,0.0
2468,-0.04675820747934036,0.0
2469,0.01203073484041986,0.0
2470,-0.013845052989463473,0.0
2471,-0.00659777776447442,0.0
2472,-0.09217959599071171,0.0
2473,-0.110824467887578,0.0
2474,0.007619593171440547,0.0
2475,-0.05071906426514475,0.0
2476,0.01166936925465742,0.0
2477,0.05947797322363907,0.0
2478,-0.017105684580694124,0.0
2479,-0.019759960822565176,0.0
2480,0.3251302725107092,0.0
2481,3.9330143894540033,0.0
2482,6.728556469945287,0.0
2483,-0.8924244677483669,0.0
2484,-1.5282241199920596,0.0
2485,1.408279565688671,0.0
2486,-0.7166072453194626,0.0
2487,0.1753807893780402,0.0
2488,-0.0013512386122201108,0.0
2489,-0.050636395958118696,0.0
2490,0.031624796473411654,0.0
2491,-0.024824401927365236,0.0
2492,-0.028827859820840327,0.0
2493,0.0959680860154114,0.0
2494,-0.0622629100756043,0.0
2495,-0.06697143319538527,0.0
2496,-0.05451990079077594,0.0
2497,-0.0863450444857487,0.0
2498,-0.027364625763630596,0.0
2499,0.025241014626401145,0.0
2500,0.32572963021504936,0.0
2501,3.839671277003919,0.0
2502,6.626617208658503,0.0
2503,-0.9531411929169298,0.0
2504,-1.6051068588185513,0.0
2505,1.4476148446038284,0.0
2506,-0.8827392497246613,0.0
2507,0.17224823946813064,0.0
2508,-0.06373915895756048,0.0
2509,-0.11100516343812838,0.0
2510,-0.12772918676846207,0.0
2511,-0.100083635399945,0.0
2512,-0.11709433758146454,0.0
2513,-0.04845271950775266,0.0
2514,0.06382157787700596,0.0
2515,-0.10206435032815646,0.0
2516,-0.046047156029272,0.0
2517,-0.11895763977275185,0.0
2518,-0.07982585715972186,0.0
2519,-0.03281432888084146,0.0
2520,0.4222345712114341,0.0
2521,3.9229323929460467,0.0
2522,6.6251654755935485,0.0
2523,-0.9967916736725575,0.0
2524,-1.5602611587850295,0.0
2525,1.3426760431267009,0.0
2526,-0.8052001790243918,0.0
2527,0.09761632412472057,0.0
2528,-0.08059289047733718,0.0
2529,-0.04474819742984886,0.0
2530,-0.050215172122152416,0.0
2531,-0.07739712543604352,0.0
2532,-0.10818500640447005,0.0
2533,-0.055797957383815926,0.0
2534,-0.029228322868320368,0.0
2535,-0.16224473837595477,0.0
2536,-0.12365139016066358,0.0
2537,-0.10429819923644125,0.0
2538,-0.0656093108364171,0.0
2539,-0.15064602252021903,0.0
2540,0.3348667458527741,0.0
2541,3.868172545167975,0.0
2542,6.6947897159381204,0.0
2543,-1.0608564901491284,0.0
2544,-1.6289904609043195,0.0
2545,1.3417135940464555,0.0
2546,-0.792380946052077,0.0
2547,0.19285129154683817,0.0
2548,-0.06676179395991504,0.0
2549,-0.02450329849087529,0.0
2550,-0.04944814634903012,0.0
2551,-0.07707030100573123,0.0
2552,-0.11627424002473855,0.0
2553,0.00021289822215521392,0.0
2554,-0.00831710365920521,0.0
2555,-0.12628516328293501,0.0
2556,-0.027926352816494242,0.0
2557,-0.11300694709032227,0.0
2558,-0.13394604501100435,0.0
2559,-0.07139108483734026,0.0
2560,0.43904456042559303,0.0
2561,3.896615832330139,0.0
2562,6.537083600295365,0.0
2563,-1.0176438481863588,0.0
2564,-1.655838655886069,0.0
2565,1.3489609797933115,0.0
2566,-0.8908357400707201,0.0
2567,-0.044220933877624574,0.0
2568,-0.10231834711945346,0.0
2569,-0.12176026503929344,0.0
2570,-0.11883148306796536,0.0
2571,-0.15316161318995922,0.0
2572,-0.06118761973237227,0.0
2573,-0.12407135513166409,0.0
2574,-0.06642555307010153,0.0
2575,-0.1266006451973504,0.0
2576,-0.14486209468204977,0.0
2577,-0.09800181775168365,0.0
2578,-0.0300504346094108,0.0
2579,-0.10722973276991618,0.0
2580,0.3044327029794761,0.0
2581,3.869710209801997,0.0
2582,6.663820250460322,0.0
2583,-1.0331961627002977,0.0
2584,-1.524100567097624,0.0
2585,1.4013913309974304,0.0
2586,-0.8570288223565424,0.0
2587,0.08182503610333351,0.0
2588,-0.0862263640028807,0.0
2589,-0.06831605302552343,0.0
2590,-0.008408444262437448,0.0
2591,-0.11018444786317874,0.0
2592,-0.13323765986662406,0.0
2593,-0.13348622533976928,0.0
2594,-0.05613712546457371,0.0
2595,-0.1391369132842054,0.0
2596,-0.10546925972964077,0.0
2597,-0.041037416251315406,0.0
2598,-0.012385471724770628,0.0
2599,-0.08293914590930931,0.0
2600,0.25999246021301703,0.0
2601,3.7832328081553994,0.0
2602,6.542472126535907,0.0
2603,-1.0303206362217823,0.0
2604,-1.6795119076064007,0.0
2605,1.4376518855742193,0.0
2606,-0.9535275912974852,0.0
2607,0.0392265808047606,0.0
2608,-0.08687860087318171,0.0
2609,-0.08499060693041528,0.0
2610,-0.04953839956648776,0.0
2611,-0.11701221470242378,0.0
2612,-0.13250321349377753,0.0
2613,-0.054304363235809096,0.0
2614,0.0042411347861940965,0.0
2615,-0.0007369304067482568,0.0
2616,0.006732398152736033,0.0
2617,-0.07180492576268174,0.0
2618,0.022076246128931297,0.0
2619,-0.07023202790125263,0.0
2620,0.3560050587535062,0.0
2621,3.993985996916041,0.0
2622,6.601603983147473,0.0
2623,-0.9539633249673758,0.0
2624,-1.5405715023186908,0.0
2625,1.45164744739635,0.0
2626,-0.8187636447567871,0.0
2627,0.2305775650584511,0.0
2628,-0.024797993842878074,0.0
2629,-0.022760298720777977,0.0
2630,-0.04099198583724856,0.0
2631,-0.10843117069426661,0.0
2632,-0.09209632871168547,0.0
2633,0.011145227831523878,0.0
2634,-0.043792682382037484,0.0
2635,-0.07985367831316667,0.0
2636,-0.02023984266273164,0.0
2637,-0.08053727658208401,0.0
2638,0.03249127035122148,0.0
2639,-0.0580899886444656,0.0
2640,0.33628131401908756,0.0
2641,3.9440526334663875,0.0
2642,6.715115576084892,0.0
2643,-0.9793558944289301,0.0
2644,-1.612588670142148,0.0
2645,1.4164245006425582,0.0
2646,-0.7894647445512659,0.0
2647,0.20833486769031925,0.0
2648,-0.09754015479685138,0.0
2649,-0.1344422266367083,0.0
2650,-0.02005635240301865,0.0
2651,-0.05556459162664349,0.0
2652,-0.022001641476737895,0.0
2653,-0.07181494353175714,0.0
2654,0.02364841320834315,0.0
2655,-0.06825368722076253,0.0
2656,-0.009729452453097424,0.0
2657,-0.020679647805832934,0.0
2658,-0.011510621717142469,0.0
2659,0.00235787514691551,0.0
2660,0.3363836163080694,0.0
2661,3.867390402879957,0.0
2662,6.608146768003746,0.0
2663,-1.04979865059909,0.0
2664,-1.5765079678758802,0.0
2665,1.4070644049449057,0.0
2666,-0.8311891457130126,0.0
2667,0.21032042727817127,0.0
2668,-0.03474473602928729,0.0
2669,-0.02819817466131926,0.0
2670,0.0036808850231917524,0.0
2671,-0.029627087076988863,0.0
2672,-0.0015140962701071575,0.0
2673,0.07664662514711383,0.0
2674,-0.006017990829299053,0.0
2675,-0.02400507142294668,0.0
2676,-0.051545432304540645,0.0
2677,-0.05284847489697647,0.0
2678,0.0502523655665949,0.0
2679,-0.02780687298252163,0.0
2680,0.4200070400972393,0.0
2681,3.988399349974245,0.0
2682,6.599542372261482,0.0
2683,-0.9721634150927858,0.0
2684,-1.5815738823520116,0.0
2685,1.3859046228616623,0.0
2686,-0.6846950922317158,0.0
2687,0.10605274254735769,0.0
2688,0.0552858553674914,0.0
2689,-0.018691719262532967,0.0
2690,0.02541206518416078,0.0
2691,-0.05856666261229088,0.0
2692,0.09628820462782034,0.0
2693,0.03652292080769974,0.0
2694,0.05537935589908773,0.0
2695,0.13074322325728505,0.0
2696,0.04000320859919062,0.0
2697,0.08966372111112579,0.0
2698,-0.03379989998741319,0.0
2699,0.0348235718862302,0.0
2700,0.37799926175154874,0.0
2701,3.9701563396763717,0.0
2702,6.661587152149581,0.0
2703,-1.06686512980989,0.0
2704,-1.5952689475017507,0.0
2705,1.4229455925228252,0.0
2706,-0.8092630962725932,0.0
2707,0.18480295219853587,0.0
2708,-0.05531026108447542,0.0
2709,-0.059953114909451086,0.0
2710,-0.04329280458930723,0.0
2711,0.07389234961950426,0.0
2712,0.13589518222846242,0.0
2713,-0.04068059984000286,0.0
2714,0.03332203699030268,0.0
2715,0.08896663830228332,0.0
2716,0.12926135887277715,0.0
2717,-0.03468137950434785,0.0
2718,0.0009356557283545959,0.0
2719,0.04634679721165902,0.0
2720,0.4177198454378193,0.0
2721,4.088768581051786,0.0
2722,6.668651235106063,0.0
2723,-0.9480531331025612,0.0
2724,-1.5438142563034558,0.0
2725,1.4887525906429695,0.0
2726,-0.7986411676487692,0.0
2727,0.1935767278146812,0.0
2728,0.010372150633496242,0.0
2729,-0.08111479013752526,0.0
2730,0.07128955156706412,0.0
2731,-0.01642004029179736,0.0
2732,0.05012895555993235,0.0
2733,0.11254473673810342,0.0
2734,-0.053989373116182696,0.0
2735,0.06587135339675868,0.0
2736,-0.054751764364042804,0.0
2737,0.061085818288018026,0.0
2738,0.08581715529450294,0.0
2739,-0.09413944935601552,0.0
2740,0.5253337869016714,0.0
2741,4.118563812613528,0.0
2742,6.787602150682297,0.0
2743,-1.0343671053786665,0.0
2744,-1.4653491173978306,0.0
2745,1.5071622401782576,0.0
2746,-0.7771908251601107,0.0
2747,0.12210550912891573,0.0
2748,-0.012173054481700692,0.0
2749,-0.08161513117737862,0.0
2750,-0.07811132851942337,0.0
2751,0.04747378673162248,0.0
2752,0.09165995797987493,0.0
2753,0.0034328739568412515,0.0
2754,0.08178326060793106,0.0
2755,0.03201973381260713,0.0
2756,0.009021601443510517,0.0
2757,-0.014220941996124177,0.0
2758,-0.04866971667493372,0.0
2759,0.03000965688198843,0.0
2760,0.4001509737028889,0.0
2761,3.965486785719069,0.0
2762,6.611350148346634,0.0
2763,-1.0216825217542278,0.0
2764,-1.5288625801206974,0.0
2765,1.495507009637894,0.0
2766,-0.8077373581258724,0.0
2767,0.1466464360496494,0.0
2768,0.049675630047040946,0.0
2769,-0.048928684078460634,0.0
2770,-0.01614557060058172,0.0
2771,-0.0043947061383255055,0.0
2772,-0.031986335101659706,0.0
2773,-0.0006212007316096812,0.0
2774,0.006771411916565344,0.0
2775,-0.06150976114670731,0.0
2776,0.02390771920663462,0.0
2777,-0.058932841791858634,0.0
2778,0.0984435122528568,0.0
2779,0.057833714721285616,0.0
2780,0.4288942054811454,0.0
2781,4.019595048644749,0.0
2782,6.599654776233044,0.0
2783,-1.0139936086410366,0.0
2784,-1.5349159338377978,0.0
2785,1.5194396054378323,0.0
2786,-0.7518900717858524,0.0
2787,0.1568656523931726,0.0
2788,0.07763603354671869,0.0
2789,-0.09205432249607529,0.0
2790,0.027877326634160413,0.0
2791,0.030184353819259584,0.0
2792,-0.006199431032888503,0.0
2793,0.06773039205363057,0.0
2794,-0.04790053589884299,0.0
2795,-0.05597133872558745,0.0
2796,-0.05335842306108051,0.0
2797,0.041866313337567476,0.0
2798,0.04364301223557754,0.0
2799,0.09734370819017979,0.0
2800,0.4213909736536551,0.0
2801,4.017293730181385,0.0
2802,6.592764363639727,0.0
2803,-1.0439266354409298,0.0
2804,-1.490623227607137,0.0
2805,1.42387109854618,0.0
2806,-0.764461078138629,0.0
2807,0.21369553275669437,0.0
2808,0.023344300947623034,0.0
2809,-0.13233889247088734,0.0
2810,0.03568150024444117,0.0
2811,0.05713113239266411,0.0
2812,-0.005948204824169738,0.0
2813,0.0794565685971458,0.0
2814,0.06192657249015987,0.0
2815,0.035351007884973674,0.0
2816,0.005389022117053534,0.0
2817,-0.09210626664364757,0.0
2818,0.032956770627035184,0.0
2819,-0.0497191519939336,0.0
2820,0.40328317407900327,0.0
2821,4.112121468358984,0.0
2822,6.696869461577972,0.0
2823,-0.9900835126005146,0.0
2824,-1.5066174759057034,0.0
2825,1.3480893918741288,0.0
2826,-0.8948706731714979,0.0
2827,0.2709626992898898,0.0
2828,0.0151493282559616,0.0
2829,0.031442672620821455,0.0
2830,0.017921695468128294,0.0
2831,-0.002477055440495938,0.0
2832,-0.06699663757303811,0.0
2833,0.07571761670979389,0.0
2834,0.08507269090661773,0.0
2835,-0.025581070478790022,0.0
2836,0.00821640226834568,0.0
2837,0.06023063774378284,0.0
2838,-0.03699291759773349,0.0
2839,0.02723481219128629,0.0
2840,0.41089716268182574,0.0
2841,3.9828623929602176,0.0
2842,6.607296093692171,0.0
2843,-1.1141287021303137,0.0
2844,-1.5220328449497404,0.0
2845,1.3697677023028598,0.0
2846,-0.803483725905753,0.0
2847,0.2331804767906066,0.0
2848,0.0164013838091251,0.0
2849,0.0575534097060647,0.0
2850,0.027816002304776724,0.0
2851,-0.014031063696984147,0.0
2852,-0.01923779984204648,0.0
2853,-0.06102370654158959,0.0
2854,-0.039283303650778804,0.0
2855,-0.004942981655601508,0.0
2856,0.07171077034641564,0.0
2857,-0.08951557701994464,0.0
2858,-0.09241698246182012,0.0
2859,-0.05453061061615228,0.0
2860,0.34965764081179485,0.0
2861,4.056230246240377,0.0
2862,6.587405401664679,0.0
2863,-1.0810097934446843,0.0
2864,-1.5656051796808403,0.0
2865,1.3462873015765948,0.0
2866,-0.8548467671864388,0.0
2867,0.15850543024703595,0.0
2868,-0.11792655582627182,0.0
2869,-0.011323580161865424,0.0
2870,-0.029330483148124045,0.0
2871,-0.07410991797073034,0.0
2872,-0.10634842247650839,0.0
2873,0.07082337815913424,0.0
2874,0.018316524138379097,0.0
2875,-0.014056522381719203,0.0
2876,-0.06550947744379206,0.0
2877,0.029292417199108668,0.0
2878,0.03175491377550459,0.0
2879,-0.03432170345232941,0.0
2880,0.41124618663734747,0.0
2881,3.945268429163879,0.0
2882,6.6874756517462615,0.0
2883,-1.1044724887909652,0.0
2884,-1.4860729561963186,0.0
2885,1.51375248714965,0.0
2886,-0.7264437584184513,0.0
2887,0.2822406082075864,0.0
2888,-0.059457816921369366,0.0
2889,-0.03508047520140091,0.0
2890,0.04157924228016363,0.0
2891,-0.06074090190322397,0.0
2892,-0.008890664270451747,0.0
2893,0.06144273204961506,0.0
2894,0.05912682758517424,0.0
2895,0.0347393092962759,0.0
2896,-0.013760827880991075,0.0
2897,0.07618308256511111,0.0
2898,0.006709315036260245,0.0
2899,0.04169887639484144,0.0
2900,0.43345074405738926,0.0
2901,4.053684542775905,0.0
2902,6.683787988439714,0.0
2903,-0.9847658003722837,0.0
2904,-1.3887136048375026,0.0
2905,1.5307081590203466,0.0
2906,-0.7772993426689946,0.0
2907,0.21000934816276612,0.0
2908,0.048757353695096206,0.0
2909,0.050116059592042815,0.0
2910,0.03155096657868134,0.0
2911,0.07986313837660397,0.0
2912,0.058658480092766585,0.0
2913,0.10352231084058147,0.0
2914,0.09189734649630642,0.0
2915,0.04147451719567247,0.0
2916,-0.0112683341753727,0.0
2917,0.006684087683232618,0.0
2918,0.014246182304084568,0.0
2919,0.0009534491222604122,0.0
2920,0.3208204166003676,0.0
2921,3.968756392042277,0.0
2922,6.509107679302685,0.0
2923,-1.1178198860473267,0.0
2924,-1.4973441135002503,0.0
2925,1.3748210387482738,0.0
2926,-0.8562994798224056,0.0
2927,0.22867561835069022,0.0
2928,-0.018523360602382855,0.0
2929,-0.0591473231499105,0.0
2930,0.006432783007204665,0.0
2931,0.00767553167598139,0.0
2932,-0.0031602321291672193,0.0
2933,-0.09983013202526858,0.0
2934,0.03586609698457048,0.0
2935,-0.07254958534135225,0.0
2936,0.029099560050521764,0.0
2937,0.10222748790810618,0.0
2938,0.0013356253760618943,0.0
2939,-0.03845529104532569,0.0
2940,0.3904165842830237,0.0
2941,4.037834832579337,0.0
2942,6.649487741160646,0.0
2943,-1.0392145713525736,0.0
2944,-1.4853083047124858,0.0
2945,1.4511852939498537,0.0
2946,-0.775828999032831,0.0
2947,0.22600131403492893,0.0
2948,-0.04970913529496607,0.0
2949,-0.12401354136798222,0.0
2950,0.07279477278801028,0.0
2951,-0.06945775004374496,0.0
2952,0.07502104480571517,0.0
2953,0.043598266751045306,0.0
2954,-0.05324796954839549,0.0
2955,-0.06370373685501857,0.0
2956,-0.051035892772309834,0.0
2957,-0.06518842561934836,0.0
2958,0.10098984665083179,0.0
2959,-0.029694977313951182,0.0
2960,0.3858230761659484,0.0
2961,3.9518310484459467,0.0
2962,6.5772558692150325,0.0
2963,-1.116690872021816,0.0
2964,-1.441069043146436,0.0
2965,1.4424229709639818,0.0
2966,-0.7790836570703006,0.0
2967,0.1876385881491329,0.0
2968,-0.007761376462956836,0.0
2969,-0.0342559828822631,0.0
2970,-0.03680528571966611,0.0
2971,0.043318897463469945,0.0
2972,0.04067756619467968,0.0
2973,0.05898621822518188,0.0
2974,0.05781682733454926,0.0
2975,0.03668456189316238,0.0
2976,-0.0858967413862412,0.0
2977,0.06091769603357762,0.0
2978,0.018681685663046742,0.0
2979,0.025585877972524245,0.0
2980,0.357944435094972,0.0
2981,4.051583704639843,0.0
2982,6.5985141143283395,0.0
2983,-1.135509064315559,0.0
2984,-1.4722032635421707,0.0
2985,1.4873617135650736,0.0
2986,-0.8151840160167706,0.0
2987,0.16949046012376262,0.0
2988,-0.0891940744143733,0.0
2989,-0.14554549448232781,0.0
2990,-0.031551068535233706,0.0
2991,-0.021874134277788504,0.0
2992,0.029505528002429837,0.0
2993,-0.11030226054031923,0.0
2994,-0.11781110709558204,0.0
2995,-0.03204739425468174,0.0
2996,-0.11759436491100966,0.0
2997,-0.11452149235318904,0.0
2998,-0.06552269100546168,0.0
2999,-0.106667838864216,0.0
3000,0.40435783820323734,0.0
3001,3.9639937493711286,0.0
3002,6.5105839976989435,0.0
3003,-1.1893409632276233,0.0
3004,-1.550867555098289,0.0
3005,1.325158107237133,0.0
3006,-0.8449258999133642,0.0
3007,0.13019415629718856,0.0
3008,-0.034379533480705465,0.0
3009,-0.021142733731760052,0.0
3010,-0.045245012773900785,0.0
3011,0.027867633473259906,0.0
3012,-0.040089722537895896,0.0
3013,-0.10770026257191195,0.0
3014,-0.01879409997049689,0.0
3015,0.01853751012242788,0.0
3016,-0.052527041294991236,0.0
3017,-0.08203113640945978,0.0
3018,-0.05223728327926001,0.0
3019,0.071973517837666,0.0
3020,0.3489844275088471,0.0
3021,4.0548869535738365,0.0
3022,6.6152235800380845,0.0
3023,-1.1506014675610365,0.0
3024,-1.5005651746735402,0.0
3025,1.441453178773061,0.0
3026,-0.9015857452111462,0.0
3027,0.22359114310768596,0.0
3028,-0.05970162483027215,0.0
3029,-0.111621096528708,0.0
3030,-0.054577784505997214,0.0
3031,-0.05692514749292241,0.0
3032,-0.048161626782917355,0.0
3033,0.03621300880224105,0.0
3034,-0.004351285919002641,0.0
3035,-0.1240425914547513,0.0
3036,-0.060293902168873904,0.0
3037,-0.06384310521484593,0.0
3038,-0.06894820404952137,0.0
3039,-0.06301848125335019,0.0
3040,0.40173241318372765,0.0
3041,4.008475210863761,0.0
3042,6.500120540535523,0.0
3043,-1.0828921459175234,0.0
3044,-1.3727674473587481,0.0
3045,1.4227222493581688,0.0
3046,-0.8735090428957694,0.0
3047,0.15111636618357394,0.0
3048,-0.09062457577097162,0.0
3049,-0.07363135372316348,0.0
3050,0.010374733115910351,0.0
3051,-0.08053309312602808,0.0
3052,-0.05337031729653019,0.0
3053,-0.06152168887787282,0.0
3054,-0.0572101349453302,0.0
3055,-0.1252321992856924,0.0
3056,-0.011524736049622016,0.0
3057,-0.045703612312799825,0.0
3058,-0.04695042778385586,0.0
3059,0.02573967111363734,0.0
3060,0.3768195676088448,0.0
3061,3.901889861205064,0.0
3062,6.659636030897185,0.0
3063,-1.1163969695799987,0.0
3064,-1.5561373991462892,0.0
3065,1.2964546685326026,0.0
3066,-0.809291623717258,0.0
3067,0.12272127622576191,0.0
3068,-0.0236283693182398,0.0
3069,-0.15013108292872826,0.0
3070,-0.05352383743510771,0.0
3071,-0.11512705875821788,0.0
3072,-0.08934426776952809,0.0
3073,-0.048668025192053,0.0
3074,-0.07158036079456455,0.0
3075,-0.09104836284488232,0.0
3076,-0.11821126612300188,0.0
3077,-0.014051173235695935,0.0
3078,-0.08037283133516786,0.0
3079,-0.05531208678758779,0.0
3080,0.3515587217974245,0.0
3081,3.9536002024187202,0.0
3082,6.514257249720582,0.0
3083,-1.1732402515410185,0.0
3084,-1.4527225288620043,0.0
3085,1.3969707383042702,0.0
3086,-0.8312835384700255,0.0
3087,0.1083540622845701,0.0
3088,-0.12112956172513392,0.0
3089,-0.09171770277459283,0.0
3090,-0.03902493782849338,0.0
3091,-0.033189789240738565,0.0
3092,0.02679587443477205,0.0
3093,-0.054774807882735574,0.0
3094,-0.15012431459646425,0.0
3095,-0.07484845790214395,0.0
3096,-0.13505983835850993,0.0
3097,-0.05902914049353724,0.0
3098,-0.019266433945672262,0.0
3099,-0.10052638395546572,0.0
3100,0.3609446818129125,0.0
3101,4.017718267605644,0.0
3102,6.6216697786548995,0.0
3103,-1.0064044404612689,0.0
3104,-1.5235210735469777,0.0
3105,1.3913021107342605,0.0
3106,-0.8464246835871909,0.0
3107,0.18014555386379844,0.0
3108,-0.1461678715033996,0.0
3109,-0.11746679117913594,0.0
3110,0.06406385683622853,0.0
3111,-0.06308407571974474,0.0
3112,-0.019092772494616037,0.0
3113,-0.023314330773722407,0.0
3114,-0.08021932154595496,0.0
3115,-0.11969028311761623,0.0
3116,-0.09727139912449714,0.0
3117,-0.1225373862816902,0.0
3118,-0.013557243096727907,0.0
3119,-0.051195576361913187,0.0
3120,0.37077406215975556,0.0
3121,3.9890242222068055,0.0
3122,6.532818081279522,0.0
3123,-1.160866890173835,0.0
3124,-1.5271988767967715,0.0
3125,1.3766118601300952,0.0
3126,-0.8288300948269179,0.0
3127,0.1818076331902296,0.0
3128,-0.10307018509647478,0.0
3129,0.0035433713529532188,0.0
3130,-0.05670725856210525,0.0
3131,0.029013024520094105,0.0
3132,0.01402767432315271,0.0
3133,-0.06456400088983164,0.0
3134,0.026647198853180044,0.0
3135,-0.0300503151625325,0.0
3136,-0.062460682638680085,0.0
3137,0.01321812153153848,0.0
3138,-0.027614355543306712,0.0
3139,-0.027153040848173233,0.0
3140,0.47964950472546536,0.0
3141,3.9743277556900907,0.0
3142,6.635173285269973,0.0
3143,-1.0493656061493601,0.0
3144,-1.3751158736198132,0.0
3145,1.407351853193304,0.0
3146,-0.8381958289595312,0.0
3147,0.22966872747025563,0.0
3148,-0.13362674834906302,0.0
3149,-0.009920437771041103,0.0
3150,-0.08443141461883008,0.0
3151,-0.03981575028214077,0.0
3152,-0.0032669574015967325,0.0
3153,-0.021077429043722912,0.0
3154,0.044262493381257054,0.0
3155,-0.03270508014819189,0.0
3156,-0.07006261218009742,0.0
3157,-0.05716215832037765,0.0
3158,0.003922806302527483,0.0
3159,0.048630469372648824,0.0
3160,0.3226958781939264,0.0
3161,4.050819297705044,0.0
3162,6.630796368507509,0.0
3163,-1.1388555985046713,0.0
3164,-1.4579320641958973,0.0
3165,1.2546814356154476,0.0
3166,-0.8633573141254343,0.0
3167,0.2544783142212634,0.0
3168,-0.03344109146579057,0.0
3169,-0.005548700825271702,0.0
3170,0.010253729138663646,0.0
3171,-0.13138205027277744,0.0
3172,0.013637779972695899,0.0
3173,-0.05358513088285366,0.0
3174,-0.14650647376009296,0.0
3175,-0.0008994600030386088,0.0
3176,-0.11025879290100221,0.0
3177,-0.0304155712920882,0.0
3178,-0.06533582629642688,0.0
3179,0.009404657453022984,0.0
3180,0.4010901285764449,0.0
3181,4.059952790594485,0.0
3182,6.617700494566604,0.0
3183,-1.128278916554167,0.0
3184,-1.4032834180295992,0.0
3185,1.449011999886228,0.0
3186,-0.7932436012714618,0.0
3187,0.19918168596885563,0.0
3188,-0.03703185633970587,0.0
3189,-0.06644552358423503,0.0
3190,-0.09834716470427513,0.0
3191,-0.06817061137981927,0.0
3192,0.019583604995624403,0.0
3193,-0.06634916764731677,0.0
3194,-0.027055439573137302,0.0
3195,-6.6018744589353e-05,0.0
3196,-0.03657747961271253,0.0
3197,-0.016981014596344025,0.0
3198,-0.03282302006482517,0.0
3199,-0.0240635505079918,0.0
3200,0.46022233613591357,0.0
3201,4.059171557095108,0.0
3202,6.574909619897079,0.0
3203,-1.1282946033702668,0.0
3204,-1.447816664418517,0.0
3205,1.353607946631897,0.0
3206,-0.8375548338153591,0.0
3207,0.17129184529320893,0.0
3208,-0.010972422442383731,0.0
3209,-0.061129438390108704,0.0
3210,-0.02741480095346908,0.0
3211,0.06380606092490969,0.0
3212,0.057717152143229596,0.0
3213,0.004981625751547641,0.0
3214,-0.051712164952017296,0.0
3215,0.04110649245008986,0.0
3216,-0.041021072970592216,0.0
3217,-0.10448561867480148,0.0
3218,-0.0418042103150287,0.0
3219,-0.010768362896109995,0.0
3220,0.41363574627141664,0.0
3221,3.9686220723519914,0.0
3222,6.560991038538029,0.0
3223,-1.2103574823933543,0.0
3224,-1.5240519586159278,0.0
3225,1.4171989913315393,0.0
3226,-0.748866640613063,0.0
3227,0.11649618721429084,0.0
3228,-0.0677063957276038,0.0
3229,-0.002745480495097853,0.0
3230,-0.08535988008854055,0.0
3231,-0.11939759069577627,0.0
3232,-0.026397005934043625,0.0
3233,0.03314616999458712,0.0
3234,-0.027661100407791173,0.0
3235,0.04297632347773377,0.0
3236,0.08279390797726567,0.0
3237,0.04851782498501989,0.0
3238,-0.010376113633075407,0.0
3239,0.09730674426164214,0.0
3240,0.3098831019426051,0.0
3241,4.121827290572278,0.0
3242,6.658689876976948,0.0
3243,-1.1914709328034105,0.0
3244,-1.3612552297481415,0.0
3245,1.3730247822695203,0.0
3246,-0.834245182167479,0.0
3247,0.17396340434249535,0.0
3248,-0.11222620008564213,0.0
3249,-0.1560869424988089,0.0
3250,-0.05959852661089575,0.0
3251,-0.10597198740635352,0.0
3252,0.0366145834601598,0.0
3253,-0.18055524480765617,0.0
3254,-0.02690668428258576,0.0
3255,-0.05578117134392446,0.0
3256,0.04843452120922611,0.0
3257,-0.0008959941055619314,0.0
3258,0.05360107213593635,0.0
3259,-0.08602892026986515,0.0
3260,0.30656700876771914,0.0
3261,4.060297793458948,0.0
3262,6.531058286584126,0.0
3263,-1.071644993586847,0.0
3264,-1.477012488192182,0.0
3265,1.3386415895115418,0.0
3266,-0.855556423423226,0.0
3267,0.06717845527825482,0.0
3268,-0.08467058033569812,0.0
3269,-0.03446771243597482,0.0
3270,-0.027185084911915236,0.0
3271,-0.11857456103066352,0.0
3272,-0.12027500828131582,0.0
3273,0.09798335206007565,0.0
3274,-0.038532414211991314,0.0
3275,-0.07481531167152758,0.0
3276,-0.07833849364630835,0.0
3277,-0.092347765253108,0.0
3278,-0.09105947734133868,0.0
3279,-0.07431193157155905,0.0
3280,0.44168930010978147,0.0
3281,4.037129601158385,0.0
3282,6.5502822088509,0.0
3283,-1.2181932008459495,0.0
3284,-1.4784870681711737,0.0
3285,1.3814516168598117,0.0
3286,-0.8458925173821241,0.0
3287,0.2216697034521442,0.0
3288,-0.001241830717774832,0.0
3289,-0.05002097525141652,0.0
3290,-0.02763078926705055,0.0
3291,-0.048319043539176716,0.0
3292,-0.05445838699733585,0.0
3293,-0.05529639437940539,0.0
3294,0.008857781748654224,0.0
3295,-0.10689168295165093,0.0
3296,-0.08628608906994348,0.0
3297,-0.02422257635835976,0.0
3298,0.01472351247191283,0.0
3299,-0.16654504811249218,0.0
3300,0.3412498526133094,0.0
3301,4.022222629154905,0.0
3302,6.559048833859508,0.0
3303,-1.1605073274494373,0.0
3304,-1.425313023159911,0.0
3305,1.2658005420873235,0.0
3306,-0.8186422982455266,0.0
3307,0.2186784887117618,0.0
3308,-0.08142965446129621,0.0
3309,-0.04214374060101764,0.0
3310,-0.04647979658695835,0.0
3311,-0.06393278654936295,0.0
3312,-0.13460700269470655,0.0
3313,0.00608275255001136,0.0
3314,-0.07904182206427543,0.0
3315,-0.03175098175603102,0.0
3316,-0.14790575800866973,0.0
3317,-0.016051725942013165,0.0
3318,-0.09483418095314526,0.0
3319,-0.07382516050418551,0.0
3320,0.3637286878812191,0.0
3321,4.0235131445952375,0.0
3322,6.4547011216495305,0.0
3323,-1.2421810706416345,0.0
3324,-1.5150507751448665,0.0
3325,1.4306939792400233,0.0
3326,-0.9283394814243584,0.0
3327,0.19010811295947272,0.0
3328,-0.09761731886052998,0.0
3329,-0.06961905670862639,0.0
3330,-0.10904623000924088,0.0
3331,-0.05975027418555136,0.0
3332,-0.040287010002450954,0.0
3333,-0.07834814778735921,0.0
3334,0.0748504877884104,0.0
3335,-0.04230715639466316,0.0
3336,-0.17619571218303426,0.0
3337,-0.1240455226861405,0.0
3338,-0.10437133650827217,0.0
3339,-0.08345992107226495,0.0
3340,0.3148411180950675,0.0
3341,4.019235920871854,0.0
3342,6.436697289296887,0.0
3343,-1.2840576556291101,0.0
3344,-1.3864431318205486,0.0
3345,1.3730641559095143,0.0
3346,-0.8214672611167709,0.0
3347,0.10173124379101915,0.0
3348,-0.044121135300949764,0.0
3349,0.00658845472586192,0.0
3350,-0.023497397493591782,0.0
3351,-0.0364179416934501,0.0
3352,0.05490602276021498,0.0
3353,-0.06386544491992521,0.0
3354,-0.03782592590993127,0.0
3355,-0.008555781886539948,0.0
3356,-0.1261275065208373,0.0
3357,-0.044990119814063784,0.0
3358,-0.11168728454744292,0.0
3359,-0.002288154527472913,0.0
3360,0.4118584392848491,0.0
3361,4.128775351777098,0.0
3362,6.5026425754475214,0.0
3363,-1.207031082298946,0.0
3364,-1.4307956776958608,0.0
3365,1.312663815014081,0.0
3366,-0.8373279085440832,0.0
3367,0.06885357440431986,0.0
3368,-0.04740201955081157,0.0
3369,-0.1502832858588196,0.0
3370,0.07093677199041998,0.0
3371,-0.10410308163418444,0.0
3372,-0.13138023335969745,0.0
3373,0.06825128430679576,0.0
3374,-0.10472581265803818,0.0
3375,-0.08046120482738962,0.0
3376,-0.09819093438007434,0.0
3377,-0.02519940967158026,0.0
3378,-0.07717023789732971,0.0
3379,-0.007595242778141567,0.0
3380,0.31673639593953107,0.0
3381,4.145168126614265,0.0
3382,6.492349384665107,0.0
3383,-1.173394826276162,0.0
3384,-1.501431925297567,0.0
3385,1.3981869190753435,0.0
3386,-0.835368163653111,0.0
3387,0.04594545142321857,0.0
3388,-0.013178858064047116,0.0
3389,-0.012359390010477235,0.0
3390,-0.05130506812544326,0.0
3391,0.009260241404518345,0.0
3392,0.057520816342830156,0.0
3393,-0.09346585038268389,0.0
3394,-0.002962654878355512,0.0
3395,0.044396010149452395,0.0
3396,-0.021302245753395843,0.0
3397,-0.03331673015004891,0.0
3398,-0.06367898440421496,0.0
3399,0.021611923874420458,0.0
3400,0.3252829938787978,0.0
3401,4.127982328360303,0.0
3402,6.438770504009302,0.0
3403,-1.2543339030308216,0.0
3404,-1.4023650538963055,0.0
3405,1.2755071117186765,0.0
3406,-0.8744489530704175,0.0
3407,0.21485564066950183,0.0
3408,-0.056446012993498114,0.0
3409,-0.09534895403645334,0.0
3410,-0.0406390313899562,0.0
3411,-0.03748080113312654,0.0
3412,0.00015758244218601683,0.0
3413,0.075192224580659,0.0
3414,-0.134895296049234,0.0
3415,0.020747239363240643,0.0
3416,0.01620975725707796,0.0
3417,-0.05580463602803239,0.0
3418,0.022589040806212726,0.0
3419,0.017144490963131174,0.0
3420,0.3887087280683183,0.0
3421,4.092355005072368,0.0
3422,6.561028579236567,0.0
3423,-1.1840604428754593,0.0
3424,-1.3531485793521771,0.0
3425,1.537291207070718,0.0
3426,-0.7687073821401995,0.0
3427,0.23513490302649942,0.0
3428,0.07057551817887192,0.0
3429,-0.03652207619056354,0.0
3430,0.08040029323812042,0.0
3431,0.09235174147344169,0.0
3432,0.02416633904890737,0.0
3433,0.008944869276498471,0.0
3434,0.047138494678360836,0.0
3435,0.06254503908339047,0.0
3436,-0.06199062932083163,0.0
3437,-0.008762021890961643,0.0
3438,-0.0055449507276945035,0.0
3439,-0.052309358292426354,0.0
3440,0.3956993723422247,0.0
3441,4.0380631448763555,0.0
3442,6.422888033587401,0.0
3443,-1.1436190870034908,0.0
3444,-1.502122681311493,0.0
3445,1.4000109741568805,0.0
3446,-0.8508492656786606,0.0
3447,0.1266461751983346,0.0
3448,-0.1306362390448731,0.0
3449,-0.05611881924206767,0.0
3450,-0.03901834271646932,0.0
3451,-0.09755834792535878,0.0
3452,-0.01781453286024432,0.0
3453,0.06077523078907629,0.0
3454,-0.005037546855219223,0.0
3455,-0.01438798361136243,0.0
3456,0.10035350750860829,0.0
3457,-0.032874033579007506,0.0
3458,0.008854510258300575,0.0
3459,0.1064850135031644,0.0
3460,0.4515680189907757,0.0
3461,4.076993598341044,0.0
3462,6.441338433958263,0.0
3463,-1.1771095450270608,0.0
3464,-1.333358983362627,0.0
3465,1.426334874810646,0.0
3466,-0.7577997738323016,0.0
3467,0.26480790529198744,0.0
3468,0.007169530752147515,0.0
3469,0.003258001526373573,0.0
3470,-0.023423665811302712,0.0
3471,0.030017474793047505,0.0
3472,0.04044358376921441,0.0
3473,-0.02592650635674494,0.0
3474,-0.013406788112980694,0.0
3475,-0.061950479575579524,0.0
3476,-0.021706715944936197,0.0
3477,-0.015406544280685339,0.0
3478,-0.02501157753689255,0.0
3479,0.02523536331664339,0.0
3480,0.3847536459682503,0.0
3481,4.090471846559664,0.0
3482,6.585577341161706,0.0
3483,-1.195041861272691,0.0
3484,-1.375999062135196,0.0
3485,1.4072567631891124,0.0
3486,-0.8369821290129794,0.0
3487,0.21585212926413838,0.0
3488,-0.07573797408833255,0.0
3489,-0.1442002574544917,0.0
3490,0.030727449652997153,0.0
3491,0.038720321678682716,0.0
3492,-0.1056515430779309,0.0
3493,-0.09176970064101471,0.0
3494,0.023342363826631424,0.0
3495,0.07020547315092306,0.0
3496,0.05031988738046174,0.0
3497,0.015809548962766335,0.0
3498,0.03079878719657042,0.0
3499,0.026356603371770468,0.0
3500,0.4583677521388959,0.0
3501,4.16387845953539,0.0
3502,6.563942154139789,0.0
3503,-1.134869723549591,0.0
3504,-1.3612139242534889,0.0
3505,1.4110498056544638,0.0
3506,-0.7746753499748663,0.0
3507,0.18301058896700778,0.0
3508,-0.06796972451663795,0.0
3509,-0.07399263158083647,0.0
3510,-0.00023833905308421818,0.0
3511,-0.05079737996624892,0.0
3512,0.01731299578423104,0.0
3513,-0.06238751773210332,0.0
3514,-0.013296344221082668,0.0
3515,-0.08889592244775449,0.0
3516,-0.07393925976637693,0.0
3517,-0.08460271518235524,0.0
3518,-0.15245150123838896,0.0
3519,-0.07716752540334261,0.0
3520,0.3700617567938677,0.0
3521,4.177263983024627,0.0
3522,6.474531299800577,0.0
3523,-1.2270064608760631,0.0
3524,-1.3936136591574626,0.0
3525,1.3007431097332813,0.0
3526,-0.8949545473046101,0.0
3527,0.09977393926435447,0.0
3528,-0.10243214396970134,0.0
3529,-0.1493343758383679,0.0
3530,-0.08303705511069452,0.0
3531,-0.1408838778418584,0.0
3532,-0.14119358477436406,0.0
3533,-0.030885452297871194,0.0
3534,-0.11613638177330321,0.0
3535,-0.11814020789416521,0.0
3536,-0.14838407225040676,0.0
3537,0.012010824527490277,0.0
3538,-0.036030016189092275,0.0
3539,-0.06051729643438547,0.0
3540,0.2746414050818177,0.0
3541,4.1248675712129295,0.0
3542,6.479146978618879,0.0
3543,-1.3002620563181075,0.0
3544,-1.4852913823148022,0.0
3545,1.2920506540310397,0.0
3546,-0.9300917932772246,0.0
3547,0.19968947035315032,0.0
3548,-0.0632525019353177,0.0
3549,-0.08841256247679793,0.0
3550,-0.02735183902829734,0.0
3551,-0.06773281451322613,0.0
3552,-0.03217506922369926,0.0
3553,0.031568268837171995,0.0
3554,-0.056295231614596625,0.0
3555,-0.006541129331945991,0.0
3556,0.016829809560949607,0.0
3557,-0.04887863778240526,0.0
3558,-0.05164331496146206,0.0
3559,0.006510182796785988,0.0
3560,0.5238479814150598,0.0
3561,4.0633625170057295,0.0
3562,6.456085755581136,0.0
3563,-1.2607474586449527,0.0
3564,-1.4127583947224713,0.0
3565,1.304578638747775,0.0
3566,-0.8312086696439867,0.0
3567,0.25344886242376763,0.0
3568,-0.07968093879302005,0.0
3569,-0.0562907633901152,0.0
3570,-0.1023983019768496,0.0
3571,0.004796554724711723,0.0
3572,0.017479085481529818,0.0
3573,-0.004840645712458707,0.0
3574,-0.10101876543994871,0.0
3575,0.05394176338193132,0.0
3576,0.05155879827570383,0.0
3577,0.08047679618296161,0.0
3578,-0.05545564509446813,0.0
3579,0.00013600322576119706,0.0
3580,0.43076381754888854,0.0
3581,4.142785083505295,0.0
3582,6.57142625078245,0.0
3583,-1.33500469997902,0.0
3584,-1.3765382661537688,0.0
3585,1.4094444319551498,0.0
3586,-0.8111933299952128,0.0
3587,0.17011108400030936,0.0
3588,-0.01472147543764836,0.0
3589,-0.07576549912260754,0.0
3590,-0.022290732552499106,0.0
3591,-0.11415461037832285,0.0
3592,-0.09234450765461003,0.0
3593,-0.14627753413655942,0.0
3594,-0.06367369517201235,0.0
3595,-0.07691523234037545,0.0
3596,-0.048217837718928146,0.0
3597,-0.07875532158003873,0.0
3598,-0.016265557060096903,0.0
3599,0.0025832178606171666,0.0
3600,0.39325693894699953,0.0
3601,4.223446353550181,0.0
3602,6.496129173480728,0.0
3603,-1.3456486513303654,0.0
3604,-1.3910835612746346,0.0
3605,1.3510090538511323,0.0
3606,-0.8758139013724355,0.0
3607,0.14033582165073286,0.0
3608,0.013148199837321836,0.0
3609,-0.13440439118040334,0.0
3610,-0.011479185516981426,0.0
3611,-0.0512096316133782,0.0
3612,-0.032157793289121175,0.0
3613,0.018144100781006287,0.0
3614,-0.010414116795075517,0.0
3615,0.042752730338223015,0.0
3616,0.06786347413562485,0.0
3617,-0.011558454969109427,0.0
3618,0.06242197515805289,0.0
3619,-0.01702728420553589,0.0
3620,0.4367438954896854,0.0
3621,4.158021662017573,0.0
3622,6.552956777212879,0.0
3623,-1.2128213145024027,0.0
3624,-1.331698592335984,0.0
3625,1.48054197715069,0.0
3626,-0.7646548447195987,0.0
3627,0.3057747769423996,0.0
3628,-0.04753745663677164,0.0
3629,0.03574498549996717,0.0
3630,0.05672620447918969,0.0
3631,-0.029509799536896232,0.0
3632,0.024518655983673435,0.0
3633,-0.007549894576140508,0.0
3634,-0.008525553988497102,0.0
3635,-0.043806400678433485,0.0
3636,-0.07087352305649036,0.0
3637,0.006541825100664675,0.0
3638,0.014875725777614965,0.0
3639,0.018942409483335393,0.0
3640,0.42418562775177093,0.0
3641,4.146284459489868,0.0
3642,6.445572038756109,0.0
3643,-1.2147075607296334,0.0
3644,-1.4877612870790637,0.0
3645,1.3857511774737534,0.0
3646,-0.7555304773671871,0.0
3647,0.1689877417866283,0.0
3648,-0.02496296617899365,0.0
3649,-0.002741404274573412,0.0
3650,0.07837493185750921,0.0
3651,0.010559308202009857,0.0
3652,0.03384467756875982,0.0
3653,0.02570893743370583,0.0
3654,0.05541384755560119,0.0
3655,-0.018669057524830942,0.0
3656,-0.0016729505961746022,0.0
3657,0.022076889563334517,0.0
3658,0.06023615652028495,0.0
3659,0.048528534634515605,0.0
3660,0.4259427202047029,0.0
3661,4.200154155861287,0.0
3662,6.580536212169193,0.0
3663,-1.2384181928445954,0.0
3664,-1.2373443150583707,0.0
3665,1.3653495258469697,0.0
3666,-0.7061554798725325,0.0
3667,0.21428728340293512,0.0
3668,-0.017114974380873397,0.0
3669,0.11453606384771005,0.0
3670,0.07860247967981718,0.0
3671,0.053788939031230325,0.0
3672,0.044380851922620895,0.0
3673,0.03327813896269363,0.0
3674,0.04896224724251545,0.0
3675,0.009697067810998194,0.0
3676,-0.017321967129899415,0.0
3677,0.029533068596633502,0.0
3678,0.007883123584295687,0.0
3679,0.03171897974585897,0.0
3680,0.4067381782884279,0.0
3681,4.189451554810831,0.0
3682,6.450039631417017,0.0
3683,-1.086007841394798,0.0
3684,-1.2725981162907782,0.0
3685,1.373225921756295,0.0
3686,-0.7830507427283344,0.0
3687,0.32901617535428684,0.0
3688,0.08562927999457305,0.0
3689,0.006727752325768428,0.0
3690,0.04794956463420434,0.0
3691,0.09258697777462,0.0
3692,0.051348918999491996,0.0
3693,0.12635153338077448,0.0
3694,0.07694412194336636,0.0
3695,0.059143800302144445,0.0
3696,0.0354697203289869,0.0
3697,0.058514680866614294,0.0
3698,0.09072270458170306,0.0
3699,-0.09579026379757717,0.0
3700,0.4743166048783976,0.0
3701,4.206418802098394,0.0
3702,6.5766979925119875,0.0
3703,-1.1989221221939217,0.0
3704,-1.2975200898495305,0.0
3705,1.4677675858660106,0.0
3706,-0.623112056004285,0.0
3707,0.3543185791475085,0.0
3708,-0.017047400158119907,0.0
3709,-0.08488931306554509,0.0
3710,0.10179911997515062,0.0
3711,0.0031070420994640247,0.0
3712,0.09162335560705137,0.0
3713,-0.029003904597510607,0.0
3714,-0.012305089570667012,0.0
3715,0.08027473300979691,0.0
3716,0.06548863601376098,0.0
3717,-0.003816887178843799,0.0
3718,0.043008562281056435,0.0
3719,0.11794503151506405,0.0
3720,0.4545473370530096,0.0
3721,4.217864067354237,0.0
3722,6.620340252419604,0.0
3723,-1.1894957483364275,0.0
3724,-1.1741363185578495,0.0
3725,1.447655956866713,0.0
3726,-0.7398709147228569,0.0
3727,0.19037572531883007,0.0
3728,0.004603687962814622,0.0
3729,-0.020235643621891772,0.0
3730,0.04399868671534052,0.0
3731,0.047946498814998156,0.0
3732,0.06306180411403564,0.0
3733,0.03586466987260696,0.0
3734,0.11312648475509854,0.0
3735,0.034942697024342544,0.0
3736,-0.12971389117168708,0.0
3737,0.03593121721169835,0.0
3738,0.03776695636793761,0.0
3739,-0.06865710849252252,0.0
3740,0.42295325488541036,0.0
3741,4.15541364721404,0.0
3742,6.5583894710664215,0.0
3743,-1.2973047797233932,0.0
3744,-1.234673175744817,0.0
3745,1.4505665056150778,0.0
3746,-0.6855980500847011,0.0
3747,0.19353804793602847,0.0
3748,-0.05546941478877748,0.0
3749,-0.058929226765564995,0.0
3750,0.006637333092742177,0.0
3751,0.08491965251868686,0.0
3752,-0.08943636280176676,0.0
3753,-0.03648165817963757,0.0
3754,0.08161796203479904,0.0
3755,-0.11115746136680958,0.0
3756,0.04250489477084546,0.0
3757,0.034447090141935824,0.0
3758,0.03535740815824663,0.0
3759,-0.00395940827057935,0.0
3760,0.4508648482244201,0.0
3761,4.168156263175989,0.0
3762,6.538181776114082,0.0
3763,-1.1522339006401134,0.0
3764,-1.4187357190604268,0.0
3765,1.504151082821741,0.0
3766,-0.7397654220530414,0.0
3767,0.2370316858695276,0.0
3768,-0.04901704002281661,0.0
3769,0.020566794046280187,0.0
3770,0.10992659929599598,0.0
3771,0.03826462761392034,0.0
3772,-0.12032434498980439,0.0
3773,0.053792010616515465,0.0
3774,0.08175224275472498,0.0
3775,0.01039215843791973,0.0
3776,0.1446257421851364,0.0
3777,0.027334414364840947,0.0
3778,0.04405098761117055,0.0
3779,-0.02100648379621841,0.0
3780,0.5385916646796909,0.0
3781,4.148173266918416,0.0
3782,6.581676264253356,0.0
3783,-1.1924780253514102,0.0
3784,-1.3087615274408124,0.0
3785,1.487629239649889,0.0
3786,-0.7860876636223314,0.0
3787,0.257115372706401,0.0
3788,-0.07819809271668116,0.0
3789,0.03457348129929359,0.0
3790,0.043044628021320724,0.0
3791,0.03297263448704884,0.0
3792,0.010248809908886498,0.0
3793,0.0674419580393367,0.0
3794,-0.0016154690240163527,0.0
3795,-0.09882980066673347,0.0
3796,0.11626953357658673,0.0
3797,0.13384273029878568,0.0
3798,0.012385744879991209,0.0
3799,0.09194632601923157,0.0
3800,0.5180607581080307,0.0
3801,4.34796488390581,0.0
3802,6.664465945945887,0.0
3803,-1.1804974012621474,0.0
3804,-1.2751471962030856,0.0
3805,1.4588112519718002,0.0
3806,-0.6885508875654395,0.0
3807,0.30979988081988985,0.0
3808,0.08802290660643439,0.0
3809,0.06954070907408741,0.0
3810,0.17301701848075918,0.0
3811,0.04399808329410254,0.0
3812,0.09785590590553045,0.0
3813,0.02209820682905076,0.0
3814,-0.016382281754338382,0.0
3815,0.028498828218106155,0.0
3816,0.011546119415758276,0.0
3817,0.09046742457478027,0.0
3818,0.07999740843433618,0.0
3819,-0.014438491636036652,0.0
3820,0.40679484159576074,0.0
3821,4.239814911597832,0.0
3822,6.545545262382329,0.0
3823,-1.0818407737247675,0.0
3824,-1.2334409771314236,0.0
3825,1.3988124225616616,0.0
3826,-0.784040848021166,0.0
3827,0.33334389158715194,0.0
3828,0.11932770726852883,0.0
3829,0.10367512578323154,0.0
3830,-0.02836044520113959,0.0
3831,0.022636597706585392,0.0
3832,0.07367149254527487,0.0
3833,0.04347656834521793,0.0
3834,0.002106211795822252,0.0
3835,0.07950689562056434,0.0
3836,0.052105014205995705,0.0
3837,0.011254371679932318,0.0
3838,0.061824969026789085,0.0
3839,0.044449727609395764,0.0
3840,0.4227935887488371,0.0
3841,4.21878281363858,0.0
3842,6.605344303487771,0.0
3843,-1.1867894018063767,0.0
3844,-1.2652954144495725,0.0
3845,1.4283716232139623,0.0
3846,-0.7018331075364835,0.0
3847,0.3645395221026686,0.0
3848,0.04704429303759674,0.0
3849,0.07883519507347808,0.0
3850,0.0970883630937629,0.0
3851,0.08869864384327061,0.0
3852,0.08641214493589407,0.0
3853,0.09288533763829299,0.0
3854,0.04033923673446539,0.0
3855,0.020186089689219026,0.0
3856,0.02270918579469891,0.0
3857,0.07873453482266578,0.0
3858,0.0828655175986055,0.0
3859,0.0300913191463045,0.0
3860,0.5660121934936181,0.0
3861,4.285254453741503,0.0
3862,6.593644136287276,0.0
3863,-1.2295497976493037,0.0
3864,-1.214769251303799,0.0
3865,1.3994197008540508,0.0
3866,-0.7789689688161794,0.0
3867,0.23156710401210945,0.0
3868,0.009272146624729624,0.0
3869,0.0005081143910687369,0.0
3870,0.024412137333138045,0.0
3871,0.02051647461046678,0.0
3872,0.10646859277161139,0.0
3873,0.11402555648510079,0.0
3874,0.09349224098106118,0.0
3875,0.07226920353868699,0.0
3876,0.09207305698859358,0.0
3877,0.05654035416823295,0.0
3878,0.0868491566821889,0.0
3879,0.10478516046710767,0.0
3880,0.4660366581203993,0.0
3881,4.208369606408388,0.0
3882,6.5456731434782025,0.0
3883,-1.2134625493067095,0.0
3884,-1.1921069334872725,0.0
3885,1.4687971969713516,0.0
3886,-0.6313852133135369,0.0
3887,0.32761375036023876,0.0
3888,-0.03226017634772009,0.0
3889,0.021552808059207326,0.0
3890,0.07190268483846948,0.0
3891,0.051998955591133364,0.0
3892,0.13809191237454504,0.0
3893,0.09562648593642215,0.0
3894,0.016241941567266813,0.0
3895,0.04778271432057224,0.0
3896,0.1268176050629906,0.0
3897,0.048960044820112084,0.0
3898,0.07313541578380087,0.0
3899,0.034647460419118765,0.0
3900,0.4846594195821372,0.0
3901,4.24834851590273,0.0
3902,6.572664476855093,0.0
3903,-1.2221758330114834,0.0
3904,-1.3361749535409944,0.0
3905,1.327206696019301,0.0
3906,-0.6979857512194999,0.0
3907,0.2868683110002394,0.0
3908,0.018996581813333475,0.0
3909,0.10179935328009959,0.0
3910,0.18348535410016023,0.0
3911,0.0312573940416213,0.0
3912,0.02714712688143789,0.0
3913,-0.046611338143441275,0.0
3914,0.11199239493943565,0.0
3915,0.055893343336023964,0.0
3916,0.0424056500503868,0.0
3917,0.09347331559858943,0.0
3918,0.1397152503351921,0.0
3919,0.07766338014815122,0.0
3920,0.5328245162043519,0.0
3921,4.292428274921809,0.0
3922,6.61402006287593,0.0
3923,-1.1544833558528491,0.0
3924,-1.202092989365666,0.0
3925,1.514829623063911,0.0
3926,-0.6999573801861718,0.0
3927,0.25610846207888166,0.0
3928,0.023592474708225945,0.0
3929,0.0652017866276113,0.0
3930,0.09203567266800779,0.0
3931,0.05378850467426929,0.0
3932,0.02372791798193253,0.0
3933,0.17103669843551184,0.0
3934,0.08175071978827343,0.0
3935,0.009931168399351008,0.0
3936,0.06769362631107398,0.0
3937,0.1697689326992533,0.0
3938,0.09379365252627561,0.0
3939,0.04597909564167418,0.0
3940,0.4657318494048734,0.0
3941,4.26418139822858,0.0
3942,6.5453267643433195,0.0
3943,-1.2852603796825228,0.0
3944,-1.238378637048209,0.0
3945,1.3998850043792483,0.0
3946,-0.8147168040419455,0.0
3947,0.3238983321165609,0.0
3948,-0.00859211753664906,0.0
3949,-0.04812087755393181,0.0
3950,0.06010075772390768,0.0
3951,-0.010675515893953297,0.0
3952,0.012761429682057995,0.0
3953,-0.027050221850260008,0.0
3954,0.042602534121609775,0.0
3955,0.07346009350652737,0.0
3956,-0.02535006350367651,0.0
3957,0.0029209290536235943,0.0
3958,0.08221046907041452,0.0
3959,0.03608167238714129,0.0
3960,0.38986189362266743,0.0
3961,4.291452013966284,0.0
3962,6.480851541306458,0.0
3963,-1.194459900459042,0.0
3964,-1.1842982427575681,0.0
3965,1.431476710921262,0.0
3966,-0.754327632025035,0.0
3967,0.31455730295874756,0.0
3968,0.036024848577783944,0.0
3969,0.05359837597654096,0.0
3970,-0.02288698069382579,0.0
3971,0.024113389088720114,0.0
3972,-0.04430584355535326,0.0
3973,0.06968439194327776,0.0
3974,0.04989798276186358,0.0
3975,0.07460885214050725,0.0
3976,0.05633764856531344,0.0
3977,0.11641069032225299,0.0
3978,0.024324807737424434,0.0
3979,-0.010674359388805593,0.0
3980,0.3706128350961737,0.0
3981,4.17427026260581,0.0
3982,6.622454220664141,0.0
3983,-1.2928693609303774,0.0
3984,-1.2270287015523729,0.0
3985,1.465748248143347,0.0
3986,-0.760561779666849,0.0
3987,0.22848334549345367,0.0
3988,0.029187915508524197,0.0
3989,0.08186822263189765,0.0
3990,0.04161790908316191,0.0
3991,-0.03138071832569248,0.0
3992,-0.00018312056181373285,0.0
3993,-0.012769308310321043,0.0
3994,0.16425755825197194,0.0
3995,0.022613515075109756,0.0
3996,-0.020035770393946925,0.0
3997,0.04591861804171958,0.0
3998,-0.06132276632115716,0.0
3999,-0.01740255563940995,0.0
4000,0.49286537008061093,0.0
4001,4.254022933625439,0.0
4002,6.5120789509913575,0.0
4003,-1.256297792940116,0.0
4004,-1.253869210329039,0.0
4005,1.3953239272683875,0.0
4006,-0.7930785188747611,0.0
4007,0.27158738644436314,0.0
4008,0.01928118700681555,0.0
4009,0.05901601946238573,0.0
4010,0.09412639549862564,0.0
4011,-0.06687345902943631,0.0
4012,0.0022161697391876144,0.0
4013,-0.037290516381249236,0.0
4014,-0.08343073552333247,0.0
4015,-0.007664141832793563,0.0
4016,-0.038417090170544656,0.0
4017,-0.07101539295186893,0.0
4018,0.12747131915145565,0.0
4019,-0.03393276610829943,0.0
4020,0.46876109712670044,0.0
4021,4.2003403373950965,0.0
4022,6.530413680155919,0.0
4023,-1.4416533917190921,0.0
4024,-1.3217163694908103,0.0
4025,1.3907211140927516,0.0
4026,-0.7993570283867119,0.0
4027,0.29273809168742704,0.0
4028,-0.026961073111920506,0.0
4029,0.019852160515779628,0.0
4030,0.04962650668748772,0.0
4031,0.10702704949945001,0.0
4032,-0.08345637743887399,0.0
4033,0.025709683792375055,0.0
4034,-0.041976723707915664,0.0
4035,-0.05691168292905006,0.0
4036,-0.008435195963011973,0.0
4037,-0.051933428823783316,0.0
4038,-0.054473187312757146,0.0
4039,-0.02477188282796692,0.0
4040,0.4438269542021022,0.0
4041,4.116095276806434,0.0
4042,6.48613655686082,0.0
4043,-1.330218607644867,0.0
4044,-1.3211032261283593,0.0
4045,1.339372516308343,0.0
4046,-0.8534224262635621,0.0
4047,0.0657756977116494,0.0
4048,-0.07767140807996022,0.0
4049,-0.10689956613302576,0.0
4050,-0.04857851839754918,0.0
4051,0.017623622551034876,0.0
4052,-0.03340799273691521,0.0
4053,-0.0011762906609106422,0.0
4054,-0.06535432862017118,0.0
4055,-0.11034277775319645,0.0
4056,0.06299396287950283,0.0
4057,-0.09089268001388913,0.0
4058,0.02770376840389491,0.0
4059,0.0695744207019682,0.0
4060,0.4056153506999387,0.0
4061,4.183470843219685,0.0
4062,6.500069484255808,0.0
4063,-1.2378125670463067,0.0
4064,-1.2961248445371145,0.0
4065,1.3547851125561459,0.0
4066,-0.7885107451968226,0.0
4067,0.20316211447200438,0.0
4068,0.06585284630550131,0.0
4069,-0.12123298287352174,0.0
4070,0.006211259070140401,0.0
4071,0.020124705788747938,0.0
4072,0.06446549791553612,0.0
4073,0.03607683710497773,0.0
4074,0.05631933884859945,0.0
4075,0.07389249642723421,0.0
4076,-0.03851866730480644,0.0
4077,-0.04299583100041928,0.0
4078,-0.02811329798469248,0.0
4079,0.028197138211802763,0.0
4080,0.41941357704720267,0.0
4081,4.292392052913,0.0
4082,6.453490627529272,0.0
4083,-1.3481337654449816,0.0
4084,-1.264420046874407,0.0
4085,1.3766820624249358,0.0
4086,-0.8047845466071794,0.0
4087,0.2078470180654272,0.0
4088,-0.18693104691953688,0.0
4089,0.08582343247844365,0.0
4090,0.0033466704203281936,0.0
4091,0.009186670337384555,0.0
4092,0.057952654983492204,0.0
4093,0.025109968723337702,0.0
4094,0.07621668304068191,0.0
4095,0.019661486189045008,0.0
4096,-0.02732255422594604,0.0
4097,0.030114060603066123,0.0
4098,0.07333029916490857,0.0
4099,0.0513547049682906,0.0
4100,0.4714359897884126,0.0
4101,4.262064901136749,0.0
4102,6.461515200389501,0.0
4103,-1.2893111373837918,0.0
4104,-1.3328601887517728,0.0
4105,1.3763521259492826,0.0
4106,-0.8155851267643763,0.0
4107,0.2554830437986466,0.0
4108,-0.05330304234293565,0.0
4109,0.030068429782767993,0.0
4110,0.0177984573798703,0.0
4111,-0.07572665919296907,0.0
4112,-0.009465828421945332,0.0
4113,0.07529745867853602,0.0
4114,0.003890295103656456,0.0
4115,0.0522997193195536,0.0
4116,-0.044736245799738505,0.0
4117,0.056869382070969414,0.0
4118,0.06590437345191653,0.0
4119,0.039025134753234096,0.0
4120,0.4947499664721391,0.0
4121,4.270730493876494,0.0
4122,6.553992508407478,0.0
4123,-1.271493632644574,0.0
4124,-1.2736260438460028,0.0
4125,1.3377067172933452,0.0
4126,-0.7444725754148563,0.0
4127,0.3411699536299472,0.0
4128,-0.08325803842925134,0.0
4129,-0.07893325060469071,0.0
4130,0.0686019451606886,0.0
4131,-0.00500036233671285,0.0
4132,-0.014692651518421286,0.0
4133,0.007558594868006037,0.0
4134,-0.06751742776723899,0.0
4135,-0.07834231885170125,0.0
4136,-0.07486019831335046,0.0
4137,-0.08344554036272717,0.0
4138,0.021642721858335462,0.0
4139,0.033059509251322027,0.0
4140,0.37537937098107266,0.0
4141,4.260772170756753,0.0
4142,6.477780588063911,0.0
4143,-1.4153099191118,0.0
4144,-1.2965948430148284,0.0
4145,1.3095536992635453,0.0
4146,-0.8278547073426356,0.0
