timestamp,value-0,is_anomaly
0,-1.7394026854953302,0.0
1,-1.6492803895756891,0.0
2,-1.1992190586607108,0.0
3,-0.506061871212248,0.0
4,0.42280595150031797,0.0
5,1.522085880383643,0.0
6,2.599328510917238,0.0
7,3.579327628925518,0.0
8,4.401783452554987,0.0
9,4.995377377601436,0.0
10,4.987578035430029,0.0
11,4.278016765296527,0.0
12,3.0309383838038286,0.0
13,1.4033945674612909,0.0
14,-0.2686246118806721,0.0
15,-2.1852889391974766,0.0
16,-3.5859780688520253,0.0
17,-4.641787373797747,0.0
18,-4.879204531052886,0.0
19,-4.626784374115695,0.0
20,-3.910621458695027,0.0
21,-2.760261865865956,0.0
22,-1.7335057287154183,0.0
23,-0.8105037172739968,0.0
24,-0.3828498729039653,0.0
25,-0.3851441242606577,0.0
26,-0.6185879254033329,0.0
27,-1.1165512273877813,0.0
28,-1.7560495139417063,0.0
29,-2.167373758558368,0.0
30,-2.4898050725088066,0.0
31,-2.522943457352264,0.0
32,-2.4129513858060863,0.0
33,-2.127233650445829,0.0
34,-1.8750563158687263,0.0
35,-1.6572382897178797,0.0
36,-1.5095108454713462,0.0
37,-1.4309851398476645,0.0
38,-1.6131901438616174,0.0
39,-1.601667251655012,0.0
40,-1.7838449176394964,0.0
41,-1.798892555569723,0.0
42,-1.8903282382960251,0.0
43,-1.8364520368608317,0.0
44,-1.8725032821373215,0.0
45,-1.7810428341893336,0.0
46,-1.7043349867603335,0.0
47,-1.7328401188210565,0.0
48,-1.7746448999174038,0.0
49,-1.7122052490121624,0.0
50,-1.7776307841374859,0.0
51,-1.7521965650695173,0.0
52,-1.7460787948197887,0.0
53,-1.8197615234330697,0.0
54,-1.7939312732169284,0.0
55,-1.8122482484737876,0.0
56,-1.6782578801739632,0.0
57,-1.7895608169139003,0.0
58,-1.775518392805667,0.0
59,-1.6633092270382055,0.0
60,-1.6713592613120267,0.0
61,-1.7860631063018046,0.0
62,-1.7065702510544976,0.0
63,-1.7238380029717113,0.0
64,-1.7147588007499064,0.0
65,-1.7104025512461039,0.0
66,-1.6779457485002385,0.0
67,-1.6806825998435075,0.0
68,-1.6742689184700876,0.0
69,-1.6627008059041062,0.0
70,-1.6535898610405113,0.0
71,-1.6757421627230709,0.0
72,-1.6844337370006575,0.0
73,-1.6630664861033977,0.0
74,-1.6751758160230243,0.0
75,-1.6190445467939434,0.0
76,-1.6444638676782457,0.0
77,-1.6237875457181565,0.0
78,-1.6423547742143692,0.0
79,-1.6070155074840637,0.0
80,-1.5915551496350682,0.0
81,-1.6490186228569967,0.0
82,-1.6907331591423163,0.0
83,-1.6268182899724881,0.0
84,-1.6595890910626379,0.0
85,-1.5372497320267,0.0
86,-1.5325883837234606,0.0
87,-1.6275555732029128,0.0
88,-1.5672539204377702,0.0
89,-1.5628601946951817,0.0
90,-1.583829892557809,0.0
91,-1.6483868202083956,0.0
92,-1.5614191532962913,0.0
93,-1.605795967180665,0.0
94,-1.5465883822247986,0.0
95,-1.5611297258441306,0.0
96,-1.4671804172766705,0.0
97,-1.5815954589810077,0.0
98,-1.509590204477056,0.0
99,-1.452387690399916,0.0
100,-1.2635218152972567,0.0
101,-1.0077822526718407,0.0
102,-0.5348256016861442,0.0
103,0.08369873562714436,0.0
104,0.923979925986536,0.0
105,1.8771347450088733,0.0
106,3.103309576354633,0.0
107,4.077135942673559,0.0
108,4.855613080043698,0.0
109,5.442751605767891,0.0
110,5.408159739834945,0.0
111,4.74762195061647,0.0
112,3.476532775301928,0.0
113,2.081332496064411,0.0
114,0.19771554753960774,0.0
115,-1.6495781830483722,0.0
116,-3.165716049728812,0.0
117,-4.112480135195777,0.0
118,-4.480349601305397,0.0
119,-4.0959103478554555,0.0
120,-3.36729623387817,0.0
121,-2.3645754988474117,0.0
122,-1.2934873010822445,0.0
123,-0.38755743994251146,0.0
124,0.0941694891682705,0.0
125,0.1747587244810791,0.0
126,-0.1814516202301779,0.0
127,-0.6050373997248926,0.0
128,-1.134692766863951,0.0
129,-1.6981722576916751,0.0
130,-2.063868059620248,0.0
131,-2.215306351034015,0.0
132,-2.1277089907544684,0.0
133,-1.794953670857615,0.0
134,-1.4962036237130585,0.0
135,-1.1922793076313327,0.0
136,-1.1178567235199706,0.0
137,-0.948765061975217,0.0
138,-1.082936419696835,0.0
139,-1.0638606848536545,0.0
140,-1.3275844431774713,0.0
141,-1.3305957797531305,0.0
142,-1.5173600713636202,0.0
143,-1.5278859744670026,0.0
144,-1.3958252515662828,0.0
145,-1.45569486172271,0.0
146,-1.363982600544932,0.0
147,-1.3567340061055562,0.0
148,-1.3040429085284406,0.0
149,-1.3113749942952475,0.0
150,-1.2616712368883383,0.0
151,-1.3017293203572082,0.0
152,-1.2762914623289192,0.0
153,-1.284232726231058,0.0
154,-1.2398933568139008,0.0
155,-1.2994363654038423,0.0
156,-1.227498057498113,0.0
157,-1.2682379598363098,0.0
158,-1.2567574871440814,0.0
159,-1.2021098776385373,0.0
160,-1.1959968775632233,0.0
161,-1.205408943470283,0.0
162,-1.2154849801482244,0.0
163,-1.258014482148576,0.0
164,-1.2262203505161,0.0
165,-1.2257832265876347,0.0
166,-1.216474923383442,0.0
167,-1.2403555504993913,0.0
168,-1.2938583467603442,0.0
169,-1.2351055975233889,0.0
170,-1.2947319134154769,0.0
171,-1.1891624264255618,0.0
172,-1.2515501376360676,0.0
173,-1.2790277202688003,0.0
174,-1.177672722487484,0.0
175,-1.15547356332358,0.0
176,-1.1516365516302525,0.0
177,-1.2108820892243852,0.0
178,-1.1628865621908997,0.0
179,-1.1451621348991332,0.0
180,-1.2175720428023098,0.0
181,-1.1566407565174033,0.0
182,-1.1670277433927618,0.0
183,-1.1754750125581417,0.0
184,-1.140330731685175,0.0
185,-1.1681219672230405,0.0
186,-1.0678737517836108,0.0
187,-1.024681932770111,0.0
188,-1.1883506040488423,0.0
189,-1.1425970333987816,0.0
190,-1.187974301005997,0.0
191,-1.105529157380743,0.0
192,-1.0468775653126339,0.0
193,-1.066315193106092,0.0
194,-1.1348000004258376,0.0
195,-1.0829680060285396,0.0
196,-1.0960230763993688,0.0
197,-1.145869329404278,0.0
198,-1.0969979640029857,0.0
199,-0.993459522710749,0.0
200,-0.8109037473108829,0.0
201,-0.5872185502087857,0.0
202,-0.08591035575749262,0.0
203,0.5655718766872264,0.0
204,1.4080527922757002,0.0
205,2.42216532264972,0.0
206,3.492733431279362,0.0
207,4.4388377243982085,0.0
208,5.305657816921262,0.0
209,5.860888651275794,0.0
210,5.782750093385368,0.0
211,5.235584163078596,0.0
212,4.038732610198681,0.0
213,2.420592368188345,0.0
214,0.6562830960219099,0.0
215,-1.1704651446084073,0.0
216,-2.7166981492779363,0.0
217,-3.754375317673049,0.0
218,-4.050063951768371,0.0
219,-3.7584342165667532,0.0
220,-2.953797983358887,0.0
221,-2.0750810312524863,0.0
222,-0.927185943901596,0.0
223,-0.01875211811928934,0.0
224,0.5480098028281927,0.0
225,0.56661590855016,0.0
226,0.20974690992194844,0.0
227,-0.28512683142770734,0.0
228,-0.819589714929895,0.0
229,-1.3017579649622046,0.0
230,-1.675653296957754,0.0
231,-1.6879574516741689,0.0
232,-1.5002964936459047,0.0
233,-1.4636627062937926,0.0
234,-1.0539498311962212,0.0
235,-0.8420472932357501,0.0
236,-0.6942316318481108,0.0
237,-0.7184221302205349,0.0
238,-0.623842476812593,0.0
239,-0.7658974989283287,0.0
240,-0.9700298019824071,0.0
241,-0.9371163992283587,0.0
242,-0.9963941986491166,0.0
243,-1.1262979256634758,0.0
244,-1.0306066759913994,0.0
245,-0.9587501787716592,0.0
246,-1.006405535253682,0.0
247,-0.9341395975684667,0.0
248,-0.9148092109635967,0.0
249,-0.7814566171952249,0.0
250,-0.9072390798760447,0.0
251,-0.8786719430228401,0.0
252,-0.819559475698399,0.0
253,-0.8927688115870915,0.0
254,-0.8097191005961671,0.0
255,-0.8437554052545362,0.0
256,-0.8976382420855015,0.0
257,-0.889610922644179,0.0
258,-0.8742893241139665,0.0
259,-0.8645747707914017,0.0
260,-0.8464152444303322,0.0
261,-0.868521479250134,0.0
262,-0.8928004453887911,0.0
263,-0.8873418556114248,0.0
264,-0.9005426629247846,0.0
265,-0.7879550319163293,0.0
266,-0.8447588987137097,0.0
267,-0.8968476343396752,0.0
268,-0.8447194355009592,0.0
269,-0.841072535810304,0.0
270,-0.7752840993973398,0.0
271,-0.7597655813922649,0.0
272,-0.7303708624706341,0.0
273,-0.8305532438355708,0.0
274,-0.7937000189772399,0.0
275,-0.7955552330746477,0.0
276,-0.7113612117269611,0.0
277,-0.7546850077255541,0.0
278,-0.8536356536634176,0.0
279,-0.7755762052479648,0.0
280,-0.7644864080287063,0.0
281,-0.8378731089989634,0.0
282,-0.7301110944500778,0.0
283,-0.737387654993702,0.0
284,-0.7588578065715902,0.0
285,-0.8369596537537756,0.0
286,-0.7572474295210431,0.0
287,-0.7489073391017992,0.0
288,-0.7738934805978763,0.0
289,-0.7324530323959937,0.0
290,-0.7028591557596772,0.0
291,-0.8554197258014984,0.0
292,-0.7930579939764482,0.0
293,-0.740452035338177,0.0
294,-0.7409650304135451,0.0
295,-0.7850265928815784,0.0
296,-0.827790178664053,0.0
297,-0.6740350617900869,0.0
298,-0.6204427986458637,0.0
299,-0.6202238006018997,0.0
300,-0.48801408996982526,0.0
301,-0.20974467385744855,0.0
302,0.2785837689618189,0.0
303,0.8735343345944948,0.0
304,1.7005183144056786,0.0
305,2.788223687502965,0.0
306,3.90493910752222,0.0
307,4.844821167282954,0.0
308,5.737463047554785,0.0
309,6.1920682025821385,0.0
310,6.309823694117911,0.0
311,5.542573227410445,0.0
312,4.464220527233197,0.0
313,2.879627681771498,0.0
314,1.0987832573987992,0.0
315,-0.7840059408694496,0.0
316,-2.3877406047379175,0.0
317,-3.32721296775757,0.0
318,-3.670118597002024,0.0
319,-3.369466401769075,0.0
320,-2.61698948256089,0.0
321,-1.699719853016403,0.0
322,-0.5460323503670799,0.0
323,0.3667595068160858,0.0
324,0.9606045635179303,0.0
325,0.948176573126022,0.0
326,0.7193110271921813,0.0
327,0.18788161140372017,0.0
328,-0.36855510977997386,0.0
329,-0.8881236812404851,0.0
330,-1.29687344059202,0.0
331,-1.3306530330869712,0.0
332,-1.2656232752302068,0.0
333,-0.9420804378412425,0.0
334,-0.7083039245828475,0.0
335,-0.4827092480181447,0.0
336,-0.2510383241270946,0.0
337,-0.20951299734601325,0.0
338,-0.269596467203594,0.0
339,-0.3971770345721776,0.0
340,-0.402381375287274,0.0
341,-0.5973190503253228,0.0
342,-0.6812840100872029,0.0
343,-0.639394224384763,0.0
344,-0.5955274739940248,0.0
345,-0.6176521520213331,0.0
346,-0.4632109530060623,0.0
347,-0.48951450838161353,0.0
348,-0.5420028398510705,0.0
349,-0.5117110815318828,0.0
350,-0.46094411456365336,0.0
351,-0.39212097192337514,0.0
352,-0.4856032879476509,0.0
353,-0.46982398017464855,0.0
354,-0.490018622716474,0.0
355,-0.4621142181636825,0.0
356,-0.5063290873294115,0.0
357,-0.42360037647733323,0.0
358,-0.4149430396754912,0.0
359,-0.38416457737763066,0.0
360,-0.5123618924761514,0.0
361,-0.4712456965294469,0.0
362,-0.4946922359332425,0.0
363,-0.4463414602901693,0.0
364,-0.4132582446075035,0.0
365,-0.3783718894028461,0.0
366,-0.42254862394185677,0.0
367,-0.4651928306910666,0.0
368,-0.410631976714414,0.0
369,-0.37936214415435315,0.0
370,-0.37624817851741443,0.0
371,-0.30893172677365793,0.0
372,-0.3385527854249626,0.0
373,-0.376010225437855,0.0
374,-0.39709584694314,0.0
375,-0.3244464585488964,0.0
376,-0.43579743966563594,0.0
377,-0.3254268616697672,0.0
378,-0.31655817375307593,0.0
379,-0.33460785239408974,0.0
380,-0.37537629885086987,0.0
381,-0.35343011896614185,0.0
382,-0.2830647522386416,0.0
383,-0.21927157555675328,0.0
384,-0.3300795201814592,0.0
385,-0.30504914639330316,0.0
386,-0.28275913731873553,0.0
387,-0.3334487802363967,0.0
388,-0.27869335102092296,0.0
389,-0.3269476078923272,0.0
390,-0.42182128225639265,0.0
391,-0.22815410727066665,0.0
392,-0.2799854705161933,0.0
393,-0.3397669325604427,0.0
394,-0.30907786602606624,0.0
395,-0.288709667644176,0.0
396,-0.33127792889276997,0.0
397,-0.2847383688426923,0.0
398,-0.23094712910095508,0.0
399,-0.12479850867352983,0.0
400,0.08183018395441283,0.0
401,0.22110207347044075,0.0
402,0.7937860311391953,0.0
403,1.3630203579738283,0.0
404,2.1406908405608136,0.0
405,3.282658473164047,0.0
406,4.22378922987491,0.0
407,5.358236005270894,0.0
408,6.1594963741821696,0.0
409,6.674999552467714,0.0
410,6.746998148222597,0.0
411,6.075538834136424,0.0
412,4.993450564052754,0.0
413,3.3851237559959624,0.0
414,1.593129905685525,0.0
415,-0.2760964136869295,0.0
416,-1.8645276807076385,0.0
417,-2.9441254699542654,0.0
418,-3.1575292239385235,0.0
419,-2.952466772189229,0.0
420,-2.1791060619829765,0.0
421,-1.266407261799623,0.0
422,-0.10095886907875903,0.0
423,0.8712779412014152,0.0
424,1.4230829616468106,0.0
425,1.4008185294657798,0.0
426,1.1834377059332566,0.0
427,0.6469041403372581,0.0
428,0.084712082032566,0.0
429,-0.4894691920731296,0.0
430,-0.8617985964981743,0.0
431,-0.8331271424258686,0.0
432,-0.8168420254409648,0.0
433,-0.5234216303461907,0.0
434,-0.3776581461773899,0.0
435,0.08647375352826495,0.0
436,0.15623951469325034,0.0
437,0.234661150201932,0.0
438,0.17979333646724108,0.0
439,0.17561809497680647,0.0
440,0.019840657039286898,0.0
441,-0.061176576031987735,0.0
442,-0.09664180645080646,0.0
443,-0.12097827156776007,0.0
444,-0.1680546718832996,0.0
445,-0.1035155032700514,0.0
446,0.06415124076655226,0.0
447,0.08585459718017766,0.0
448,0.07758547968118695,0.0
449,0.07927194160452508,0.0
450,0.08049649756025276,0.0
451,0.09978647767384388,0.0
452,-0.00325872513017756,0.0
453,0.02019922912690432,0.0
454,0.0488156269909045,0.0
455,0.13410241109655366,0.0
456,-0.013358788071180318,0.0
457,0.035313968860416885,0.0
458,0.016042981150354962,0.0
459,0.062486369407111705,0.0
460,0.026449462006972943,0.0
461,0.003195023412743806,0.0
462,0.08234535609126992,0.0
463,0.05943597701389965,0.0
464,0.0743066206277426,0.0
465,0.11210670586277761,0.0
466,0.12755048628016338,0.0
467,0.008365314506846766,0.0
468,0.05243573184564496,0.0
469,0.01510863361702348,0.0
470,0.025807686697838898,0.0
471,0.10226670899738596,0.0
472,0.023945125895774032,0.0
473,0.1626016966004869,0.0
474,0.10834296107989168,0.0
475,0.18144789166120123,0.0
476,0.1608436312140677,0.0
477,0.09063148137881596,0.0
478,0.15007281581349693,0.0
479,0.09119396140136178,0.0
480,0.06422137965919658,0.0
481,0.1509391811769099,0.0
482,0.1258735405679667,0.0
483,0.06949582056129311,0.0
484,0.04356964910102576,0.0
485,0.1613978197633428,0.0
486,0.260317748944175,0.0
487,0.11761495567603339,0.0
488,0.13767961620857735,0.0
489,0.18202464374877148,0.0
490,0.2037508701551992,0.0
491,-0.017915543955547737,0.0
492,0.14403214232155936,0.0
493,0.04442648339214818,0.0
494,0.15109825623233347,0.0
495,0.09656976746458726,0.0
496,0.10337534702151613,0.0
497,0.10130459868840283,0.0
498,0.15320363467144787,0.0
499,0.31429151643106246,0.0
500,0.34439460708698655,0.0
501,0.5986020016460387,0.0
502,1.0128059633835371,0.0
503,1.605780604871366,0.0
504,2.472851295437372,0.0
505,3.533690672990091,0.0
506,4.556518532494083,0.0
507,5.575572035933095,0.0
508,6.445729974049846,0.0
509,7.0282415073241875,0.0
510,7.039049534580598,0.0
511,6.475688314963285,0.0
512,5.290759656582641,0.0
513,3.783407442693693,0.0
514,2.009629975199119,0.0
515,0.1250434853048128,0.0
516,-1.3985243038453097,0.0
517,-2.5251500607318507,0.0
518,-2.835616280583328,0.0
519,-2.5716879006647173,0.0
520,-1.8935720111078196,0.0
521,-0.8751846311453,0.0
522,0.2873485766997905,0.0
523,1.137088429743483,0.0
524,1.7537183616841836,0.0
525,1.857401978432918,0.0
526,1.5201714055704776,0.0
527,0.9971765660561316,0.0
528,0.44775658444999733,0.0
529,-0.13128014781397596,0.0
530,-0.4979400167459911,0.0
531,-0.5317314354698284,0.0
532,-0.42729901297104766,0.0
533,-0.14190769711898815,0.0
534,0.0782936290274786,0.0
535,0.35243307082322484,0.0
536,0.5462475307059915,0.0
537,0.6634075678625346,0.0
538,0.6247641861125413,0.0
539,0.5407772520230597,0.0
540,0.4504565699918482,0.0
541,0.37107894436586725,0.0
542,0.29563088165618684,0.0
543,0.23500590083799205,0.0
544,0.19184520296998503,0.0
545,0.3983512806953723,0.0
546,0.3597199445068901,0.0
547,0.337367077208805,0.0
548,0.44811332682395816,0.0
549,0.46551800947619915,0.0
550,0.41635668740321624,0.0
551,0.43104071301315044,0.0
552,0.43131326392266917,0.0
553,0.43856511247147484,0.0
554,0.46822090031628805,0.0
555,0.38967130391310384,0.0
556,0.3426585146700892,0.0
557,0.38863151943956004,0.0
558,0.38419591525920205,0.0
559,0.341798311840912,0.0
560,0.48105668378743544,0.0
561,0.45353028633970516,0.0
562,0.32564340015924725,0.0
563,0.44567489786225345,0.0
564,0.4228302230052431,0.0
565,0.42556577427438097,0.0
566,0.41194091178580006,0.0
567,0.4847270919120324,0.0
568,0.47486933817486965,0.0
569,0.46659661220951604,0.0
570,0.5328224535702297,0.0
571,0.5265595900377502,0.0
572,0.5051880385864755,0.0
573,0.5428882884445783,0.0
574,0.49186405732774985,0.0
575,0.49852706892732257,0.0
576,0.4120711172471267,0.0
577,0.5294794696810772,0.0
578,0.5146452426566206,0.0
579,0.4717636043590861,0.0
580,0.48100104149281847,0.0
581,0.4478893047747848,0.0
582,0.5440451795975092,0.0
583,0.47068613998374853,0.0
584,0.44307636803063033,0.0
585,0.4441466087875558,0.0
586,0.42051476067031274,0.0
587,0.4772980636852683,0.0
588,0.505094190318566,0.0
589,0.4358903932747038,0.0
590,0.5181854759951077,0.0
591,0.5007960389310764,0.0
592,0.4439299325262205,0.0
593,0.4156651773644387,0.0
594,0.5129150831060981,0.0
595,0.5012377375444107,0.0
596,0.42435772099059205,0.0
597,0.4986460465160536,0.0
598,0.5428922781426935,0.0
599,0.5900728241182214,0.0
600,0.693537540153489,0.0
601,1.0692850723118519,0.0
602,1.4427399407274664,0.0
603,2.0362998933134095,0.0
604,2.852301952808321,0.0
605,3.8718419622371982,0.0
606,4.853556332954082,0.0
607,6.0068429642277295,0.0
608,6.819389690380836,0.0
609,7.492217073181747,0.0
610,7.473207972697791,0.0
611,6.887183722316828,0.0
612,5.841935708737647,0.0
613,4.336672897538237,0.0
614,2.6017172153997534,0.0
615,0.622856705430552,0.0
616,-0.9767059949249415,0.0
617,-1.9733058805099133,0.0
618,-2.4352411505898934,0.0
619,-2.145784852243747,0.0
620,-1.418305666544916,0.0
621,-0.4148125271406161,0.0
622,0.5729421183632641,0.0
623,1.5356345766311241,0.0
624,2.1445345882652265,0.0
625,2.1932856858264307,0.0
626,1.89918326417245,0.0
627,1.39615631265818,0.0
628,0.8582158962766744,0.0
629,0.3264372026634278,0.0
630,0.037200780650768595,0.0
631,-0.23378239209230212,0.0
632,-0.10761137465325188,0.0
633,0.15534249185507532,0.0
634,0.5213491428232377,0.0
635,0.8525469070891032,0.0
636,0.9596053215104887,0.0
637,1.008182753191952,0.0
638,1.0315093172235477,0.0
639,0.9094154038216664,0.0
640,0.7764955897515811,0.0
641,0.6918274614392477,0.0
642,0.635308794302861,0.0
643,0.6019573191452235,0.0
644,0.6632240595401976,0.0
645,0.7273733450531032,0.0
646,0.7142116449625833,0.0
647,0.7021476220294076,0.0
648,0.7775807011895989,0.0
649,0.7856601277561717,0.0
650,0.824605901960813,0.0
651,0.6925768045665138,0.0
652,0.8098662242968167,0.0
653,0.6867857448453547,0.0
654,0.7656720646289081,0.0
655,0.8101065346762396,0.0
656,0.686174518304165,0.0
657,0.7510992916855982,0.0
658,0.7701083533336398,0.0
659,0.785933171974793,0.0
660,0.7841280901985429,0.0
661,0.8784429074976815,0.0
662,0.8292675326911649,0.0
663,0.6954650004151242,0.0
664,0.8056501172109294,0.0
665,0.8214793734250455,0.0
666,0.7427917289996832,0.0
667,0.9074867607139803,0.0
668,0.825544693338448,0.0
669,0.8102438920395371,0.0
670,0.8870992352497817,0.0
671,0.9038967392090506,0.0
672,0.8640794681966282,0.0
673,0.8177478902421648,0.0
674,0.8985399383379069,0.0
675,0.832270041785193,0.0
676,0.8652122692034434,0.0
677,0.8348769383809911,0.0
678,0.8725155405189866,0.0
679,0.8345563183598893,0.0
680,0.9069198286307292,0.0
681,0.9271666181249392,0.0
682,0.8004071162221199,0.0
683,0.8802238845670775,0.0
684,0.967067521486712,0.0
685,0.8865317088044117,0.0
686,0.9055879569552204,0.0
687,0.9187651629637131,0.0
688,0.9499676066097854,0.0
689,0.8716297390384266,0.0
690,0.9354387122401194,0.0
691,0.9795061671099453,0.0
692,0.8724016884687263,0.0
693,0.8671123692343375,0.0
694,0.9119632911038821,0.0
695,0.8775909767054928,0.0
696,0.8231900337566391,0.0
697,0.9561648564106865,0.0
698,0.9980449728764874,0.0
699,0.9263240274583776,0.0
700,1.1481231526836047,0.0
701,1.4524185051053533,0.0
702,1.8607465630709572,0.0
703,2.3992533852968365,0.0
704,3.3156194719709116,0.0
705,4.336330092226525,0.0
706,5.404187722346848,0.0
707,6.4535878038953784,0.0
708,7.346794493634545,0.0
709,7.896282306931408,0.0
710,7.903237042071432,0.0
711,7.421717762338934,0.0
712,6.287642939462053,0.0
713,4.679377522778313,0.0
714,2.896199491282787,0.0
715,1.093057664765662,0.0
716,-0.5390100046844986,0.0
717,-1.548433116519481,0.0
718,-1.952603183307415,0.0
719,-1.7409575554381664,0.0
720,-1.079873717829621,0.0
721,-0.03305253838030886,0.0
722,1.0021819019207476,0.0
723,2.002366983827063,0.0
724,2.4841948528337348,0.0
725,2.6515187012525097,0.0
726,2.3189787410413287,0.0
727,1.948871232633526,0.0
728,1.3459541891657938,0.0
729,0.8389300932378592,0.0
730,0.3416014049795624,0.0
731,0.2912066769761432,0.0
732,0.402060679384988,0.0
733,0.6396218816653205,0.0
734,0.910327248911592,0.0
735,1.1411383734150955,0.0
736,1.3293960365714328,0.0
737,1.378366775097964,0.0
738,1.4056018256030873,0.0
739,1.2635644690518322,0.0
740,1.1058948078543211,0.0
741,1.0453555433464128,0.0
742,0.9837803333660518,0.0
743,0.9887880334032678,0.0
744,1.0323820082168889,0.0
745,1.0225223863853277,0.0
746,1.15965978875258,0.0
747,1.1494763359847453,0.0
748,1.13444670604968,0.0
749,1.2245085078903946,0.0
750,1.1135713033806467,0.0
751,1.2230715914914174,0.0
752,1.156911952674355,0.0
753,1.154171519036948,0.0
754,1.086764494697374,0.0
755,1.184212136756329,0.0
756,1.1746591398424528,0.0
757,1.1263872020010095,0.0
758,1.2060659588058245,0.0
759,1.1971066443903027,0.0
760,1.2421367239070789,0.0
761,1.2916751153667103,0.0
762,1.2633049172218218,0.0
763,1.2204043103571367,0.0
764,1.2272297517454047,0.0
765,1.2621573529831607,0.0
766,1.2008297475292369,0.0
767,1.183925536112028,0.0
768,1.2807396036324852,0.0
769,1.1650224077395774,0.0
770,1.209570469209372,0.0
771,1.2537099789365365,0.0
772,1.2561515851314826,0.0
773,1.271502072689374,0.0
774,1.2179357896025222,0.0
775,1.1955556295661196,0.0
776,1.2599575643632632,0.0
777,1.1657198160760691,0.0
778,1.356624021280615,0.0
779,1.2105040284920214,0.0
780,1.3117031179219778,0.0
781,1.207839929554947,0.0
782,1.2267635191498072,0.0
783,1.3068489276172457,0.0
784,1.2541249500815201,0.0
785,1.3585786852219968,0.0
786,1.2732246989005216,0.0
787,1.2876691979736377,0.0
788,1.3928630140461953,0.0
789,1.2469224294631696,0.0
790,1.389914960554424,0.0
791,1.2808967795645747,0.0
792,1.3012411254622764,0.0
793,1.2886953828514895,0.0
794,1.2396148088074672,0.0
795,1.3266556205659863,0.0
796,1.3251407877185024,0.0
797,1.2747403017256416,0.0
798,1.314955720183184,0.0
799,1.4569459851053366,0.0
800,1.5285010067112725,0.0
801,1.7859123245771793,0.0
802,2.251459539850211,0.0
803,2.792825996432968,0.0
804,3.7684316460806064,0.0
805,4.719846343045651,0.0
806,5.768252525958778,0.0
807,6.7653532029287415,0.0
808,7.630908716447681,0.0
809,8.248613478178282,0.0
810,8.354728170694843,0.0
811,7.736537319824528,0.0
812,6.6456322839497375,0.0
813,4.9915337083866875,0.0
814,3.3309595240753023,0.0
815,1.4798877029083495,0.0
816,-0.1054011691815635,0.0
817,-1.2321279447198354,0.0
818,-1.5586501406926923,0.0
819,-1.4523700571770113,0.0
820,-0.7434198397413105,0.0
821,0.2169828122810784,0.0
822,1.3619908114070227,0.0
823,2.2797250220435115,0.0
824,2.915261051848457,0.0
825,2.9107979643691073,0.0
826,2.6762842963612,0.0
827,2.2236581452609236,0.0
828,1.6480380792750975,0.0
829,1.0193908740027098,0.0
830,0.6929566377647743,0.0
831,0.6025778327085565,0.0
832,0.6321573789926616,0.0
833,0.9519970071962488,0.0
834,1.1607800313367316,0.0
835,1.4384018353043713,0.0
836,1.7698436489933793,0.0
837,1.709975462356419,0.0
838,1.6775617617402763,0.0
839,1.6290587427957324,0.0
840,1.4920489794984277,0.0
841,1.3569245746856755,0.0
842,1.4490839571659357,0.0
843,1.3110171711145726,0.0
844,1.283892993287683,0.0
845,1.4160847768563176,0.0
846,1.4255821376229503,0.0
847,1.4520523716760825,0.0
848,1.5114119207431922,0.0
849,1.434914121097078,0.0
850,1.4884611833090562,0.0
851,1.4229719311637672,0.0
852,1.5278902692789553,0.0
853,1.4249741586402298,0.0
854,1.48795299220665,0.0
855,1.4825724021964262,0.0
856,1.424086373332563,0.0
857,1.5059966412337904,0.0
858,1.4383377815646572,0.0
859,1.4877343464657564,0.0
860,1.371962467479967,0.0
861,1.4880934089116111,0.0
862,1.4835953182043122,0.0
863,1.4743420964894653,0.0
864,1.4306220802654896,0.0
865,1.4881629348475922,0.0
866,1.5369977381173276,0.0
867,1.4541326156178092,0.0
868,1.5609493965056633,0.0
869,1.5348806567458078,0.0
870,1.5094387221680534,0.0
871,1.5559845024818886,0.0
872,1.5276217685812277,0.0
873,1.5413895075479933,0.0
874,1.562222463385275,0.0
875,1.4972184012516807,0.0
876,1.6694254945482487,0.0
877,1.5649969599435922,0.0
878,1.622128153900851,0.0
879,1.6110955677196839,0.0
880,1.592941320414297,0.0
881,1.6283199228733078,0.0
882,1.5465063583854788,0.0
883,1.6542221217917432,0.0
884,1.529902711070361,0.0
885,1.6694908037133014,0.0
886,1.5868283507097498,0.0
887,1.5602330352935248,0.0
888,1.5822950628226018,0.0
889,1.6127070610865766,0.0
890,1.6494072898236276,0.0
891,1.6020252060768694,0.0
892,1.659000529922715,0.0
893,1.5433870036321267,0.0
894,1.5445800484971928,0.0
895,1.6056816809384282,0.0
896,1.5345528400032622,0.0
897,1.5400343888632724,0.0
898,1.5114053857830596,0.0
899,1.6732953619060624,0.0
900,1.902997677134568,0.0
901,2.1009811725947767,0.0
902,2.4506872173804415,0.0
903,3.145349290314611,0.0
904,3.877758105947822,0.0
905,4.802064464652553,0.0
906,5.955562131084145,0.0
907,7.117105555262025,0.0
908,7.877116749619565,0.0
909,8.60434904935764,0.0
910,8.586561046303157,0.0
911,8.124317594034995,0.0
912,6.878148528127563,0.0
913,5.4463239388850795,0.0
914,3.6932860443711015,0.0
915,1.831109178170835,0.0
916,0.12575243633060218,0.0
917,-0.9435530783312651,0.0
918,-1.4102422896321194,0.0
919,-1.1594072472762342,0.0
920,-0.49238527929504494,0.0
921,0.4647919510455363,0.0
922,1.722783844270641,0.0
923,2.6516207291528353,0.0
924,3.259870163002367,0.0
925,3.2521086304591695,0.0
926,3.0449703676477036,0.0
927,2.5094462690404225,0.0
928,2.0015605677754933,0.0
929,1.41667791155835,0.0
930,1.1190966493320325,0.0
931,0.9707403241100028,0.0
932,1.0110239724644132,0.0
933,1.2891798534367074,0.0
934,1.5837675022784696,0.0
935,1.783676105891719,0.0
936,2.0216458441402247,0.0
937,2.031696857812643,0.0
938,2.002772404929083,0.0
939,1.9204224381470634,0.0
940,1.8752916965979876,0.0
941,1.7193227534749262,0.0
942,1.6748589571945485,0.0
943,1.562620097769977,0.0
944,1.6302978603919192,0.0
945,1.73932346565745,0.0
946,1.7521241553307154,0.0
947,1.765413848658581,0.0
948,1.7429737348216003,0.0
949,1.754822567869624,0.0
950,1.8277339160749786,0.0
951,1.7638142017928244,0.0
952,1.7617745418720314,0.0
953,1.7991804902137196,0.0
954,1.835601716500061,0.0
955,1.8952798068058996,0.0
956,1.855338773231291,0.0
957,1.7930121239448917,0.0
958,1.871007648186889,0.0
959,1.9113744236363617,0.0
960,1.7835140650226462,0.0
961,1.829958844068096,0.0
962,1.8439641174492185,0.0
963,1.7970649793369762,0.0
964,1.813616287676084,0.0
965,1.8201931009028591,0.0
966,1.7594092556964895,0.0
967,1.8140297163156274,0.0
968,1.8600908865959895,0.0
969,1.9079203459473357,0.0
970,1.7650255411953324,0.0
971,1.7753032019185366,0.0
972,1.7854780465513078,0.0
973,1.7729172849060533,0.0
974,1.846237698929451,0.0
975,1.770699689592593,0.0
976,1.7698679153918704,0.0
977,1.828921375928181,0.0
978,1.9072040647202346,0.0
979,1.8941418003626764,0.0
980,1.9131717343748627,0.0
981,1.880331682488881,0.0
982,1.8808831202421976,0.0
983,1.950266104693738,0.0
984,1.8310944334657693,0.0
985,1.899476539155523,0.0
986,1.8607530932576282,0.0
987,1.971346901023744,0.0
988,1.8821271380862623,0.0
989,1.9711899982411314,0.0
990,1.9760709535939611,0.0
991,1.9325804635379311,0.0
992,1.986511215121891,0.0
993,1.9446756942206536,0.0
994,1.9671035677654023,0.0
995,1.8415883337827825,0.0
996,2.0041633513397006,0.0
997,1.9278545276728618,0.0
998,1.9413302832718449,0.0
999,2.01527733130782,0.0
1000,2.233025749303793,0.0
1001,2.4053387970675777,0.0
1002,2.8591049805321873,0.0
1003,3.3716816405095784,0.0
1004,4.310594141318041,0.0
1005,5.225833137719043,0.0
1006,6.307704509222778,0.0
1007,7.266430608791008,0.0
1008,8.165504925107927,0.0
1009,8.834849871195019,0.0
1010,8.995581963759465,0.0
1011,8.396010639269704,0.0
1012,7.347912144881282,0.0
1013,5.850996448442334,0.0
1014,3.979665986198997,0.0
1015,2.1957390408887485,0.0
1016,0.5753375430784204,0.0
1017,-0.5816126789527245,0.0
1018,-1.0262048179979715,0.0
1019,-0.8189253286330946,0.0
1020,-0.21531473365793108,0.0
1021,0.7745371522836837,0.0
1022,2.023312805383886,0.0
1023,2.95576598614976,0.0
1024,3.4957292256749612,0.0
1025,3.6000257679533094,0.0
1026,3.3841920653927398,0.0
1027,2.8670102267184,0.0
1028,2.384158482384361,0.0
1029,1.8458114990991883,0.0
1030,1.3065421399465456,0.0
1031,1.189360822036135,0.0
1032,1.345314492020849,0.0
1033,1.6075105544484354,0.0
1034,1.9073640073320308,0.0
1035,2.118759158810167,0.0
1036,2.349560374899248,0.0
1037,2.44029853566543,0.0
1038,2.378561751531045,0.0
1039,2.2724699568916598,0.0
1040,2.015653852934456,0.0
1041,1.9894327590066327,0.0
1042,1.9562989195291047,0.0
1043,1.9306924566066597,0.0
1044,1.952300045504658,0.0
1045,2.041785244389763,0.0
1046,2.1370798609969675,0.0
1047,2.1284507348819184,0.0
1048,2.05601869338076,0.0
1049,2.227016123718872,0.0
1050,2.069644079635083,0.0
1051,2.117940322090092,0.0
1052,2.099940834233949,0.0
1053,1.974359468556372,0.0
1054,2.126527746873452,0.0
1055,2.0615188150285326,0.0
1056,2.1229988340715655,0.0
1057,2.1086833457801757,0.0
1058,2.1631170800684894,0.0
1059,2.095680045545896,0.0
1060,2.099832927245843,0.0
1061,2.1033226808760306,0.0
1062,2.208897008804087,0.0
1063,2.1402947151796874,0.0
1064,2.153182265654861,0.0
1065,2.2084919101934393,0.0
1066,2.2192486671826543,0.0
1067,2.2657746764256044,0.0
1068,2.111299272512924,0.0
1069,2.208890255538353,0.0
1070,2.174070978630706,0.0
1071,2.1805336794875894,0.0
1072,2.2483844278235217,0.0
1073,2.169350680972233,0.0
1074,2.1496456354558444,0.0
1075,2.2558097432126414,0.0
1076,2.2506563619582334,0.0
1077,2.1800571942991835,0.0
1078,2.1702489143601276,0.0
1079,2.1899911045638882,0.0
1080,2.197568584438561,0.0
1081,2.1727881123966823,0.0
1082,2.220077808560868,0.0
1083,2.1780338884978554,0.0
1084,2.3070533599892964,0.0
1085,2.287122087143386,0.0
1086,2.178407481579856,0.0
1087,2.1707896392221393,0.0
1088,2.2080116200030986,0.0
1089,2.2243224278421545,0.0
1090,2.29240702294206,0.0
1091,2.2150383369259625,0.0
1092,2.260233933872708,0.0
1093,2.302875678554354,0.0
1094,2.2530732135415033,0.0
1095,2.281198276795289,0.0
1096,2.2989340174308905,0.0
1097,2.341441782321891,0.0
1098,2.2364042842063885,0.0
1099,2.403740856868631,0.0
1100,2.5522856093194712,0.0
1101,2.7646725998898907,0.0
1102,3.222153370885802,0.0
1103,3.752640394967055,0.0
1104,4.509778769874969,0.0
1105,5.528222563933256,0.0
1106,6.62362940386031,0.0
1107,7.7269380398307135,0.0
1108,8.560953634584033,0.0
1109,9.11646307145542,0.0
1110,9.259625410934683,0.0
1111,8.783223116252357,0.0
1112,7.654619612849853,0.0
1113,6.1892281545612935,0.0
1114,4.3950964872241265,0.0
1115,2.5429856461697367,0.0
1116,0.8467829928456518,0.0
1117,-0.27173118636672733,0.0
1118,-0.66724748348835,0.0
1119,-0.5402111513662318,0.0
1120,0.1268817410321339,0.0
1121,1.0015975826323098,0.0
1122,2.2767153228666626,0.0
1123,3.132399249297789,0.0
1124,3.768041479451772,0.0
1125,3.88402936281524,0.0
1126,3.6495262256700425,0.0
1127,3.2439029337709124,0.0
1128,2.7299161338945943,0.0
1129,2.120342708169029,0.0
1130,1.6691446525329432,0.0
1131,1.605968878398726,0.0
1132,1.6303723290868923,0.0
1133,1.9554911591825483,0.0
1134,2.205339704283591,0.0
1135,2.460402425297114,0.0
1136,2.6744003479290286,0.0
1137,2.713192086127493,0.0
1138,2.702850361183997,0.0
1139,2.6383783590548213,0.0
1140,2.4589220480408147,0.0
1141,2.3782279474423413,0.0
1142,2.308184478260396,0.0
1143,2.3355709659706134,0.0
1144,2.382974866806631,0.0
1145,2.3431892975167856,0.0
1146,2.379503829908687,0.0
1147,2.3308207044824694,0.0
1148,2.491549844827742,0.0
1149,2.39506088810259,0.0
1150,2.4881154992022463,0.0
1151,2.3879692197482063,0.0
1152,2.390271057489345,0.0
1153,2.446245689913071,0.0
1154,2.43450222435348,0.0
1155,2.4265778258817803,0.0
1156,2.476044563207961,0.0
1157,2.441549097522896,0.0
1158,2.400404854196888,0.0
1159,2.4806534160597598,0.0
1160,2.3766315129293063,0.0
1161,2.4792740708590912,0.0
1162,2.463041452518719,0.0
1163,2.512514718786146,0.0
1164,2.5127212091256665,0.0
1165,2.507676564520005,0.0
1166,2.445024410575349,0.0
1167,2.4034236482028986,0.0
1168,2.50105196976181,0.0
1169,2.4901048772124335,0.0
1170,2.486035192193384,0.0
1171,2.550578261035162,0.0
1172,2.457929713831266,0.0
1173,2.484252741818428,0.0
1174,2.589686611737351,0.0
1175,2.4914666548470765,0.0
1176,2.487760260006598,0.0
1177,2.588173516534336,0.0
1178,2.556630908451427,0.0
1179,2.6049003283032475,0.0
1180,2.5919562907515217,0.0
1181,2.540866735544436,0.0
1182,2.6322615538518845,0.0
1183,2.5648174030184836,0.0
1184,2.586875383847387,0.0
1185,2.5562991755484266,0.0
1186,2.5875775227439584,0.0
1187,2.5020149094417534,0.0
1188,2.5955106631202702,0.0
1189,2.5433591683755923,0.0
1190,2.5975013513214313,0.0
1191,2.5059419689859825,0.0
1192,2.551992970220114,0.0
1193,2.5422820878113095,0.0
1194,2.5638385167317606,0.0
1195,2.5421012256827384,0.0
1196,2.603282816545173,0.0
1197,2.63711289620116,0.0
1198,2.650486347698262,0.0
1199,2.658486550345871,0.0
1200,2.835723718751927,0.0
1201,3.002132366769414,0.0
1202,3.4412854765785434,0.0
1203,4.048943972403109,0.0
1204,4.829545419103525,0.0
1205,5.905565071755974,0.0
1206,6.834266169653836,0.0
1207,8.028231132504533,0.0
1208,8.797221211886237,0.0
1209,9.461980809808672,0.0
1210,9.611739257800195,0.0
1211,8.973774666228945,0.0
1212,7.9306787860824866,0.0
1213,6.4926423995331355,0.0
1214,4.722103389423135,0.0
1215,2.9175450265262155,0.0
1216,1.2414842601010159,0.0
1217,0.13359638620488345,0.0
1218,-0.2726496465488015,0.0
1219,-0.14966707797556644,0.0
1220,0.44231137968726175,0.0
1221,1.3952032861163117,0.0
1222,2.6099058881113195,0.0
1223,3.515503856350395,0.0
1224,4.225922748730866,0.0
1225,4.319653385315444,0.0
1226,4.163633667193366,0.0
1227,3.61807309019473,0.0
1228,3.040559616952051,0.0
1229,2.421365769980794,0.0
1230,2.140522253448224,0.0
1231,2.082537027938981,0.0
1232,1.9466781321734115,0.0
1233,2.348410381733147,0.0
1234,2.469407026595893,0.0
1235,2.6878171957135324,0.0
1236,2.9877784983314752,0.0
1237,3.0687563093023478,0.0
1238,2.97242402565524,0.0
1239,2.978793338004218,0.0
1240,2.811275085487868,0.0
1241,2.6020114954207156,0.0
1242,2.6765128662885607,0.0
1243,2.690870731525624,0.0
1244,2.748178086373572,0.0
1245,2.659951471875488,0.0
1246,2.733730875083808,0.0
1247,2.766462126330752,0.0
1248,2.75556888404495,0.0
1249,2.8303820444966976,0.0
1250,2.911850308710846,0.0
1251,2.787469425364078,0.0
1252,2.805013418066327,0.0
1253,2.781251631899181,0.0
1254,2.7199892361778835,0.0
1255,2.7561950676423104,0.0
1256,2.7982155638759045,0.0
1257,2.772941672252288,0.0
1258,2.770598867022208,0.0
1259,2.801594314444303,0.0
1260,2.8232545679288923,0.0
1261,2.778198844727331,0.0
1262,2.944808269877695,0.0
1263,2.9003942891969645,0.0
1264,2.8809056390636862,0.0
1265,2.7831336888557243,0.0
1266,2.927679060633756,0.0
1267,2.8719286669888504,0.0
1268,2.8099768470864963,0.0
1269,2.842257428385844,0.0
1270,2.959712037428273,0.0
1271,2.9662247766808445,0.0
1272,2.897945726206364,0.0
1273,2.8193714753181283,0.0
1274,2.919623997536392,0.0
1275,2.911157934034837,0.0
1276,2.891384104432714,0.0
1277,2.940500699470075,0.0
1278,2.8950765942057317,0.0
1279,2.8238104426227113,0.0
1280,2.7826660631718854,0.0
1281,2.8606969243304152,0.0
1282,2.896083259643871,0.0
1283,2.9446394429914227,0.0
1284,3.0086726376478086,0.0
1285,2.974439882429574,0.0
1286,3.025328280523618,0.0
1287,2.9587190426471106,0.0
1288,2.920607633145965,0.0
1289,2.9853845630433624,0.0
1290,3.0485574534254947,0.0
1291,2.97230060284013,0.0
1292,3.021164195033381,0.0
1293,3.0218210415893023,0.0
1294,2.9343485689281295,0.0
1295,2.9774394922170266,0.0
1296,3.0063867422620105,0.0
1297,2.9913634786911283,0.0
1298,3.001834963202566,0.0
1299,3.0084293723769076,0.0
1300,3.2467569572970403,0.0
1301,3.3699307971323536,0.0
1302,3.80677115067051,0.0
1303,4.390141132707163,0.0
1304,5.231917710197658,0.0
1305,6.220572308500249,0.0
1306,7.227271644919764,0.0
1307,8.266849219844529,0.0
1308,9.255087003055152,0.0
1309,9.769307216215203,0.0
1310,9.994424478212512,0.0
1311,9.460999320669744,0.0
1312,8.466698233776484,0.0
1313,6.855569641787788,0.0
1314,5.2542761735500125,0.0
1315,3.2957803662051073,0.0
1316,1.726513515395758,0.0
1317,0.5067046579645642,0.0
1318,0.04436182917894671,0.0
1319,0.21896188420661034,0.0
1320,0.7262570513808457,0.0
1321,1.7799782836118294,0.0
1322,2.894564619683033,0.0
1323,3.834763456678224,0.0
1324,4.479822572713931,0.0
1325,4.625352520591543,0.0
1326,4.431397180650631,0.0
1327,4.011368944769832,0.0
1328,3.4724752364989637,0.0
1329,2.8856152437555633,0.0
1330,2.3782140561475913,0.0
1331,2.358818162245236,0.0
1332,2.3525295899291523,0.0
1333,2.5754983370324203,0.0
1334,2.9059442355830636,0.0
1335,3.0135999901353903,0.0
1336,3.246333443600271,0.0
1337,3.3337089842307606,0.0
1338,3.2746195437597785,0.0
1339,3.234952425326288,0.0
1340,3.109094618716738,0.0
1341,2.9890759289620554,0.0
1342,2.9365801704608074,0.0
1343,2.855927500891631,0.0
1344,2.927105869754616,0.0
1345,3.0239122243470615,0.0
1346,3.0089233260506245,0.0
1347,3.1466828730322987,0.0
1348,3.1364674098754657,0.0
1349,3.158060095496728,0.0
1350,3.1387048035444685,0.0
1351,3.084990319155154,0.0
1352,3.050911483025877,0.0
1353,3.0842470241088766,0.0
1354,3.138851094455372,0.0
1355,3.1341938756838927,0.0
1356,3.1708020110014616,0.0
1357,3.1948416366982566,0.0
1358,3.098579179289077,0.0
1359,3.0094633975456118,0.0
1360,3.0968928447979565,0.0
1361,3.0098660897371805,0.0
1362,3.0046998834564835,0.0
1363,3.1261199493888956,0.0
1364,3.1182677244407966,0.0
1365,3.123533203498552,0.0
1366,3.0984373211233693,0.0
1367,3.174685771032646,0.0
1368,3.2168561144528525,0.0
1369,3.1483439020322215,0.0
1370,3.13029273406233,0.0
1371,3.12433520023993,0.0
1372,3.1993154800865935,0.0
1373,3.150755031400604,0.0
1374,3.0762223405300446,0.0
1375,3.1583841137362927,0.0
1376,3.0756450637867334,0.0
1377,3.0502470663205967,0.0
1378,3.156554830160595,0.0
1379,3.194188596160069,0.0
1380,3.173354290944574,0.0
1381,3.0964876425606476,0.0
1382,3.126978990266436,0.0
1383,3.117712817913556,0.0
1384,3.2331822472063343,0.0
1385,3.1333198443888697,0.0
1386,3.1836033955815792,0.0
1387,3.168178277630462,0.0
1388,3.165664564658842,0.0
1389,3.161710793863512,0.0
1390,3.2331396073487926,0.0
1391,3.2373598069273477,0.0
1392,3.1785693982705614,0.0
1393,3.1728481160235065,0.0
1394,3.1817504760448863,0.0
1395,3.2651967438289824,0.0
1396,3.318023905953309,0.0
1397,3.17063670821267,0.0
1398,3.2985531657395235,0.0
1399,3.3112220029359882,0.0
1400,3.5148335677456637,0.0
1401,3.667885512793701,0.0
1402,4.073432588354002,0.0
1403,4.667451599700194,0.0
1404,5.396557786198835,0.0
1405,6.415191512303328,0.0
1406,7.47043372777852,0.0
1407,8.450101930348533,0.0
1408,9.356893871570962,0.0
1409,10.082415096624315,0.0
1410,10.203361075707779,0.0
1411,9.782776744985572,0.0
1412,8.740201210806097,0.0
1413,7.206602064863809,0.0
1414,5.44293769569546,0.0
1415,3.565995958650471,0.0
1416,1.838175464864469,0.0
1417,0.7045670342016055,0.0
1418,0.24320730360101095,0.0
1419,0.4202127623672296,0.0
1420,0.9520332185689417,0.0
1421,2.0236149298919344,0.0
1422,3.044326600021074,0.0
1423,4.11574471766469,0.0
1424,4.696014860436405,0.0
1425,4.8768234254733915,0.0
1426,4.627045832458128,0.0
1427,4.311400808839164,0.0
1428,3.5466502930106953,0.0
1429,3.0231885379080103,0.0
1430,2.681670138150019,0.0
1431,2.4633589338907855,0.0
1432,2.531129732329389,0.0
1433,2.88098180076064,0.0
1434,3.0230504686272592,0.0
1435,3.401548019845986,0.0
1436,3.5450231414667845,0.0
1437,3.593387237512063,0.0
1438,3.585403619249458,0.0
1439,3.5640956487166937,0.0
1440,3.379640198252112,0.0
1441,3.2409670367329086,0.0
1442,3.1891570002667256,0.0
1443,3.1849792095434584,0.0
1444,3.211204525823749,0.0
1445,3.3294240561879196,0.0
1446,3.307091843355328,0.0
1447,3.3362114945710664,0.0
1448,3.45249903230141,0.0
1449,3.3095427529442136,0.0
1450,3.3053871901643586,0.0
1451,3.3125131004983825,0.0
1452,3.361178520506034,0.0
1453,3.3748386675532873,0.0
1454,3.328598784979597,0.0
1455,3.434797847673608,0.0
1456,3.3847469771537475,0.0
1457,3.369510595206664,0.0
1458,3.400288172773605,0.0
1459,3.336968769517714,0.0
1460,3.3338116730474443,0.0
1461,3.3551852887713327,0.0
1462,3.395021633532523,0.0
1463,3.4339096034863394,0.0
1464,3.4088823713807126,0.0
1465,3.472613569096942,0.0
1466,3.3910280149122336,0.0
1467,3.3394344264357785,0.0
1468,3.408467626150087,0.0
1469,3.412937811099667,0.0
1470,3.421833934418633,0.0
1471,3.4344072087007405,0.0
1472,3.407892508791452,0.0
1473,3.4411475528043405,0.0
1474,3.3852777681516395,0.0
1475,3.4465846612664564,0.0
1476,3.469453112238818,0.0
1477,3.3909852029806014,0.0
1478,3.3822251090652924,0.0
1479,3.4575926491292055,0.0
1480,3.440055174963987,0.0
1481,3.4823603240287486,0.0
1482,3.399021562008206,0.0
1483,3.4455750697571057,0.0
1484,3.4618119130025335,0.0
1485,3.3436728904239326,0.0
1486,3.4913549249940123,0.0
1487,3.4703491932308608,0.0
1488,3.5109032876916033,0.0
1489,3.4930679473568396,0.0
1490,3.415241203285266,0.0
1491,3.5150203699790445,0.0
1492,3.3712192374561134,0.0
1493,3.4506647036612113,0.0
1494,3.4921729324317847,0.0
1495,3.459543808521628,0.0
1496,3.4036429537233923,0.0
1497,3.5529719599329184,0.0
1498,3.482229833404151,0.0
1499,3.6480366230647734,0.0
1500,3.686629272207707,0.0
1501,3.9457307488783666,0.0
1502,4.235567918046954,0.0
1503,4.861231197888641,0.0
1504,5.748810528821263,0.0
1505,6.674506687095992,0.0
1506,7.7729850827593925,0.0
1507,8.775843635890967,0.0
1508,9.699434994644909,0.0
1509,10.353351299182767,0.0
1510,10.436337635248606,0.0
1511,10.007201862918958,0.0
1512,9.06371647395295,0.0
1513,7.630084262526381,0.0
1514,5.733000538062187,0.0
1515,3.8943364640490503,0.0
1516,2.2805566825836694,0.0
1517,1.0697410440393509,0.0
1518,0.6124942349645033,0.0
1519,0.5594030653018862,0.0
1520,1.2519967692556442,0.0
1521,2.2637970606905498,0.0
1522,3.2872905018490903,0.0
1523,4.291793147345752,0.0
1524,4.933587550591571,0.0
1525,5.097061585789865,0.0
1526,4.866409852597133,0.0
1527,4.558980683322198,0.0
1528,3.934740887090495,0.0
1529,3.2471673192583395,0.0
1530,3.062008587270276,0.0
1531,2.8067229664410003,0.0
1532,2.8226666760326755,0.0
1533,3.075165115577695,0.0
1534,3.3932335541356675,0.0
1535,3.6534016897588786,0.0
1536,3.786971648657777,0.0
1537,3.8778400424954182,0.0
1538,4.008991139618476,0.0
1539,3.799860169105574,0.0
1540,3.734352683243735,0.0
1541,3.5196850916414175,0.0
1542,3.488208627810529,0.0
1543,3.5047709756059655,0.0
1544,3.4474114961609854,0.0
1545,3.5185541243609557,0.0
1546,3.65253217557731,0.0
1547,3.5919590371396417,0.0
1548,3.564245103874075,0.0
1549,3.541832381081127,0.0
1550,3.644802771343491,0.0
1551,3.600353795146736,0.0
1552,3.5988836232265484,0.0
1553,3.615397927617861,0.0
1554,3.5815305275227383,0.0
1555,3.5948599954018388,0.0
1556,3.606359478182393,0.0
1557,3.6412489590721044,0.0
1558,3.592078771083045,0.0
1559,3.612223436346878,0.0
1560,3.626479626848819,0.0
1561,3.535398356001291,0.0
1562,3.5825915825109176,0.0
1563,3.549059915157671,0.0
1564,3.676167567857968,0.0
1565,3.623762218572907,0.0
1566,3.7086110157173153,0.0
1567,3.5805316537096687,0.0
1568,3.6038789491668926,0.0
1569,3.639635611223244,0.0
1570,3.688196769191269,0.0
1571,3.632765990275276,0.0
1572,3.662293958268386,0.0
1573,3.6687696922239574,0.0
1574,3.7612745089929236,0.0
1575,3.653308814971583,0.0
1576,3.5730994753333083,0.0
1577,3.736083130910483,0.0
1578,3.71976162454944,0.0
1579,3.6621314293938663,0.0
1580,3.626348754516295,0.0
1581,3.5939797670326383,0.0
1582,3.6998152630790684,0.0
1583,3.6787468775596732,0.0
1584,3.6868798097142226,0.0
1585,3.6663253250397565,0.0
1586,3.6413333509443944,0.0
1587,3.62831357385406,0.0
1588,3.6937361156895294,0.0
1589,3.6602437834946455,0.0
1590,3.7388141230151106,0.0
1591,3.627334385070675,0.0
1592,3.633693355082793,0.0
1593,3.6728339815366478,0.0
1594,3.602350865583627,0.0
1595,3.6297812164286323,0.0
1596,3.747777465606584,0.0
1597,3.6799388534155986,0.0
1598,3.7627317200799495,0.0
1599,3.762454510775607,0.0
1600,3.9714969549233974,0.0
1601,4.183564297872532,0.0
1602,4.66297660479867,0.0
1603,5.028195615585164,0.0
1604,5.8390485213756325,0.0
1605,6.75982789274628,0.0
1606,7.97480914375131,0.0
1607,9.054648318543059,0.0
1608,9.87644723242051,0.0
1609,10.41137235323548,0.0
1610,10.717042673176161,0.0
1611,10.264771263362546,0.0
1612,9.299687282689499,0.0
1613,7.777843444849399,0.0
1614,5.994302973045304,0.0
1615,4.118090012884053,0.0
1616,2.4753434480038723,0.0
1617,1.3097668132986278,0.0
1618,0.7652108187909539,0.0
1619,0.844932604048195,0.0
1620,1.475361834114997,0.0
1621,2.5016302655315075,0.0
1622,3.4638103042577963,0.0
1623,4.57783500500335,0.0
1624,5.131396090293304,0.0
1625,5.34684526803527,0.0
1626,5.166783360301527,0.0
1627,4.664875049819612,0.0
1628,4.1452470794566585,0.0
1629,3.567820375850044,0.0
1630,3.1177854625312262,0.0
1631,2.918293202249013,0.0
1632,2.9965005107739864,0.0
1633,3.216876465982674,0.0
1634,3.444002831522422,0.0
1635,3.7564905793152676,0.0
1636,3.8932919528472487,0.0
1637,4.066648849221567,0.0
1638,4.088901751605442,0.0
1639,4.005533714004828,0.0
1640,3.8304809594628684,0.0
1641,3.687754344906086,0.0
1642,3.7555707645489607,0.0
1643,3.689448666452096,0.0
1644,3.6867809900349835,0.0
1645,3.6969621527056495,0.0
1646,3.8830614863446034,0.0
1647,3.8235747843174024,0.0
1648,3.8863621503345454,0.0
1649,3.95073949362146,0.0
1650,3.934863105067123,0.0
1651,3.8288659469179085,0.0
1652,3.8087977925892957,0.0
1653,3.824129231710763,0.0
1654,3.810319126636294,0.0
1655,3.8073580539778415,0.0
1656,3.8419229060733824,0.0
1657,3.789421055169357,0.0
1658,3.8117171691162217,0.0
1659,3.780867858863043,0.0
1660,3.832357350131915,0.0
1661,3.77563043137931,0.0
1662,3.844417370611702,0.0
1663,3.8715423623157896,0.0
1664,3.805694499348158,0.0
1665,3.8431647596261627,0.0
1666,3.867336990029628,0.0
1667,3.883245340034695,0.0
1668,3.8870495572077894,0.0
1669,3.9122666253261174,0.0
1670,3.857081397515347,0.0
1671,3.867626679923066,0.0
1672,3.888091462054789,0.0
1673,3.894969948252994,0.0
1674,3.901213239913397,0.0
1675,3.855101162829966,0.0
1676,3.8616451518997676,0.0
1677,3.9397411214638445,0.0
1678,3.8390098956892245,0.0
1679,3.9067813116205,0.0
1680,3.836880729495071,0.0
1681,3.8388834137029435,0.0
1682,3.9678398894901927,0.0
1683,3.883506821040084,0.0
1684,3.8486681297603162,0.0
1685,3.9042196925015853,0.0
1686,3.8826947817384356,0.0
1687,3.9384003293636214,0.0
1688,3.7967965000099775,0.0
1689,3.885463323135362,0.0
1690,3.8775278430428193,0.0
1691,3.8877658470811904,0.0
1692,3.823236015352357,0.0
1693,3.922940321382585,0.0
1694,3.8854432502119463,0.0
1695,3.871369295359314,0.0
1696,4.0318718210372255,0.0
1697,3.9653314931318038,0.0
1698,3.8951084212990845,0.0
1699,4.084836461023103,0.0
1700,4.149009512970025,0.0
1701,4.479383098299142,0.0
1702,4.764698332531287,0.0
1703,5.380481390370953,0.0
1704,6.11695049822551,0.0
1705,7.008603326533867,0.0
1706,8.170973711321139,0.0
1707,9.215423949762005,0.0
1708,10.076251644957456,0.0
1709,10.71322967925067,0.0
1710,10.952288243619911,0.0
1711,10.456679970232292,0.0
1712,9.492137764589236,0.0
1713,7.995545194400382,0.0
1714,6.330615122835104,0.0
1715,4.431083214723408,0.0
1716,2.712660399084573,0.0
1717,1.5377178053771337,0.0
1718,1.0564995299342348,0.0
1719,1.0121767793833008,0.0
1720,1.6964861748714402,0.0
1721,2.578810569073262,0.0
1722,3.763943659946847,0.0
1723,4.753954251667815,0.0
1724,5.383014746672381,0.0
1725,5.636865628540722,0.0
1726,5.378033598837234,0.0
1727,5.005402248050727,0.0
1728,4.481889833376544,0.0
1729,3.9795273168004144,0.0
1730,3.447419762137481,0.0
1731,3.231599875322819,0.0
1732,3.294346882363572,0.0
1733,3.5032772729024817,0.0
1734,3.7501447456725967,0.0
1735,4.0475103363667975,0.0
1736,4.203758994883104,0.0
1737,4.362898736861302,0.0
1738,4.219341747045633,0.0
1739,4.1997341344911865,0.0
1740,4.089600039074466,0.0
1741,3.9612530860196737,0.0
1742,3.9611060611701188,0.0
1743,3.856588649276846,0.0
1744,3.9373503067375197,0.0
1745,4.017945867806651,0.0
1746,4.034029517683104,0.0
1747,4.005827249691506,0.0
1748,4.101807731518195,0.0
1749,4.048519908337161,0.0
1750,4.065518103118644,0.0
1751,4.126628104325323,0.0
1752,4.131019129590024,0.0
1753,4.0362624225634125,0.0
1754,4.056374685399236,0.0
1755,4.125946419572249,0.0
1756,3.989444636415686,0.0
1757,4.071740957759901,0.0
1758,4.064770178399498,0.0
1759,4.1561189247565204,0.0
1760,4.065707298799335,0.0
1761,4.096341978308868,0.0
1762,4.053233768850931,0.0
1763,4.123606018118977,0.0
1764,4.135859276689921,0.0
1765,4.172545823386889,0.0
1766,4.107740255485521,0.0
1767,4.1305328336649145,0.0
1768,4.170654833526225,0.0
1769,4.223432475809496,0.0
1770,4.158891993805082,0.0
1771,4.169954519762243,0.0
1772,4.162164179733074,0.0
1773,4.164912212672922,0.0
1774,4.113377102097544,0.0
1775,4.148542978925024,0.0
1776,4.115006479772374,0.0
1777,4.071150264550151,0.0
1778,4.142110325574604,0.0
1779,4.159647850479806,0.0
1780,4.054611079765137,0.0
1781,4.154677522649546,0.0
1782,4.236501075088814,0.0
1783,4.11307061351549,0.0
1784,4.1147667132130366,0.0
1785,4.149576885167184,0.0
1786,4.209918929906343,0.0
1787,4.17470185798422,0.0
1788,4.169842657375465,0.0
1789,4.14048765750205,0.0
1790,4.22721255739681,0.0
1791,4.146349359119758,0.0
1792,4.185439769489978,0.0
1793,4.186139118422565,0.0
1794,4.236537862115991,0.0
1795,4.146334663581425,0.0
1796,4.20773722738021,0.0
1797,4.162496414277219,0.0
1798,4.126171121585163,0.0
1799,4.254252038280155,0.0
1800,4.422443180602349,0.0
1801,4.572584100689771,0.0
1802,4.946856213002015,0.0
1803,5.534190127553099,0.0
1804,6.230083990635012,0.0
1805,7.278362659995619,0.0
1806,8.294412743224186,0.0
1807,9.367778143156432,0.0
1808,10.277800332182148,0.0
1809,11.020531553240787,0.0
1810,11.12885841690263,0.0
1811,10.791901861699454,0.0
1812,9.754065590456069,0.0
1813,8.412082005953891,0.0
1814,6.58898429727588,0.0
1815,4.804990091749885,0.0
1816,3.030651500441527,0.0
1817,1.8694084322450202,0.0
1818,1.190163262996493,0.0
1819,1.337030034430164,0.0
1820,1.8788256488862998,0.0
1821,2.8259210461420876,0.0
1822,3.955730986861409,0.0
1823,4.9194260037054445,0.0
1824,5.639766392286311,0.0
1825,5.823855619985015,0.0
1826,5.673728163570022,0.0
1827,5.2617495374909495,0.0
1828,4.654564634566982,0.0
1829,4.075861678329854,0.0
1830,3.6227903813162823,0.0
1831,3.459177795767132,0.0
1832,3.457822269008607,0.0
1833,3.7080938663018475,0.0
1834,4.0402141062677295,0.0
1835,4.260156103881349,0.0
1836,4.426876042930832,0.0
1837,4.547678854644901,0.0
1838,4.5774659764895755,0.0
1839,4.43282863816532,0.0
1840,4.380657161575104,0.0
1841,4.232104068749504,0.0
1842,4.186005744539501,0.0
1843,4.114305497620827,0.0
1844,4.13988097216593,0.0
1845,4.235976984645048,0.0
1846,4.3423537222986415,0.0
1847,4.342501921884855,0.0
1848,4.333569852307713,0.0
1849,4.2125952313119495,0.0
1850,4.22460430241943,0.0
1851,4.326195440942337,0.0
1852,4.194516786708367,0.0
1853,4.251946926574182,0.0
1854,4.310741652583232,0.0
1855,4.331867419332891,0.0
1856,4.261414942553015,0.0
1857,4.255148207053677,0.0
1858,4.396850477743026,0.0
1859,4.316376266332488,0.0
1860,4.300885880238583,0.0
1861,4.347270364995085,0.0
1862,4.266159583744152,0.0
1863,4.3585126513737755,0.0
1864,4.289191230668231,0.0
1865,4.316933931664858,0.0
1866,4.354976758322651,0.0
1867,4.32539832843112,0.0
1868,4.300909497607389,0.0
1869,4.33561523940767,0.0
1870,4.25987085808449,0.0
1871,4.318179765882718,0.0
1872,4.289342362581401,0.0
1873,4.238387644807417,0.0
1874,4.328142964688186,0.0
1875,4.216763845072438,0.0
1876,4.379867672846644,0.0
1877,4.232641324926589,0.0
1878,4.392531045668334,0.0
1879,4.337601550057608,0.0
1880,4.414424144154072,0.0
1881,4.333961321901319,0.0
1882,4.252136092499332,0.0
1883,4.392848201644444,0.0
1884,4.427911944563965,0.0
1885,4.333706916600566,0.0
1886,4.412190599031476,0.0
1887,4.3430138919462005,0.0
1888,4.450292632316572,0.0
1889,4.38409190205154,0.0
1890,4.364512444317357,0.0
1891,4.465559507462848,0.0
1892,4.429699451798652,0.0
1893,4.502172951478739,0.0
1894,4.394125363499335,0.0
1895,4.377659383785938,0.0
1896,4.370317750464488,0.0
1897,4.4554415000783,0.0
1898,4.475274715075441,0.0
1899,4.451745308383829,0.0
1900,4.644293728406756,0.0
1901,4.7562951999808725,0.0
1902,5.178422669573404,0.0
1903,5.738897972283462,0.0
1904,6.511602311041534,0.0
1905,7.505830378234643,0.0
1906,8.520711309150656,0.0
1907,9.475961888070083,0.0
1908,10.415316019209975,0.0
1909,11.131338848676375,0.0
1910,11.427323377264798,0.0
1911,11.004174434971343,0.0
1912,10.04305084429091,0.0
1913,8.506533903409226,0.0
1914,6.821791902914,0.0
1915,4.95833009140056,0.0
1916,3.3118917680730666,0.0
1917,2.0022418440547733,0.0
1918,1.3752456752100457,0.0
1919,1.527451633870776,0.0
1920,2.1129705115263913,0.0
1921,3.0880024135386233,0.0
1922,4.121495022907738,0.0
1923,5.190393434095341,0.0
1924,5.88595904489195,0.0
1925,6.022702177358113,0.0
1926,5.894384108976916,0.0
1927,5.407359845748651,0.0
1928,4.823667144261691,0.0
1929,4.233716124830434,0.0
1930,3.8284337260645285,0.0
1931,3.6134060722511134,0.0
1932,3.6595589719279302,0.0
1933,3.903277738095069,0.0
1934,4.19571364136383,0.0
1935,4.48825002962364,0.0
1936,4.615976535564322,0.0
1937,4.720705561860559,0.0
1938,4.8233290487957285,0.0
1939,4.70086805222781,0.0
1940,4.619452641465617,0.0
1941,4.38549108981481,0.0
1942,4.362789334860226,0.0
1943,4.380370812530846,0.0
1944,4.3776457930294175,0.0
1945,4.3947237205624425,0.0
1946,4.475717531489884,0.0
1947,4.535230962416032,0.0
1948,4.480654436436152,0.0
1949,4.504251817906061,0.0
1950,4.508664737636705,0.0
1951,4.442139878179395,0.0
1952,4.446155452408295,0.0
1953,4.442088515382219,0.0
1954,4.507477957781985,0.0
1955,4.463412884811655,0.0
1956,4.496064234287384,0.0
1957,4.524051705813867,0.0
1958,4.549302629253246,0.0
1959,4.4646102244880375,0.0
1960,4.528391914415555,0.0
1961,4.475262051751462,0.0
1962,4.480610639381913,0.0
1963,4.506757834293512,0.0
1964,4.486967456878203,0.0
1965,4.51039116006932,0.0
1966,4.547566995328754,0.0
1967,4.485563009955915,0.0
1968,4.482953286077039,0.0
1969,4.484768190137528,0.0
1970,4.496293734230951,0.0
1971,4.523734549480061,0.0
1972,4.587625589244937,0.0
1973,4.600150829999858,0.0
1974,4.5463517616647415,0.0
1975,4.509445484863097,0.0
1976,4.642930751730403,0.0
1977,4.440726143773145,0.0
1978,4.5388405792914055,0.0
1979,4.479533809586284,0.0
1980,4.560794956675076,0.0
1981,4.421258931355583,0.0
1982,4.57570199430191,0.0
1983,4.512914548788563,0.0
1984,4.50140122065996,0.0
1985,4.516995669813088,0.0
1986,4.4951062163976,0.0
1987,4.579245938543832,0.0
1988,4.553540909360453,0.0
1989,4.525042109704861,0.0
1990,4.529759847974998,0.0
1991,4.505762685903,0.0
1992,4.591405537035258,0.0
1993,4.4874134112791335,0.0
1994,4.5622279040804345,0.0
1995,4.614049627840618,0.0
1996,4.576402068927205,0.0
1997,4.591819702506638,0.0
1998,4.609730218809338,0.0
1999,4.65335296549582,0.0
2000,4.71661037605462,0.0
2001,4.987097460517177,0.0
2002,5.334563917994793,0.0
2003,5.928189486284874,0.0
2004,6.5498449052834,0.0
2005,7.652431520834126,0.0
2006,8.678353579365062,0.0
2007,9.792790364180105,0.0
2008,10.76906776731291,0.0
2009,11.324971102582433,0.0
2010,11.527741351189295,0.0
2011,11.162238516291355,0.0
2012,10.246902607592997,0.0
2013,8.76345660371014,0.0
2014,7.0776045076610306,0.0
2015,5.132270649385409,0.0
2016,3.5249654539608106,0.0
2017,2.1519286280198946,0.0
2018,1.6155166622874426,0.0
2019,1.6885858949440484,0.0
2020,2.2396999813047858,0.0
2021,3.170354378637681,0.0
2022,4.339970996214729,0.0
2023,5.286156184149054,0.0
2024,5.964029078508512,0.0
2025,6.162557227119677,0.0
2026,6.029132274480107,0.0
2027,5.513502460863702,0.0
2028,5.037352750913942,0.0
2029,4.3977981444015475,0.0
2030,4.0392044544200765,0.0
2031,3.7941937608865635,0.0
2032,3.8780432913504312,0.0
2033,4.093832651947518,0.0
2034,4.439853442649266,0.0
2035,4.565789257323974,0.0
2036,4.811207202437102,0.0
2037,5.044949371004929,0.0
2038,4.967714667755591,0.0
2039,4.954614628172448,0.0
2040,4.718173972621662,0.0
2041,4.619253002911829,0.0
2042,4.48529152846767,0.0
2043,4.590723122890708,0.0
2044,4.593615567399594,0.0
2045,4.59808930286242,0.0
2046,4.685837687722619,0.0
2047,4.713767178055862,0.0
2048,4.755832172077075,0.0
2049,4.673183839487588,0.0
2050,4.708247880359243,0.0
2051,4.621685857532836,0.0
2052,4.6550813349311895,0.0
2053,4.676346630736065,0.0
2054,4.619933825735506,0.0
2055,4.729383886249684,0.0
2056,4.6219152820070395,0.0
2057,4.660749051646315,0.0
2058,4.713071771013429,0.0
2059,4.755241445193423,0.0
2060,4.685998048151451,0.0
2061,4.771427411047678,0.0
2062,4.704019026225953,0.0
2063,4.754968948384624,0.0
2064,4.792314598115391,0.0
2065,4.6323291162497355,0.0
2066,4.644391243974021,0.0
2067,4.645348917423171,0.0
2068,4.630864128058918,0.0
2069,4.626479721525904,0.0
2070,4.711723183192801,0.0
2071,4.7688577377598405,0.0
2072,4.739737974603561,0.0
2073,4.748785643263061,0.0
2074,4.710296248431967,0.0
2075,4.714242196777216,0.0
2076,4.800589154925287,0.0
2077,4.76365383978368,0.0
2078,4.725458345674799,0.0
2079,4.744106338277329,0.0
2080,4.754054248258068,0.0
2081,4.77409811336483,0.0
2082,4.816919841797603,0.0
2083,4.830150908061309,0.0
2084,4.773556011823977,0.0
2085,4.781903290919643,0.0
2086,4.842016331188784,0.0
2087,4.876765898351836,0.0
2088,4.793543299948834,0.0
2089,4.760312422075245,0.0
2090,4.777133543843422,0.0
2091,4.771118345862577,0.0
2092,4.783208544997107,0.0
2093,4.707298204964644,0.0
2094,4.782230552649009,0.0
2095,4.723669647599,0.0
2096,4.742481229143835,0.0
2097,4.836299313416005,0.0
2098,4.861409010967678,0.0
2099,4.932426005553678,0.0
2100,5.000023290322303,0.0
2101,5.128786795418127,0.0
2102,5.464593381572122,0.0
2103,6.062596644558859,0.0
2104,6.768965696749154,0.0
2105,7.689598356655399,0.0
2106,8.896939764576999,0.0
2107,9.859463485465154,0.0
2108,10.843495220753255,0.0
2109,11.585085029095353,0.0
2110,11.612350387506487,0.0
2111,11.34426870880477,0.0
2112,10.413517032378914,0.0
2113,8.984038380255011,0.0
2114,7.264115354587048,0.0
2115,5.396592321422273,0.0
2116,3.789807976283491,0.0
2117,2.406440869183724,0.0
2118,1.8598238191528913,0.0
2119,1.9933600005953136,0.0
2120,2.5053780408847546,0.0
2121,3.374987135934588,0.0
2122,4.453417171227449,0.0
2123,5.563482661230721,0.0
2124,6.188850460845934,0.0
2125,6.51932048491555,0.0
2126,6.3100260800075265,0.0
2127,5.9019923411251956,0.0
2128,5.3319655680747475,0.0
2129,4.722930294638088,0.0
2130,4.31034081145851,0.0
2131,3.983855274283827,0.0
2132,4.079801848205073,0.0
2133,4.323974897565097,0.0
2134,4.5559219500108945,0.0
2135,4.803443265197949,0.0
2136,5.091176508792615,0.0
2137,5.1568699793300405,0.0
2138,5.153364507068054,0.0
2139,5.058955940625532,0.0
2140,4.913645813447305,0.0
2141,4.831069672243944,0.0
2142,4.8584217578119056,0.0
2143,4.758198457887088,0.0
2144,4.778336280815773,0.0
2145,4.785707010688147,0.0
2146,4.9464573881974605,0.0
2147,4.836768617347454,0.0
2148,4.8299667813104215,0.0
2149,4.899683421193712,0.0
2150,4.821671414171603,0.0
2151,4.845407438949566,0.0
2152,4.841971046297611,0.0
2153,4.819434866521359,0.0
2154,4.848802569271846,0.0
2155,4.790670931839015,0.0
2156,4.795011640176553,0.0
2157,4.794040980192084,0.0
2158,4.834184556996764,0.0
2159,4.871055812336645,0.0
2160,4.933931934445485,0.0
2161,4.831587917736546,0.0
2162,4.919996954837827,0.0
2163,4.838412336693666,0.0
2164,4.8578285232062814,0.0
2165,4.9388146529820265,0.0
2166,4.949409986383709,0.0
2167,4.871095366425526,0.0
2168,4.838892729381238,0.0
2169,4.903906584340978,0.0
2170,4.829556388164084,0.0
2171,4.829958326752604,0.0
2172,4.819064733073671,0.0
2173,4.927913328097594,0.0
2174,4.839470645027885,0.0
2175,4.876486801370102,0.0
2176,4.95000780699971,0.0
2177,4.923646726757461,0.0
2178,4.926334284603479,0.0
2179,4.840708197846163,0.0
2180,4.9440870973938456,0.0
2181,4.883965333809138,0.0
2182,4.929426439521195,0.0
2183,4.959619710422269,0.0
2184,4.890651269277659,0.0
2185,4.9461862152121,0.0
2186,4.882505317618887,0.0
2187,4.962642057355734,0.0
2188,4.89446472222875,0.0
2189,4.938476665162648,0.0
2190,4.796619677665733,0.0
2191,4.894995140212033,0.0
2192,4.939616367504625,0.0
2193,4.902839965122617,0.0
2194,4.882931526830068,0.0
2195,4.859988935139441,0.0
2196,4.841404845903547,0.0
2197,4.8244836095322565,0.0
2198,4.916705175031454,0.0
2199,5.005979643845124,0.0
2200,5.129562908753471,0.0
2201,5.267568713897211,0.0
2202,5.708289724744533,0.0
2203,6.226707754189543,0.0
2204,6.986193215490465,0.0
2205,7.973982008515027,0.0
2206,8.94401356641039,0.0
2207,9.992851642422874,0.0
2208,10.96615643119613,0.0
2209,11.717434719738812,0.0
2210,11.976587130275142,0.0
2211,11.667175877334163,0.0
2212,10.590804655074967,0.0
2213,9.212792406618984,0.0
2214,7.539506653006354,0.0
2215,5.7025544414354306,0.0
2216,3.9883008589428033,0.0
2217,2.6586504335079137,0.0
2218,1.9882688462626783,0.0
2219,2.089530615137629,0.0
2220,2.580281237630643,0.0
2221,3.5258372875358175,0.0
2222,4.623564869496767,0.0
2223,5.559555054010338,0.0
2224,6.436052508627669,0.0
2225,6.569851975858157,0.0
2226,6.48012350021994,0.0
2227,6.087897917055861,0.0
2228,5.533381001105517,0.0
2229,4.832533437418456,0.0
2230,4.4523006024533185,0.0
2231,4.276233867091206,0.0
2232,4.338903241166794,0.0
2233,4.538656004559465,0.0
2234,4.882251279015687,0.0
2235,5.0097205218803,0.0
2236,5.186742594888588,0.0
2237,5.38306530452316,0.0
2238,5.390991375420197,0.0
2239,5.2912493612813964,0.0
2240,5.131940696909053,0.0
2241,4.99071423171807,0.0
2242,4.955089626598548,0.0
2243,4.948670213172247,0.0
2244,4.958504571887534,0.0
2245,4.964367956246605,0.0
2246,5.032850701923052,0.0
2247,4.995807580018835,0.0
2248,5.0705385286654225,0.0
2249,5.086582500521917,0.0
2250,5.090967188442072,0.0
2251,5.086988497311943,0.0
2252,5.129211497923594,0.0
2253,5.0160144084520315,0.0
2254,5.199258080188818,0.0
2255,5.161901988191918,0.0
2256,5.019160808521964,0.0
2257,5.018192107128216,0.0
2258,5.155326763234614,0.0
2259,5.1008484006176555,0.0
2260,5.101137550727252,0.0
2261,5.14443863962187,0.0
2262,5.120619893246564,0.0
2263,5.071239481922364,0.0
2264,5.0969804852663145,0.0
2265,5.103383403859687,0.0
2266,5.033283103088596,0.0
2267,5.143503978583225,0.0
2268,5.194796259226508,0.0
2269,4.980267541345256,0.0
2270,5.143142729171355,0.0
2271,5.133425607466916,0.0
2272,5.035736467341215,0.0
2273,5.101822489102198,0.0
2274,5.191172273982305,0.0
2275,5.086609081697682,0.0
2276,5.1955426361839345,0.0
2277,5.069242005358375,0.0
2278,5.082043463254267,0.0
2279,5.147270429181562,0.0
2280,5.086957220114341,0.0
2281,5.079203253204082,0.0
2282,5.06280038728689,0.0
2283,5.080491943569015,0.0
2284,5.082809152820491,0.0
2285,5.078800159789924,0.0
2286,5.0999025022715685,0.0
2287,5.156198226342318,0.0
2288,5.084723092631012,0.0
2289,5.176033217169153,0.0
2290,5.071537598511925,0.0
2291,5.214442321759702,0.0
2292,5.1296896285676095,0.0
2293,5.060655324631915,0.0
2294,5.203455788032108,0.0
2295,5.18962837278309,0.0
2296,5.1215119956238,0.0
2297,5.20613859540746,0.0
2298,5.215762662900228,0.0
2299,5.175531443225522,0.0
2300,5.378408060329415,0.0
2301,5.524506545888407,0.0
2302,5.872102806016148,0.0
2303,6.383568063711348,0.0
2304,7.167102443061397,0.0
2305,8.06584899837408,0.0
2306,9.070545013540297,0.0
2307,10.270473722944509,0.0
2308,11.184369276582007,0.0
2309,11.961692797835331,0.0
2310,12.212963182507444,0.0
2311,11.87117585991961,0.0
2312,10.920927083322013,0.0
2313,9.483227676836844,0.0
2314,7.717265757658366,0.0
2315,5.895641611855034,0.0
2316,4.267201981528023,0.0
2317,2.9876696882826623,0.0
2318,2.2588626896235207,0.0
2319,2.2468707171578632,0.0
2320,2.848269251471258,0.0
2321,3.715137890328072,0.0
2322,4.840726576332068,0.0
2323,5.822800233204043,0.0
2324,6.559792165753379,0.0
2325,6.871255648163333,0.0
2326,6.725879297818928,0.0
2327,6.266145374582863,0.0
2328,5.702559728168777,0.0
2329,5.033012627896137,0.0
2330,4.618962734129054,0.0
2331,4.389899520991243,0.0
2332,4.54671068836533,0.0
2333,4.647531101038193,0.0
2334,4.941369624252099,0.0
2335,5.353639625918302,0.0
2336,5.374206134174631,0.0
2337,5.477940481340429,0.0
2338,5.52542738259315,0.0
2339,5.4270766066050715,0.0
2340,5.3816351370428555,0.0
2341,5.309048030527786,0.0
2342,5.1898241923985715,0.0
2343,5.2253667269942135,0.0
2344,5.088713131655866,0.0
2345,5.166228821039193,0.0
2346,5.244289274494907,0.0
2347,5.323637535935667,0.0
2348,5.324226282584899,0.0
2349,5.264573921502047,0.0
2350,5.236793864895869,0.0
2351,5.252863679725965,0.0
2352,5.307176978436568,0.0
2353,5.261130542679452,0.0
2354,5.176443010248485,0.0
2355,5.188435984309846,0.0
2356,5.265651601817386,0.0
2357,5.273163987735066,0.0
2358,5.2405814045012535,0.0
2359,5.227380557544969,0.0
2360,5.174694950723386,0.0
2361,5.222584526713531,0.0
2362,5.180041287839212,0.0
2363,5.2503446044114215,0.0
2364,5.313310360765611,0.0
2365,5.187475735885755,0.0
2366,5.186618223928007,0.0
2367,5.290278082286526,0.0
2368,5.292727967977149,0.0
2369,5.276756097506491,0.0
2370,5.238003732976776,0.0
2371,5.357945576379653,0.0
2372,5.272619499631772,0.0
2373,5.3979203860855804,0.0
2374,5.216706925897043,0.0
2375,5.313317469368531,0.0
2376,5.186069022943371,0.0
2377,5.204972454224946,0.0
2378,5.254336225098816,0.0
2379,5.262691163172206,0.0
2380,5.177108465032738,0.0
2381,5.253747362746625,0.0
2382,5.185289466669135,0.0
2383,5.28076331823236,0.0
2384,5.217581370958354,0.0
2385,5.226256299594818,0.0
2386,5.385371173989025,0.0
2387,5.192559151145007,0.0
2388,5.351311912114573,0.0
2389,5.314214135297468,0.0
2390,5.291820225675035,0.0
2391,5.294905430367369,0.0
2392,5.290228136782109,0.0
2393,5.296034822491958,0.0
2394,5.33298157398176,0.0
2395,5.349773411289274,0.0
2396,5.368814498419405,0.0
2397,5.272407886979161,0.0
2398,5.312289179587323,0.0
2399,5.431428880023826,0.0
2400,5.4587210952001515,0.0
2401,5.642082888581816,0.0
2402,5.9984291185613525,0.0
2403,6.500229805972134,0.0
2404,7.276376812201972,0.0
2405,8.196362556639178,0.0
2406,9.268345461799823,0.0
2407,10.282824193487857,0.0
2408,11.299805968116043,0.0
2409,11.943378443153168,0.0
2410,12.22192082112199,0.0
2411,12.079928230086495,0.0
2412,11.024357895486002,0.0
2413,9.586210479788836,0.0
2414,7.898582573536592,0.0
2415,6.05868288992117,0.0
2416,4.253622451239613,0.0
2417,3.0341554589408637,0.0
2418,2.327186562009287,0.0
2419,2.3779147225366737,0.0
2420,2.8882472324768713,0.0
2421,3.7472731132189274,0.0
2422,4.822659514591707,0.0
2423,5.873700105162958,0.0
2424,6.56942830292395,0.0
2425,6.896669575733831,0.0
2426,6.691076231001637,0.0
2427,6.300413440529629,0.0
2428,5.792642287649178,0.0
2429,5.25904812402454,0.0
2430,4.767213731707432,0.0
2431,4.5282061923155945,0.0
2432,4.520185063500348,0.0
2433,4.7038458893665975,0.0
2434,5.1412146830097845,0.0
2435,5.30706024905246,0.0
2436,5.4781080331386445,0.0
2437,5.623650150405527,0.0
2438,5.6110984497749286,0.0
2439,5.548324811569909,0.0
2440,5.432866522416842,0.0
2441,5.2263467041114255,0.0
2442,5.213555100047524,0.0
2443,5.238784370822275,0.0
2444,5.198316432463368,0.0
2445,5.30836114859736,0.0
2446,5.293500882184333,0.0
2447,5.327979301118347,0.0
2448,5.320134564753656,0.0
2449,5.341286832836074,0.0
2450,5.383538550405462,0.0
2451,5.353106985332548,0.0
2452,5.34248083346942,0.0
2453,5.344628284297904,0.0
2454,5.374499396105288,0.0
2455,5.300992068358159,0.0
2456,5.353052654176744,0.0
2457,5.257749497108746,0.0
2458,5.467831239234194,0.0
2459,5.334437393783928,0.0
2460,5.418434475587383,0.0
2461,5.2912027804873025,0.0
2462,5.39952505140823,0.0
2463,5.4043186045268685,0.0
2464,5.379104773365095,0.0
2465,5.376534544583957,0.0
2466,5.398163738134001,0.0
2467,5.31581194774491,0.0
2468,5.345533104583078,0.0
2469,5.38137863926294,0.0
2470,5.389448153010249,0.0
2471,5.425468772650943,0.0
2472,5.407869467099631,0.0
2473,5.341820927210477,0.0
2474,5.442564077423385,0.0
2475,5.488845644543047,0.0
2476,5.425446317969903,0.0
2477,5.3096245461651455,0.0
2478,5.4011070903471,0.0
2479,5.43998245378477,0.0
2480,5.459685114296961,0.0
2481,5.3038989620822905,0.0
2482,5.413286897747362,0.0
2483,5.299521477142958,0.0
2484,5.442611585578841,0.0
2485,5.497958521540481,0.0
2486,5.4654818576658055,0.0
2487,5.484951257841164,0.0
2488,5.468780028213992,0.0
2489,5.38478848737277,0.0
2490,5.328818431233522,0.0
2491,5.485384122316441,0.0
2492,5.495112316057554,0.0
2493,5.500152396478779,0.0
2494,5.476121431888645,0.0
2495,5.465674814306867,0.0
2496,5.405125922678826,0.0
2497,5.44725654282625,0.0
2498,5.560482099831451,0.0
2499,5.5542260008466995,0.0
2500,5.6213222224334585,0.0
2501,5.833012890905718,0.0
2502,6.161435936538381,0.0
2503,6.6946521480587915,0.0
2504,7.411306873893972,0.0
2505,8.401098572887756,0.0
2506,9.41856361417558,0.0
2507,10.511612568093033,0.0
2508,11.417269549947598,0.0
2509,12.120991939567082,0.0
2510,12.319799667222963,0.0
2511,12.130206880855916,0.0
2512,11.362905576148098,0.0
2513,9.865557807576945,0.0
2514,8.15023806232796,0.0
2515,6.301568745335658,0.0
2516,4.4936117558758735,0.0
2517,3.2721835231013072,0.0
2518,2.6397466553752578,0.0
2519,2.618506724555503,0.0
2520,3.1156157842666836,0.0
2521,3.9597412200960673,0.0
2522,5.133043131028507,0.0
2523,6.088293438754601,0.0
2524,6.920897844198182,0.0
2525,7.177828480521157,0.0
2526,7.081663751436684,0.0
2527,6.580233595453622,0.0
2528,6.092108499582098,0.0
2529,5.534168695887499,0.0
2530,5.032819302326196,0.0
2531,4.723552211531294,0.0
2532,4.865726338016415,0.0
2533,4.974136293682006,0.0
2534,5.263227004553507,0.0
2535,5.5085068843947695,0.0
2536,5.68176017414769,0.0
2537,5.802109089954386,0.0
2538,5.866662871592344,0.0
2539,5.76800459332966,0.0
2540,5.610416156590011,0.0
2541,5.505701030880114,0.0
2542,5.45357235823766,0.0
2543,5.383244967481255,0.0
2544,5.437112319249818,0.0
2545,5.438124172304279,0.0
2546,5.489770297661214,0.0
2547,5.547855071630906,0.0
2548,5.504414435349696,0.0
2549,5.526257134349537,0.0
2550,5.564694122971912,0.0
2551,5.594400705975947,0.0
2552,5.497332891693446,0.0
2553,5.57394132152423,0.0
2554,5.516508050082329,0.0
2555,5.5222942874110075,0.0
2556,5.537747814560637,0.0
2557,5.605941377074296,0.0
2558,5.620335478984415,0.0
2559,5.59659105004086,0.0
2560,5.682838410794625,0.0
2561,5.588038077888118,0.0
2562,5.504920818966721,0.0
2563,5.626490514557491,0.0
2564,5.7080914741197075,0.0
2565,5.63710139824907,0.0
2566,5.712956149070824,0.0
2567,5.55778560608712,0.0
2568,5.715201843819793,0.0
2569,5.651742735505061,0.0
2570,5.626730119080155,0.0
2571,5.5768121221940286,0.0
2572,5.673561723268509,0.0
2573,5.625815256132209,0.0
2574,5.588148413571034,0.0
2575,5.643009077843822,0.0
2576,5.5659339788342574,0.0
2577,5.668272325106911,0.0
2578,5.5760790855282005,0.0
2579,5.540496404758202,0.0
2580,5.654447057272175,0.0
2581,5.561368224960408,0.0
2582,5.526035795250323,0.0
2583,5.54266290638418,0.0
2584,5.633323299066455,0.0
2585,5.6290629899468705,0.0
2586,5.734126296601455,0.0
2587,5.670812658222258,0.0
2588,5.636301814472304,0.0
2589,5.648205509031586,0.0
2590,5.610920764574879,0.0
2591,5.575324407526137,0.0
2592,5.618183208095594,0.0
2593,5.571091050687963,0.0
2594,5.7208026841958235,0.0
2595,5.679546269342352,0.0
2596,5.687423293106567,0.0
2597,5.6294271731750865,0.0
2598,5.6545896138459515,0.0
2599,5.55878107767384,0.0
2600,5.800144758716221,0.0
2601,6.0296138920349875,0.0
2602,6.4085689004008035,0.0
2603,6.8814358341168145,0.0
2604,7.609212668466073,0.0
2605,8.520797866057308,0.0
2606,9.592810711631138,0.0
2607,10.576585520167196,0.0
2608,11.620326551229278,0.0
2609,12.411445525702469,0.0
2610,12.586354361677838,0.0
2611,12.329193608233055,0.0
2612,11.463642113296041,0.0
2613,10.054109360052719,0.0
2614,8.32829453033928,0.0
2615,6.507868439903105,0.0
2616,4.746180512172051,0.0
2617,3.5169991863907497,0.0
2618,2.7932103304332148,0.0
2619,2.7209931726999694,0.0
2620,3.2443693107864515,0.0
2621,4.078878360594674,0.0
2622,5.101937107147162,0.0
2623,6.1056204153365226,0.0
2624,7.014852943328437,0.0
2625,7.324396356540779,0.0
2626,7.175350394251039,0.0
2627,6.868733408402291,0.0
2628,6.246312934870348,0.0
2629,5.707034088991337,0.0
2630,5.18590321464504,0.0
2631,4.9303964343089755,0.0
2632,4.965009609999578,0.0
2633,5.220913520970894,0.0
2634,5.5539011153826054,0.0
2635,5.660020956252183,0.0
2636,5.8680920003329,0.0
2637,6.055093525635587,0.0
2638,6.097222455501643,0.0
2639,5.97918306311283,0.0
2640,5.803497586947616,0.0
2641,5.684990646332298,0.0
2642,5.640262976948705,0.0
2643,5.577271693862199,0.0
2644,5.6381848094838976,0.0
2645,5.654597153182377,0.0
2646,5.618156468515574,0.0
2647,5.613527339453269,0.0
2648,5.7487562708744875,0.0
2649,5.679369102043474,0.0
2650,5.728513691334866,0.0
2651,5.759400228223595,0.0
2652,5.681531270497853,0.0
2653,5.756756197025232,0.0
2654,5.695138002176453,0.0
2655,5.648490041530751,0.0
2656,5.764352862601013,0.0
2657,5.6907644678307,0.0
2658,5.6702123891318745,0.0
2659,5.740895667645032,0.0
2660,5.768757189678389,0.0
2661,5.717041634322445,0.0
2662,5.718863023917644,0.0
2663,5.644025061866257,0.0
2664,5.756379960679415,0.0
2665,5.752266163704131,0.0
2666,5.770261397740584,0.0
2667,5.719315627784705,0.0
2668,5.795812320235679,0.0
2669,5.832469189398499,0.0
2670,5.681377774930978,0.0
2671,5.815293571312896,0.0
2672,5.720018667191019,0.0
2673,5.715790736294863,0.0
2674,5.7842593760469265,0.0
2675,5.6868694817743215,0.0
2676,5.740481315906426,0.0
2677,5.736786959324233,0.0
2678,5.6936628084859615,0.0
2679,5.7850470873490405,0.0
2680,5.718768062875462,0.0
2681,5.7662846833528985,0.0
2682,5.712039289742954,0.0
2683,5.752261843341353,0.0
2684,5.712956067369071,0.0
2685,5.718173817528248,0.0
2686,5.846139221830319,0.0
2687,5.703925805984882,0.0
2688,5.7249583438320135,0.0
2689,5.791122842122934,0.0
2690,5.7851305040553225,0.0
2691,5.7407628586875035,0.0
2692,5.7583203996230266,0.0
2693,5.736570182385018,0.0
2694,5.737410534099312,0.0
2695,5.707311835463575,0.0
2696,5.766029189846804,0.0
2697,5.7761726255544135,0.0
2698,5.774565215645705,0.0
2699,5.926000771264787,0.0
2700,5.906891544193996,0.0
2701,6.140680223763205,0.0
2702,6.458449269946076,0.0
2703,7.083767789761263,0.0
2704,7.749423831657465,0.0
2705,8.62943879870172,0.0
2706,9.716739127616226,0.0
2707,10.724702424105857,0.0
2708,11.600807477984684,0.0
2709,12.487096641548057,0.0
2710,12.82463489072796,0.0
2711,12.390624964383168,0.0
2712,11.652716985561511,0.0
2713,10.294014297613595,0.0
2714,8.596081810611842,0.0
2715,6.672358333954274,0.0
2716,4.942549235792651,0.0
2717,3.593015438728162,0.0
2718,2.867162662390627,0.0
2719,2.8186776073228255,0.0
2720,3.3158341164645937,0.0
2721,4.258708834264357,0.0
2722,5.287131569276315,0.0
2723,6.350127503084012,0.0
2724,7.121664520082809,0.0
2725,7.389989446761048,0.0
2726,7.39126749251321,0.0
2727,6.877558557723326,0.0
2728,6.408082673876522,0.0
2729,5.796837427335109,0.0
2730,5.327423396986257,0.0
2731,5.091293264082798,0.0
2732,5.110579773838431,0.0
2733,5.243027470372831,0.0
2734,5.516173654293086,0.0
2735,5.686051196410498,0.0
2736,6.027917050056689,0.0
2737,6.094073914655837,0.0
2738,6.1859414626864035,0.0
2739,6.085032907435234,0.0
2740,5.887822535750309,0.0
2741,5.869082447420398,0.0
2742,5.675760881909163,0.0
2743,5.597959900017267,0.0
2744,5.709893384707935,0.0
2745,5.712243111041408,0.0
2746,5.723228316293471,0.0
2747,5.812119320119938,0.0
2748,5.841371719152435,0.0
2749,5.8054264554726895,0.0
2750,5.886455788683943,0.0
2751,5.821238566456084,0.0
2752,5.842010188165657,0.0
2753,5.908361599854931,0.0
2754,5.869342619224027,0.0
2755,5.8167922862646675,0.0
2756,5.836096783893457,0.0
2757,5.833462207358525,0.0
2758,5.808412568308789,0.0
2759,5.818289231190783,0.0
2760,5.805624466834133,0.0
2761,5.805994579853825,0.0
2762,5.833785515339972,0.0
2763,5.842432342408622,0.0
2764,5.875328530160097,0.0
2765,5.8081359420955705,0.0
2766,5.911874653334674,0.0
2767,5.953682077369184,0.0
2768,5.863489884603183,0.0
2769,6.037202795675597,0.0
2770,5.881995370679248,0.0
2771,5.797848217399207,0.0
2772,5.871170380456656,0.0
2773,5.8881126909982795,0.0
2774,5.833490636938061,0.0
2775,5.820057663414058,0.0
2776,5.831791339194843,0.0
2777,5.794432743816738,0.0
2778,5.783513793780407,0.0
2779,5.8349569108277315,0.0
2780,5.817323582118026,0.0
2781,5.7321208033650155,0.0
2782,5.819329230226163,0.0
2783,5.731269235722946,0.0
2784,5.757337241602244,0.0
2785,5.955340171490385,0.0
2786,5.941533264239471,0.0
2787,5.776216532174732,0.0
2788,5.935494531022464,0.0
2789,5.859762352035985,0.0
2790,5.839519624074142,0.0
2791,5.9211049489391065,0.0
2792,5.9343162078838745,0.0
2793,5.922814617210238,0.0
2794,5.909327570599611,0.0
2795,5.800489287351587,0.0
2796,5.816034577084645,0.0
2797,5.859629982771937,0.0
2798,5.9759513979375845,0.0
2799,6.036700051171764,0.0
2800,6.093410102522013,0.0
2801,6.213980131637033,0.0
2802,6.485582162182335,0.0
2803,7.032359700885,0.0
2804,7.806500220735725,0.0
2805,8.765290157976034,0.0
2806,9.693996517674632,0.0
2807,10.886711978323262,0.0
2808,11.746481724428943,0.0
2809,12.530454295211372,0.0
2810,12.933527226511643,0.0
2811,12.651055958227476,0.0
2812,11.708036781091941,0.0
2813,10.379379132662194,0.0
2814,8.70651880991701,0.0
2815,6.943544822172889,0.0
2816,5.17502601412287,0.0
2817,3.6759275517464074,0.0
2818,3.0688042714704316,0.0
2819,2.9102733275569452,0.0
2820,3.3739505936631375,0.0
2821,4.235443428128053,0.0
2822,5.33308339022725,0.0
2823,6.41462139650061,0.0
2824,7.225962711835356,0.0
2825,7.550294920420459,0.0
2826,7.3343041670369855,0.0
2827,6.978226000464035,0.0
2828,6.481537344532297,0.0
2829,5.80869740957741,0.0
2830,5.324479996568179,0.0
2831,5.100695456727556,0.0
2832,5.129355694576487,0.0
2833,5.429019331298672,0.0
2834,5.626555470243226,0.0
2835,5.82508894325911,0.0
2836,6.116084597221996,0.0
2837,6.262817269515704,0.0
2838,6.2805593272733535,0.0
2839,6.132502752533178,0.0
2840,6.063151109556034,0.0
2841,5.925373756495795,0.0
2842,5.826508049991712,0.0
2843,5.814768555817153,0.0
2844,5.869110590319407,0.0
2845,5.914407862678116,0.0
2846,5.897409753350752,0.0
2847,6.06161413306035,0.0
2848,6.049671198314565,0.0
2849,6.0043796269228995,0.0
2850,6.005679329481351,0.0
2851,5.962174005211062,0.0
2852,5.968845235138076,0.0
2853,5.972283152162509,0.0
2854,5.971636812635682,0.0
2855,5.920417942624789,0.0
2856,5.973610571731675,0.0
2857,5.8843269579202975,0.0
2858,5.97132903554529,0.0
2859,5.977795297272113,0.0
2860,5.9883238913928505,0.0
2861,5.9317919705231255,0.0
2862,5.995488178363834,0.0
2863,6.122569750782894,0.0
2864,6.044828093707979,0.0
2865,6.053820905542458,0.0
2866,6.089858409228184,0.0
2867,6.005258106398057,0.0
2868,5.978921357787661,0.0
2869,5.942088292913152,0.0
2870,6.0384233991683764,0.0
2871,5.982869282695232,0.0
2872,5.932840910477339,0.0
2873,6.027206752785103,0.0
2874,5.959826586493878,0.0
2875,6.045542968622523,0.0
2876,5.966256044513784,0.0
2877,6.008456169583918,0.0
2878,5.888030121316915,0.0
2879,6.006350551720513,0.0
2880,6.0536523415169246,0.0
2881,6.089054451349246,0.0
2882,5.952245188269812,0.0
2883,6.072210116469301,0.0
2884,5.9430013594325075,0.0
2885,6.001810292281374,0.0
2886,6.0650024195442365,0.0
2887,6.048571418475026,0.0
2888,6.1059417234832924,0.0
2889,6.079954420886106,0.0
2890,6.024004471442772,0.0
2891,6.205017212027153,0.0
2892,6.069714501598639,0.0
2893,6.10292203257366,0.0
2894,6.0178297565008565,0.0
2895,6.041275430927516,0.0
2896,6.079188958834401,0.0
2897,6.0957611579510305,0.0
2898,6.08914696320285,0.0
2899,6.157278762601426,0.0
2900,6.202359126469794,0.0
2901,6.505799391017955,0.0
2902,6.763115994440087,0.0
2903,7.294784203586083,0.0
2904,7.869778092515774,0.0
2905,8.844368884874555,0.0
2906,9.829242608314656,0.0
2907,11.008542763566616,0.0
2908,11.97628166078093,0.0
2909,12.655656013994037,0.0
2910,13.042482552048892,0.0
2911,12.842181633960553,0.0
2912,11.848602245701162,0.0
2913,10.647698703244124,0.0
2914,8.8389489438744,0.0
2915,7.088012420759028,0.0
2916,5.3176890288209675,0.0
2917,3.999056804267317,0.0
2918,3.170477847175611,0.0
2919,3.078435664177846,0.0
2920,3.5814143382119803,0.0
2921,4.470310375166246,0.0
2922,5.533755576487243,0.0
2923,6.62254406585165,0.0
2924,7.351682242067168,0.0
2925,7.700129172495887,0.0
2926,7.568552591204837,0.0
2927,7.220877924441309,0.0
2928,6.693404120476055,0.0
2929,6.08624418536067,0.0
2930,5.632090336386294,0.0
2931,5.405349879949496,0.0
2932,5.342911157339013,0.0
2933,5.526379325272658,0.0
2934,5.832196784496426,0.0
2935,6.044840147976929,0.0
2936,6.3309952112133,0.0
2937,6.422765341872278,0.0
2938,6.388234803331596,0.0
2939,6.4429037764015185,0.0
2940,6.253458885967067,0.0
2941,6.084237586548721,0.0
2942,6.056183997316864,0.0
2943,5.971712249025251,0.0
2944,6.017412276565489,0.0
2945,6.011054431168099,0.0
2946,6.147675088349951,0.0
2947,6.067998257203492,0.0
2948,6.0678686246986455,0.0
2949,6.1527198850638065,0.0
2950,6.130033092649897,0.0
2951,6.098107137010556,0.0
2952,6.265486685143504,0.0
2953,6.124276511276276,0.0
2954,6.072615328214053,0.0
2955,6.0838295258925355,0.0
2956,6.177247545579371,0.0
2957,6.111225902845301,0.0
2958,6.243039999839755,0.0
2959,6.187523803221216,0.0
2960,6.243581699629698,0.0
2961,6.092556504052794,0.0
2962,6.278904797537205,0.0
2963,6.21805637980267,0.0
2964,6.179222567702421,0.0
2965,6.131653789477746,0.0
2966,6.163239526978258,0.0
2967,6.2128547251023365,0.0
2968,6.194789779790693,0.0
2969,6.140745604937041,0.0
2970,6.210486664806907,0.0
2971,6.226329490644785,0.0
2972,6.200576870208023,0.0
2973,6.194839453958314,0.0
2974,6.2219016967238945,0.0
2975,6.239720869586645,0.0
2976,6.254353418407666,0.0
2977,6.113068868428087,0.0
2978,6.1832182152492425,0.0
2979,6.124607037113177,0.0
2980,6.241660675194051,0.0
2981,6.236264097003953,0.0
2982,6.125955771532793,0.0
2983,6.199855541181531,0.0
2984,6.197228816264456,0.0
2985,6.083231875198484,0.0
2986,6.096669598693911,0.0
2987,6.215139788101391,0.0
2988,6.189813660039121,0.0
2989,6.1499178456626975,0.0
2990,6.166076600762605,0.0
2991,6.222717587013588,0.0
2992,6.115428681489731,0.0
2993,6.1950961287739466,0.0
2994,6.226518537361458,0.0
2995,6.2418244121968876,0.0
2996,6.309115723882862,0.0
2997,6.207138425058942,0.0
2998,6.196638157583828,0.0
2999,6.290165757456515,0.0
3000,6.276285572386178,0.0
3001,6.504724767878461,0.0
3002,6.893284669678259,0.0
3003,7.427438643625255,0.0
3004,8.006739080188993,0.0
3005,8.943786722666278,0.0
3006,10.089200701901174,0.0
3007,11.195196684185017,0.0
3008,12.130958837776003,0.0
3009,12.897460003246962,0.0
3010,13.225161226451398,0.0
3011,13.106710620597564,0.0
3012,12.192620603306448,0.0
3013,10.882773770895074,0.0
3014,9.112310594380087,0.0
3015,7.323921940635833,0.0
3016,5.4600264242692536,0.0
3017,4.174404253641013,0.0
3018,3.3861106670524426,0.0
3019,3.3018461409775957,0.0
3020,3.794125643599843,0.0
3021,4.529506537216912,0.0
3022,5.6765867113073325,0.0
3023,6.706276366372885,0.0
3024,7.4466001700379145,0.0
3025,7.819135578869222,0.0
3026,7.667349808670053,0.0
3027,7.30716647380111,0.0
3028,6.7546256564672795,0.0
3029,6.119599859709778,0.0
3030,5.757287272764714,0.0
3031,5.472198211201569,0.0
3032,5.426463417976866,0.0
3033,5.675408420904518,0.0
3034,5.861556472960468,0.0
3035,6.187393128100376,0.0
3036,6.453283218814841,0.0
3037,6.495217429709571,0.0
3038,6.669806415382025,0.0
3039,6.466710385040767,0.0
3040,6.471520050962044,0.0
3041,6.278757973499037,0.0
3042,6.217690950518184,0.0
3043,6.257406331043996,0.0
3044,6.247930673527935,0.0
3045,6.1795259851302315,0.0
3046,6.2462529540577245,0.0
3047,6.308456040425777,0.0
3048,6.26239045885654,0.0
3049,6.30409295163273,0.0
3050,6.200851968800411,0.0
3051,6.317358607021072,0.0
3052,6.247019104566447,0.0
3053,6.293871409170828,0.0
3054,6.203735174130674,0.0
3055,6.202113551645779,0.0
3056,6.2098028626793145,0.0
3057,6.260963471536457,0.0
3058,6.360181386640638,0.0
3059,6.28755119173213,0.0
3060,6.260284735678915,0.0
3061,6.283117858986276,0.0
3062,6.221666350195789,0.0
3063,6.249710360256633,0.0
3064,6.34111651631683,0.0
3065,6.307971807880145,0.0
3066,6.271319119730769,0.0
3067,6.319554729082413,0.0
3068,6.33099076534017,0.0
3069,6.385664671378519,0.0
3070,6.324930255691376,0.0
3071,6.199214171525107,0.0
3072,6.2924923261386905,0.0
3073,6.298319939103193,0.0
3074,6.3367965582207875,0.0
3075,6.2588605124088685,0.0
3076,6.345493652981789,0.0
3077,6.321172310905172,0.0
3078,6.341726649458952,0.0
3079,6.391371663231668,0.0
3080,6.271072420573943,0.0
3081,6.314267797126132,0.0
3082,6.4648418761089435,0.0
3083,6.352804523048027,0.0
3084,6.237765814868192,0.0
3085,6.301762254474732,0.0
3086,6.32670111776075,0.0
3087,6.352560645432763,0.0
3088,6.293118722067316,0.0
3089,6.195885439967423,0.0
3090,6.351740356823462,0.0
3091,6.262094351953,0.0
3092,6.351954967691249,0.0
3093,6.379980061928957,0.0
3094,6.312474473759098,0.0
3095,6.362400737827667,0.0
3096,6.338745489031158,0.0
3097,6.281364138777202,0.0
3098,6.417148634552512,0.0
3099,6.429254742066562,0.0
3100,6.536129836769797,0.0
3101,6.743551009157409,0.0
3102,7.0776454478898545,0.0
3103,7.384065236570079,0.0
3104,8.26373228677181,0.0
3105,9.072675573482497,0.0
3106,10.135790044834284,0.0
3107,11.194236119071974,0.0
3108,12.111667316238286,0.0
3109,12.908232350836485,0.0
3110,13.315574068786951,0.0
3111,13.127445377540923,0.0
3112,12.245296380542966,0.0
3113,10.948131233832079,0.0
3114,9.25569520792702,0.0
3115,7.45606626290612,0.0
3116,5.600316142843515,0.0
3117,4.282719245854729,0.0
3118,3.5315787430447734,0.0
3119,3.4299251835643036,0.0
3120,3.8285570961855147,0.0
3121,4.644269605751218,0.0
3122,5.694508560415195,0.0
3123,6.801706871470022,0.0
3124,7.62588957016717,0.0
3125,7.850897273191318,0.0
3126,7.9577442405782595,0.0
3127,7.530189002905817,0.0
3128,6.9474476181190346,0.0
3129,6.384276454117008,0.0
3130,5.90308554138424,0.0
3131,5.5785269847516465,0.0
3132,5.518057039192421,0.0
3133,5.883255473715396,0.0
3134,6.121934060775429,0.0
3135,6.352889403198375,0.0
3136,6.644618466311516,0.0
3137,6.754437878734771,0.0
3138,6.775930719895748,0.0
3139,6.570414481816667,0.0
3140,6.4773918246936,0.0
3141,6.372056806825009,0.0
3142,6.273083760298708,0.0
3143,6.316715607073474,0.0
3144,6.304859982492109,0.0
3145,6.326938770930906,0.0
3146,6.269538799772488,0.0
3147,6.377625956654038,0.0
3148,6.404989541958206,0.0
3149,6.397168382649999,0.0
3150,6.402954273442997,0.0
3151,6.384038536030563,0.0
3152,6.378511710205058,0.0
3153,6.389729691031078,0.0
3154,6.395063779554309,0.0
3155,6.36190712924169,0.0
3156,6.393813839430293,0.0
3157,6.3797768057515665,0.0
3158,6.417232409073399,0.0
3159,6.477263109626714,0.0
3160,6.381540989078093,0.0
3161,6.399559658463163,0.0
3162,6.420184768127197,0.0
3163,6.416819860355976,0.0
3164,6.381407804758516,0.0
3165,6.427941073483621,0.0
3166,6.309539992609844,0.0
3167,6.524520710390609,0.0
3168,6.417920939653566,0.0
3169,6.334169357513871,0.0
3170,6.5023799121156785,0.0
3171,6.357031695768247,0.0
3172,6.477306771313867,0.0
3173,6.455414585009248,0.0
3174,6.359260913817461,0.0
3175,6.445743774783614,0.0
3176,6.4839366768474065,0.0
3177,6.529012570208701,0.0
3178,6.348321136672606,0.0
3179,6.491260275854532,0.0
3180,6.504591715842362,0.0
3181,6.458107567368674,0.0
3182,6.4319312348404205,0.0
3183,6.433721363476062,0.0
3184,6.427848777287952,0.0
3185,6.462228082956088,0.0
3186,6.460183034829523,0.0
3187,6.462967295788245,0.0
3188,6.485353439830961,0.0
3189,6.3917679662474765,0.0
3190,6.5077364047407675,0.0
3191,6.449634581406928,0.0
3192,6.444480075675345,0.0
3193,6.5220008364086395,0.0
3194,6.361067322401573,0.0
3195,6.491726952560898,0.0
3196,6.512469625881154,0.0
3197,6.460453268453414,0.0
3198,6.352811538113918,0.0
3199,6.5833789404765435,0.0
3200,6.59308470844668,0.0
3201,6.792969650087393,0.0
3202,7.222382579576796,0.0
3203,7.574235102679933,0.0
3204,8.294611618594772,0.0
3205,9.248475527611857,0.0
3206,10.276281952835719,0.0
3207,11.312848667953105,0.0
3208,12.38659908196895,0.0
3209,13.071806788708912,0.0
3210,13.410564844552383,0.0
3211,13.1964383049099,0.0
3212,12.386365831703504,0.0
3213,11.071481381445789,0.0
3214,9.32469679423867,0.0
3215,7.579970041663351,0.0
3216,5.8142579212104,0.0
3217,4.398804976627002,0.0
3218,3.5704351766209634,0.0
3219,3.5550752799648793,0.0
3220,3.846364011616451,0.0
3221,4.78191711941998,0.0
3222,5.937353671703287,0.0
3223,6.9374468012750965,0.0
3224,7.694529502446651,0.0
3225,8.142435885190803,0.0
3226,8.068402969490533,0.0
3227,7.665431802332657,0.0
3228,7.16342766729056,0.0
3229,6.587025755192468,0.0
3230,6.008307245674862,0.0
3231,5.8588470592570605,0.0
3232,5.806999767150078,0.0
3233,6.057727480080354,0.0
3234,6.262489564170435,0.0
3235,6.405014224939067,0.0
3236,6.691246200435401,0.0
3237,6.80407692089809,0.0
3238,6.919309182222948,0.0
3239,6.791636610539433,0.0
3240,6.560226795585888,0.0
3241,6.541101033122689,0.0
3242,6.339932196662256,0.0
3243,6.4620768190341185,0.0
3244,6.471083508185987,0.0
3245,6.337663832127335,0.0
3246,6.519586703856281,0.0
3247,6.573981082978414,0.0
3248,6.598863453544678,0.0
3249,6.559030963099892,0.0
3250,6.584152470117011,0.0
3251,6.521643422244702,0.0
3252,6.515934335540956,0.0
3253,6.510582402083783,0.0
3254,6.580454029973221,0.0
3255,6.555282802277624,0.0
3256,6.535751703097429,0.0
3257,6.482460488842649,0.0
3258,6.615446916273559,0.0
3259,6.456055015161034,0.0
3260,6.546116449601093,0.0
3261,6.47376690265795,0.0
3262,6.485874197155179,0.0
3263,6.578582938619725,0.0
3264,6.433486534684026,0.0
3265,6.500985069829153,0.0
3266,6.505119499234125,0.0
3267,6.495886874540251,0.0
3268,6.549629805178037,0.0
3269,6.569027948461305,0.0
3270,6.584702594342006,0.0
3271,6.525685007259953,0.0
3272,6.507550291500019,0.0
3273,6.5804717934951915,0.0
3274,6.562364156756424,0.0
3275,6.5231251303347,0.0
3276,6.497695576905194,0.0
3277,6.544382177471263,0.0
3278,6.513948416510981,0.0
3279,6.563024469570016,0.0
3280,6.528416262267345,0.0
3281,6.452807014260803,0.0
3282,6.592593266948299,0.0
3283,6.490589526543936,0.0
3284,6.474924858444882,0.0
3285,6.4743751373293765,0.0
3286,6.532795180791018,0.0
3287,6.489966294984476,0.0
3288,6.638257839366999,0.0
3289,6.542010554877758,0.0
3290,6.5009075320474965,0.0
3291,6.547872851379767,0.0
3292,6.476177204375849,0.0
3293,6.535826211797188,0.0
3294,6.516623370082607,0.0
3295,6.62603875388103,0.0
3296,6.545645404919886,0.0
3297,6.600007685357243,0.0
3298,6.594321983949491,0.0
3299,6.619435386410492,0.0
3300,6.623462391529216,0.0
3301,6.893034656320338,0.0
3302,7.1916445590887585,0.0
3303,7.661121537741334,0.0
3304,8.270814161882635,0.0
3305,9.22579018338907,0.0
3306,10.3118295079801,0.0
3307,11.30028365144399,0.0
3308,12.360442210203061,0.0
3309,13.12887379125334,0.0
3310,13.515755635913102,0.0
3311,13.32784469811143,0.0
3312,12.570475728861709,0.0
3313,11.20804854885737,0.0
3314,9.479234326719602,0.0
3315,7.632719295556423,0.0
3316,5.84183603894331,0.0
3317,4.502676962979501,0.0
3318,3.7282698243691654,0.0
3319,3.5612007092645337,0.0
3320,3.9955566109673692,0.0
3321,4.856962149069254,0.0
3322,5.841063184566116,0.0
3323,6.9789256110556135,0.0
3324,7.606958609490535,0.0
3325,8.18037702748984,0.0
3326,8.053707130686632,0.0
3327,7.804111593251262,0.0
3328,7.145437944544,0.0
3329,6.498097462366213,0.0
3330,6.121071257202062,0.0
3331,5.857493657433652,0.0
3332,5.871530266578525,0.0
3333,5.9837978069787034,0.0
3334,6.252886982452781,0.0
3335,6.496199203590209,0.0
3336,6.772505001606492,0.0
3337,6.886621793758605,0.0
3338,6.877724639305702,0.0
3339,6.755948612486058,0.0
3340,6.739540193304185,0.0
3341,6.603909085355802,0.0
3342,6.517755001968284,0.0
3343,6.410253134079664,0.0
3344,6.413266602209182,0.0
3345,6.430221706021221,0.0
3346,6.546154625193037,0.0
3347,6.64541028824764,0.0
3348,6.6977519935071514,0.0
3349,6.601316313262108,0.0
3350,6.590345909104699,0.0
3351,6.637981139021649,0.0
3352,6.6391951829822755,0.0
3353,6.579395566045225,0.0
3354,6.567105054822751,0.0
3355,6.5953265521469655,0.0
3356,6.597033639810857,0.0
3357,6.541315463839991,0.0
3358,6.572826637954684,0.0
3359,6.591982066103632,0.0
3360,6.542671358582941,0.0
3361,6.550440778078357,0.0
3362,6.5708398088563715,0.0
3363,6.639285584943885,0.0
3364,6.594393693783568,0.0
3365,6.610843315075403,0.0
3366,6.6008376731094565,0.0
3367,6.512758048527118,0.0
3368,6.6154254154251415,0.0
3369,6.522574790983602,0.0
3370,6.622573243407899,0.0
3371,6.592022495563638,0.0
3372,6.5055937849230485,0.0
3373,6.564060015127594,0.0
3374,6.583369177844722,0.0
3375,6.6084162449460555,0.0
3376,6.641955979168027,0.0
3377,6.66155456104654,0.0
3378,6.6484344284969445,0.0
3379,6.645587203440239,0.0
3380,6.667092769257527,0.0
3381,6.649343762118454,0.0
3382,6.706861300362056,0.0
3383,6.729465538830157,0.0
3384,6.5398271539189095,0.0
3385,6.655044358341827,0.0
3386,6.687944351461456,0.0
3387,6.66671089358902,0.0
3388,6.667385714050486,0.0
3389,6.577401860898054,0.0
3390,6.614060955166024,0.0
3391,6.649885017428914,0.0
3392,6.697880005289496,0.0
3393,6.625438764897615,0.0
3394,6.592267096113961,0.0
3395,6.705242388526765,0.0
3396,6.686497519557907,0.0
3397,6.778802039602495,0.0
3398,6.7357917453252645,0.0
3399,6.711321080324691,0.0
3400,6.739384857716563,0.0
3401,7.039876283595651,0.0
3402,7.282235906799606,0.0
3403,7.692335635246395,0.0
3404,8.4520539929285,0.0
3405,9.340885338487432,0.0
3406,10.457144676086697,0.0
3407,11.555965200625288,0.0
3408,12.611282158076571,0.0
3409,13.21224016362848,0.0
3410,13.665056862087901,0.0
3411,13.585682783269142,0.0
3412,12.724301938837316,0.0
3413,11.461735162207503,0.0
3414,9.68245453892441,0.0
3415,7.948496300450065,0.0
3416,6.098200898636376,0.0
3417,4.615862854192825,0.0
3418,3.896993521163363,0.0
3419,3.706234231815753,0.0
3420,4.059945860531473,0.0
3421,4.8573297444017225,0.0
3422,5.8659145508392765,0.0
3423,7.0743327516862475,0.0
3424,7.905275350251888,0.0
3425,8.171574745687998,0.0
3426,8.129813825991679,0.0
3427,7.848393559664274,0.0
3428,7.348055563668951,0.0
3429,6.714275783354763,0.0
3430,6.197691813629548,0.0
3431,5.910694315138341,0.0
3432,5.876288675074529,0.0
3433,6.0029785206690605,0.0
3434,6.307022238852935,0.0
3435,6.592302790090981,0.0
3436,6.810403568099763,0.0
3437,7.013649126931146,0.0
3438,6.922886519077076,0.0
3439,6.915566492475172,0.0
3440,6.8328780445096315,0.0
3441,6.727331318156913,0.0
3442,6.610598153934966,0.0
3443,6.528011449577588,0.0
3444,6.5238447720539146,0.0
3445,6.544702366022268,0.0
3446,6.667273559140294,0.0
3447,6.612738034913987,0.0
3448,6.638040314590459,0.0
3449,6.596164284283664,0.0
3450,6.698315492791112,0.0
3451,6.620779544141695,0.0
3452,6.646003329811689,0.0
3453,6.634433067908492,0.0
3454,6.743361274013356,0.0
3455,6.623236968905583,0.0
3456,6.750762973260888,0.0
3457,6.814109154223822,0.0
3458,6.714622733929095,0.0
3459,6.699888700560965,0.0
3460,6.623046925076333,0.0
3461,6.714210011102992,0.0
3462,6.728055486695224,0.0
3463,6.8069735459800995,0.0
3464,6.75177427839033,0.0
3465,6.728181928880304,0.0
3466,6.784683086157981,0.0
3467,6.770061758443931,0.0
3468,6.72097028706709,0.0
3469,6.6741668551773525,0.0
3470,6.802204699400568,0.0
3471,6.786160739786444,0.0
3472,6.6228615973412035,0.0
3473,6.716635473549447,0.0
3474,6.654346374038383,0.0
3475,6.737759346672725,0.0
3476,6.792029555852885,0.0
3477,6.710762727456607,0.0
3478,6.648335806518808,0.0
3479,6.842706657591377,0.0
3480,6.776930443874863,0.0
3481,6.6120811173783345,0.0
3482,6.721245018578439,0.0
3483,6.720054730849331,0.0
3484,6.708271909175483,0.0
3485,6.775820369420268,0.0
3486,6.742114340495878,0.0
3487,6.703915351549848,0.0
3488,6.668036211830447,0.0
3489,6.823082628704295,0.0
3490,6.789463521510216,0.0
3491,6.70119482254,0.0
3492,6.739911217689249,0.0
3493,6.806793007838674,0.0
3494,6.610726445613951,0.0
3495,6.795348698517197,0.0
3496,6.828697457421877,0.0
3497,6.739004164843897,0.0
3498,6.697713079911936,0.0
3499,6.839658995137876,0.0
3500,6.7667372554384775,0.0
3501,7.039420504770561,0.0
3502,7.367265560863841,0.0
3503,7.827817308854094,0.0
3504,8.379250884421477,0.0
3505,9.366921589125557,0.0
3506,10.396968473644375,0.0
3507,11.467839081217843,0.0
3508,12.505576713351243,0.0
3509,13.233283211509235,0.0
3510,13.71249446827203,0.0
3511,13.504108747091088,0.0
3512,12.791044072901052,0.0
3513,11.32886688057117,0.0
3514,9.804611481596977,0.0
3515,7.892113156004753,0.0
3516,6.102820245317396,0.0
3517,4.700737534497589,0.0
3518,3.9363769614939446,0.0
3519,3.6442232728435933,0.0
3520,4.104036625257373,0.0
3521,4.947966628741842,0.0
3522,5.953131074249082,0.0
3523,7.161378078974582,0.0
3524,7.918672794655573,0.0
3525,8.218935662271845,0.0
3526,8.247874620861245,0.0
3527,7.938994124335769,0.0
3528,7.391845484911304,0.0
3529,6.739107468839904,0.0
3530,6.2838061412711985,0.0
3531,6.0077957315121315,0.0
3532,5.973574557454655,0.0
3533,5.962816521268571,0.0
3534,6.308652546264392,0.0
3535,6.5288940823703125,0.0
3536,6.796136175859934,0.0
3537,6.889672927842311,0.0
3538,6.930511089312739,0.0
3539,6.938867713361395,0.0
3540,6.8479566672344125,0.0
3541,6.709197464423044,0.0
3542,6.6886262238056355,0.0
3543,6.705239880410106,0.0
3544,6.663445518024883,0.0
3545,6.6016318541134975,0.0
3546,6.8526243477681135,0.0
3547,6.7945836893024545,0.0
3548,6.761669486787895,0.0
3549,6.806190687146902,0.0
3550,6.725885966278266,0.0
3551,6.818118231951644,0.0
3552,6.686149717736937,0.0
3553,6.7900572282165825,0.0
3554,6.6896589153110355,0.0
3555,6.774841405926247,0.0
3556,6.794933758795701,0.0
3557,6.805164323611628,0.0
3558,6.771504761701839,0.0
3559,6.7894058174869105,0.0
3560,6.802864855944923,0.0
3561,6.769342153858925,0.0
3562,6.839645306612819,0.0
3563,6.840866557116496,0.0
3564,6.886560898948037,0.0
3565,6.793316537141078,0.0
3566,6.831390408592761,0.0
3567,6.773599243857958,0.0
3568,6.839396274773479,0.0
3569,6.8727174742159995,0.0
3570,6.801560756676133,0.0
3571,6.6997102055081985,0.0
3572,6.871394979224073,0.0
3573,6.708398961890322,0.0
3574,6.862511070485632,0.0
3575,6.8305647409739825,0.0
3576,6.766567325272767,0.0
3577,6.765234608243597,0.0
3578,6.87134844428998,0.0
3579,6.7189151090353585,0.0
3580,6.822105989015228,0.0
3581,6.798302625348449,0.0
3582,6.835355859990682,0.0
3583,6.881739585131416,0.0
3584,6.9345442837884566,0.0
3585,6.878427168233339,0.0
3586,6.871582012432339,0.0
3587,6.825373635497937,0.0
3588,6.857336522488014,0.0
3589,6.829413851405891,0.0
3590,6.90239223540247,0.0
3591,6.962112652505726,0.0
3592,6.860546898822039,0.0
3593,6.879501618747074,0.0
3594,6.960230732547668,0.0
3595,6.888196522417281,0.0
3596,6.802300595551451,0.0
3597,6.763195297302813,0.0
3598,6.850719481726309,0.0
3599,6.827379668905862,0.0
3600,7.012013481660374,0.0
3601,7.206403225515067,0.0
3602,7.475889932406005,0.0
3603,7.942719255006212,0.0
3604,8.587222526700094,0.0
3605,9.525320286379877,0.0
3606,10.482757572071142,0.0
3607,11.628328916821921,0.0
3608,12.592896064987471,0.0
3609,13.424887649777848,0.0
3610,13.87144219561144,0.0
3611,13.581437226042684,0.0
3612,12.826464717500588,0.0
3613,11.631421234633592,0.0
3614,9.977046774399533,0.0
3615,8.053961147584747,0.0
3616,6.2845053983233425,0.0
3617,4.8636255377165,0.0
3618,4.057467415559872,0.0
3619,3.874290561165196,0.0
3620,4.331478291017076,0.0
3621,5.196967994338189,0.0
3622,6.139017590396548,0.0
3623,7.31115018345867,0.0
3624,8.102320036944503,0.0
3625,8.489127781539668,0.0
3626,8.457719695120659,0.0
3627,8.131948982210755,0.0
3628,7.619517983479593,0.0
3629,7.063250622877634,0.0
3630,6.5475487440044775,0.0
3631,6.235324266108821,0.0
3632,6.234410380967406,0.0
3633,6.2220313022867515,0.0
3634,6.580729584249354,0.0
3635,6.790485240206277,0.0
3636,7.09447252067704,0.0
3637,7.271262910899399,0.0
3638,7.368865173394854,0.0
3639,7.2690598949710425,0.0
3640,7.117161790701714,0.0
3641,7.050600788155553,0.0
3642,6.911895422934937,0.0
3643,6.925480378997342,0.0
3644,6.897186302140826,0.0
3645,6.873811037182924,0.0
3646,6.96001331360728,0.0
3647,6.9710863741699365,0.0
3648,7.1014797381816095,0.0
3649,7.010941732487378,0.0
3650,6.906471288802018,0.0
3651,6.988561818333605,0.0
3652,6.947025393858908,0.0
3653,6.976070214405332,0.0
3654,6.952773961612668,0.0
3655,6.929097921009254,0.0
3656,6.946723863466372,0.0
3657,6.934896462292542,0.0
3658,6.8936466309099185,0.0
3659,6.942907493138378,0.0
3660,7.0332741750136885,0.0
3661,6.9573516952908525,0.0
3662,6.865595073523299,0.0
3663,6.932884163366984,0.0
3664,6.892500536236522,0.0
3665,6.883907964682936,0.0
3666,6.994054083760606,0.0
3667,6.849637537679398,0.0
3668,6.994675594512023,0.0
3669,7.0545081555252525,0.0
3670,6.9362087190630515,0.0
3671,6.978641624296582,0.0
3672,7.025154960558922,0.0
3673,6.958491712561648,0.0
3674,7.014893587712134,0.0
3675,6.970888409129745,0.0
3676,7.026767970114381,0.0
3677,7.010178459552858,0.0
3678,7.007087988752491,0.0
3679,7.041725117816418,0.0
3680,6.9713568341399395,0.0
3681,6.974957690466622,0.0
3682,7.017426652718797,0.0
3683,7.10116630205664,0.0
3684,6.924033276094787,0.0
3685,6.983895586744172,0.0
3686,7.013211930396011,0.0
3687,6.936062200252857,0.0
3688,7.028526683524026,0.0
3689,7.027382322852419,0.0
3690,6.981983822902733,0.0
3691,7.026220441379321,0.0
3692,6.9366102227653785,0.0
3693,7.001747727822151,0.0
3694,6.95189872460506,0.0
3695,6.928637514416797,0.0
3696,6.967586010455684,0.0
3697,6.906896460689825,0.0
3698,6.962999504958543,0.0
3699,6.924940613728478,0.0
3700,7.021980363909599,0.0
3701,7.289502626416632,0.0
3702,7.568702319664071,0.0
3703,8.064167678314385,0.0
3704,8.68810075535567,0.0
3705,9.606063637360915,0.0
3706,10.56806667469329,0.0
3707,11.690858486193397,0.0
3708,12.633873754581181,0.0
3709,13.501538722915505,0.0
3710,14.023084914717709,0.0
3711,13.857134374131984,0.0
3712,13.010130166673342,0.0
3713,11.83911508011185,0.0
3714,10.090175821068225,0.0
3715,8.259554633424024,0.0
3716,6.515895399455862,0.0
3717,4.979363988751221,0.0
3718,4.144069874466167,0.0
3719,4.0219156566033085,0.0
3720,4.32127154902874,0.0
3721,5.19082123921959,0.0
3722,6.157459295005136,0.0
3723,7.299267387878231,0.0
3724,8.08197380308296,0.0
3725,8.506704176521087,0.0
3726,8.532706572710055,0.0
3727,8.27450162216555,0.0
3728,7.598905757700661,0.0
3729,7.076178521340437,0.0
3730,6.529089186547683,0.0
3731,6.2855892321243125,0.0
3732,6.308142658381462,0.0
3733,6.380080962206771,0.0
3734,6.641228011791699,0.0
3735,6.907011370510874,0.0
3736,7.237069453996683,0.0
3737,7.290293395463716,0.0
3738,7.437955708198105,0.0
3739,7.25392238471915,0.0
3740,7.258312509134759,0.0
3741,6.979826592382727,0.0
3742,6.944669074660337,0.0
3743,6.87399407489736,0.0
3744,6.911849572698078,0.0
3745,6.901292191056439,0.0
3746,6.980444723154865,0.0
3747,6.976746310826944,0.0
3748,7.075351401787865,0.0
3749,7.060205923073658,0.0
3750,7.05951401962991,0.0
3751,6.946281986485977,0.0
3752,7.001599699066923,0.0
3753,7.024798226984109,0.0
3754,6.952232270783462,0.0
3755,6.97425583895194,0.0
3756,6.939140124026907,0.0
3757,6.997578663669341,0.0
3758,6.995549392822013,0.0
3759,7.074511808621833,0.0
3760,7.110325103043276,0.0
3761,6.958616337382145,0.0
3762,6.993742403658368,0.0
3763,7.100926348161284,0.0
3764,7.065507818440322,0.0
3765,7.050155775366272,0.0
3766,7.045815886027144,0.0
3767,7.076866511382352,0.0
3768,7.028995483123252,0.0
3769,7.057092017543873,0.0
3770,7.103739458195164,0.0
3771,7.042827052028174,0.0
3772,7.1419407492330995,0.0
3773,7.084316809260153,0.0
3774,7.003063793382279,0.0
3775,7.111411657630934,0.0
3776,7.026834546418672,0.0
3777,7.066228829797595,0.0
3778,7.055006631408168,0.0
3779,7.176786129769904,0.0
3780,7.026862670040132,0.0
3781,7.138149994890821,0.0
3782,6.962243979889144,0.0
3783,6.98000087463039,0.0
3784,7.097563277985529,0.0
3785,7.087915370568691,0.0
3786,7.111446765793487,0.0
3787,7.123945683951409,0.0
3788,7.159493501259828,0.0
3789,7.124767376703198,0.0
3790,7.024885878206166,0.0
3791,7.031895300699842,0.0
3792,7.08948057464446,0.0
3793,7.0468377659053285,0.0
3794,7.004714797184012,0.0
3795,7.073211101083524,0.0
3796,7.021116008476795,0.0
3797,6.9612233333221925,0.0
3798,7.028916104110364,0.0
3799,7.155530262920654,0.0
3800,7.214287076222856,0.0
3801,7.365526734054192,0.0
3802,7.7220201621557765,0.0
3803,8.181372493536461,0.0
3804,8.856105218100774,0.0
3805,9.622150882409176,0.0
3806,10.784337200092267,0.0
3807,11.819453615453721,0.0
3808,12.80188416417468,0.0
3809,13.61931425670155,0.0
3810,14.08448534931997,0.0
3811,14.037499971781763,0.0
3812,13.235297693430804,0.0
3813,12.065074237275219,0.0
3814,10.395528916799048,0.0
3815,8.476569104798536,0.0
3816,6.744272594719699,0.0
3817,5.165013026183767,0.0
3818,4.326457137640894,0.0
3819,4.104830517889491,0.0
3820,4.556470442384525,0.0
3821,5.324360694646934,0.0
3822,6.309788897950936,0.0
3823,7.434104767153065,0.0
3824,8.273851353967837,0.0
3825,8.712791557951697,0.0
3826,8.762626416342005,0.0
3827,8.27113676975955,0.0
3828,7.849754375244075,0.0
3829,7.21033323961079,0.0
3830,6.744666307810767,0.0
3831,6.337424587650429,0.0
3832,6.384320252628407,0.0
3833,6.485293662397193,0.0
3834,6.783974906713129,0.0
3835,7.098133675165964,0.0
3836,7.21820382248867,0.0
3837,7.431986562133816,0.0
3838,7.542295110486017,0.0
3839,7.429746844259248,0.0
3840,7.339147455592607,0.0
3841,7.214096557428061,0.0
3842,7.131675189589001,0.0
3843,7.0185340894876695,0.0
3844,7.072195146386028,0.0
3845,7.106674138248292,0.0
3846,7.073838511994222,0.0
3847,7.196177166022752,0.0
3848,7.161207449884257,0.0
3849,7.125840686318759,0.0
3850,7.253872212197497,0.0
3851,7.141173752134797,0.0
3852,7.165340582141191,0.0
3853,7.201098774497604,0.0
3854,7.137892347613871,0.0
3855,7.173801243520871,0.0
3856,7.2584814133418485,0.0
3857,7.197586847550528,0.0
3858,7.279046330474544,0.0
3859,7.198732697130921,0.0
3860,7.330521590839336,0.0
3861,7.268872870765312,0.0
3862,7.26968054744594,0.0
3863,7.3052900782294765,0.0
3864,7.281876254773705,0.0
3865,7.294679041724593,0.0
3866,7.2783632923118,0.0
3867,7.247578892966292,0.0
3868,7.306182583722364,0.0
3869,7.354358358127572,0.0
3870,7.181256990666679,0.0
3871,7.211112167706157,0.0
3872,7.272637058961505,0.0
3873,7.339291347578472,0.0
3874,7.144455127259496,0.0
3875,7.141084400513203,0.0
3876,7.249850719802605,0.0
3877,7.265228920669464,0.0
3878,7.269807831996589,0.0
3879,7.22458762487646,0.0
3880,7.167693886405899,0.0
3881,7.1494149416763815,0.0
3882,7.283832611313077,0.0
3883,7.217468018703377,0.0
3884,7.234328944216648,0.0
3885,7.149544897415612,0.0
3886,7.232094579067172,0.0
3887,7.30708208493624,0.0
3888,7.137606750157737,0.0
3889,7.188709144569414,0.0
3890,7.206872916692281,0.0
3891,7.237179493960242,0.0
3892,7.237456449640954,0.0
3893,7.188866810022187,0.0
3894,7.2830623385757995,0.0
3895,7.286833981789575,0.0
3896,7.302296273718094,0.0
3897,7.1821177747460565,0.0
3898,7.143457889835142,0.0
3899,7.251858964983068,0.0
3900,7.348036936392571,0.0
3901,7.485558637992243,0.0
3902,7.872801858959121,0.0
3903,8.35137788407909,0.0
3904,8.907645757127948,0.0
3905,9.853070561393679,0.0
3906,10.756300220871054,0.0
3907,11.873343711838935,0.0
3908,12.910234088164803,0.0
3909,13.75596457848483,0.0
3910,14.073101611385365,0.0
3911,14.045624078780829,0.0
3912,13.366091770329113,0.0
3913,12.062501029036673,0.0
3914,10.532065778330761,0.0
3915,8.585831726180476,0.0
3916,6.75577464556525,0.0
3917,5.3169209751577275,0.0
3918,4.364996950509482,0.0
3919,4.142535718009824,0.0
3920,4.6090166653549165,0.0
3921,5.392808441443007,0.0
3922,6.315543750954482,0.0
3923,7.571949980588615,0.0
3924,8.321202679110236,0.0
3925,8.773181588014427,0.0
3926,8.739037333179553,0.0
3927,8.466363956473028,0.0
3928,7.805367541616181,0.0
3929,7.325546075227694,0.0
3930,6.761848512179937,0.0
3931,6.469813159949943,0.0
3932,6.405700292834792,0.0
3933,6.492319385968781,0.0
3934,6.84466036204369,0.0
3935,7.107826191603976,0.0
3936,7.317921644385546,0.0
3937,7.511039556646521,0.0
3938,7.548127892131585,0.0
3939,7.440979480714098,0.0
3940,7.31383837922664,0.0
3941,7.338266898353142,0.0
3942,7.184608772073641,0.0
3943,7.146027668746792,0.0
3944,7.1003017574155285,0.0
3945,7.177907504282547,0.0
3946,7.1694383374628705,0.0
3947,7.269493894752375,0.0
3948,7.356434158376188,0.0
3949,7.3836873308396855,0.0
3950,7.4029074182599075,0.0
3951,7.296796093152715,0.0
3952,7.215584563612272,0.0
3953,7.213743545102682,0.0
3954,7.249833877103146,0.0
3955,7.204186366283721,0.0
3956,7.24992950113956,0.0
3957,7.296554482128577,0.0
3958,7.309955314837231,0.0
3959,7.226206755416362,0.0
3960,7.208345034143378,0.0
3961,7.2182290914267,0.0
3962,7.212071733186479,0.0
3963,7.16572606739306,0.0
3964,7.2138434285256725,0.0
3965,7.197260017721278,0.0
3966,7.271031509374982,0.0
3967,7.3035066878327255,0.0
3968,7.29833465703389,0.0
3969,7.302123196057774,0.0
3970,7.253423092521478,0.0
3971,7.293808511298434,0.0
3972,7.267991256779002,0.0
3973,7.332630365050515,0.0
3974,7.1996980602984895,0.0
3975,7.300226672772647,0.0
3976,7.191448748119866,0.0
3977,7.3316927698204015,0.0
3978,7.12935692634549,0.0
3979,7.188734647312159,0.0
3980,7.2690017942622,0.0
3981,7.082037407720728,0.0
3982,7.254661286544858,0.0
3983,7.137608368787719,0.0
3984,7.143400228667712,0.0
3985,7.108896125854161,0.0
3986,7.180870548581585,0.0
3987,7.260286615024327,0.0
3988,7.233467951999403,0.0
3989,7.084962981728439,0.0
3990,7.262799707992573,0.0
3991,7.246504279712477,0.0
3992,7.261088960120938,0.0
3993,7.244597305823152,0.0
3994,7.1625970115075,0.0
3995,7.316501039836307,0.0
3996,7.182432006149342,0.0
3997,7.114023312884168,0.0
3998,7.302751621479058,0.0
3999,7.235371725435714,0.0
4000,7.329062267054979,0.0
4001,7.463039508654882,0.0
4002,7.853806130042006,0.0
4003,8.236344023288861,0.0
4004,8.88658717922796,0.0
4005,9.772099708269634,0.0
4006,10.795804454484736,0.0
4007,11.87545565260001,0.0
4008,12.831376975752656,0.0
4009,13.695159067142642,0.0
4010,14.180815618910398,0.0
4011,14.161000901835493,0.0
4012,13.339824953500859,0.0
4013,12.127571513647597,0.0
4014,10.524673362597518,0.0
4015,8.63583622156166,0.0
4016,6.8445968338223,0.0
4017,5.358687544100644,0.0
4018,4.430234045914737,0.0
4019,4.196606034457823,0.0
4020,4.561852827154277,0.0
4021,5.401848563725918,0.0
4022,6.420154407494312,0.0
4023,7.4544627403514445,0.0
4024,8.315899054275846,0.0
4025,8.799428794185241,0.0
4026,8.764361606899728,0.0
4027,8.571156230450788,0.0
4028,7.886246183530645,0.0
4029,7.356669114179745,0.0
4030,6.860593165573665,0.0
4031,6.44015338730357,0.0
4032,6.4400568862167376,0.0
4033,6.5477209582039775,0.0
4034,6.75698859196367,0.0
4035,7.081213207890844,0.0
4036,7.235807956692828,0.0
4037,7.405812264993075,0.0
4038,7.480361018416142,0.0
4039,7.491667561939667,0.0
4040,7.373798431851718,0.0
4041,7.243205900115944,0.0
4042,7.115758672116704,0.0
4043,7.116234863210572,0.0
4044,7.069716294386656,0.0
4045,7.124164337892248,0.0
4046,7.144057367824582,0.0
4047,7.241619057566768,0.0
4048,7.262056972972512,0.0
4049,7.255933666996358,0.0
4050,7.2569954557592435,0.0
4051,7.319901846076226,0.0
4052,7.179702771829312,0.0
4053,7.14565271533664,0.0
4054,7.263620606359629,0.0
4055,7.299332885866595,0.0
4056,7.204612282897565,0.0
4057,7.224321809424671,0.0
4058,7.31538054071518,0.0
4059,7.305552267233402,0.0
4060,7.292856137765745,0.0
4061,7.247056545239192,0.0
4062,7.257973839517841,0.0
4063,7.209105253783579,0.0
4064,7.230599688758897,0.0
4065,7.300058472132499,0.0
4066,7.317594824125704,0.0
4067,7.314323687360251,0.0
4068,7.367611812291758,0.0
4069,7.353934405957396,0.0
4070,7.278586778908597,0.0
4071,7.354443965859142,0.0
4072,7.27577836974677,0.0
4073,7.273322749000221,0.0
4074,7.264331969593329,0.0
4075,7.231262410424,0.0
4076,7.287039197807461,0.0
4077,7.1576101367508524,0.0
4078,7.237395452965939,0.0
4079,7.243095837777867,0.0
4080,7.309996329871677,0.0
4081,7.279186538509077,0.0
4082,7.313431536713409,0.0
4083,7.288429429845155,0.0
4084,7.265829170709831,0.0
4085,7.270199775172411,0.0
4086,7.241845365485527,0.0
4087,7.245944938286262,0.0
4088,7.275572384656104,0.0
4089,7.232200128040693,0.0
4090,7.319254597097674,0.0
4091,7.316906550319387,0.0
4092,7.231233888465886,0.0
4093,7.331033441176571,0.0
4094,7.303285655817648,0.0
4095,7.256131127327681,0.0
4096,7.25758539900741,0.0
4097,7.241532342186899,0.0
4098,7.399223690061638,0.0
4099,7.290097605781693,0.0
4100,7.414281739205084,0.0
4101,7.586105785937746,0.0
4102,7.754355232421063,0.0
4103,8.292023458534326,0.0
4104,8.899165671881986,0.0
4105,9.778647858109958,0.0
4106,10.797286438112732,0.0
4107,11.838872372119242,0.0
4108,12.908954938463502,0.0
4109,13.809421704707631,0.0
4110,14.16324898055328,0.0
4111,14.206224806462776,0.0
4112,13.364382151336063,0.0
4113,12.251494611406798,0.0
4114,10.633079323723583,0.0
4115,8.814294124242064,0.0
4116,6.970063742438969,0.0
4117,5.520639797253093,0.0
4118,4.669618937002272,0.0
4119,4.324248423971271,0.0
4120,4.640209199431709,0.0
4121,5.419405960895409,0.0
4122,6.460011740403829,0.0
4123,7.594483893365398,0.0
4124,8.333594199050873,0.0
4125,8.902676662157113,0.0
4126,8.827994462025451,0.0
4127,8.492674104373158,0.0
4128,7.9352987886424025,0.0
4129,7.459836292152016,0.0
4130,6.902471475253931,0.0
4131,6.545517622364719,0.0
4132,6.508306722074822,0.0
4133,6.636379521883039,0.0
4134,6.957970804027956,0.0
4135,7.204114392549558,0.0
4136,7.4793923532609705,0.0
4137,7.607108217452359,0.0
4138,7.67332147956448,0.0
4139,7.625114691717535,0.0
4140,7.5373863653543145,0.0
4141,7.4008846690789145,0.0
4142,7.228840790250181,0.0
4143,7.261614675190446,0.0
4144,7.173102004301837,0.0
4145,7.3085411579185955,0.0
4146,7.292386049163201,0.0
4147,7.3837420867951975,0.0
4148,7.373486561334239,0.0
4149,7.331940914380747,0.0
4150,7.317364392630265,0.0
4151,7.314063640322272,0.0
4152,7.335397794834878,0.0
4153,7.32591601019384,0.0
4154,7.311405791254479,0.0
4155,7.227236740795886,0.0
4156,7.23151107321539,0.0
4157,7.256715585264422,0.0
4158,7.288079516770902,0.0
4159,7.3039409785826805,0.0
4160,7.358359087430233,0.0
4161,7.220907538442065,0.0
4162,7.3402886261048526,0.0
4163,7.228459284618459,0.0
4164,7.375490091467162,0.0
4165,7.361317857441753,0.0
4166,7.292492449548173,0.0
4167,7.3426201709553265,0.0
4168,7.271987818177176,0.0
4169,7.335133162972708,0.0
4170,7.299753141349397,0.0
4171,7.2360355564605605,0.0
4172,7.353689970545877,0.0
4173,7.427292916650104,0.0
4174,7.423328536330001,0.0
4175,7.416503841711209,0.0
4176,7.2513358975749505,0.0
4177,7.319932932386053,0.0
4178,7.365104900204163,0.0
4179,7.449731316275338,0.0
4180,7.478075868799135,0.0
4181,7.321296758818618,0.0
4182,7.2842421364568475,0.0
4183,7.3104045023698765,0.0
4184,7.331541162260589,0.0
4185,7.323167716120734,0.0
4186,7.297513936530422,0.0
4187,7.41993832534635,0.0
4188,7.271793194619716,0.0
4189,7.288387976055944,0.0
4190,7.208613052978901,0.0
4191,7.325927302300037,0.0
4192,7.172321577438032,0.0
4193,7.345162971299187,0.0
4194,7.2779873606927925,0.0
4195,7.267408603925453,0.0
4196,7.200684173572081,0.0
4197,7.334295797481388,0.0
4198,7.322250345569378,0.0
4199,7.324621125748509,0.0
4200,7.443983969219767,0.0
4201,7.5248282425973505,0.0
4202,7.866212790892407,0.0
4203,8.327528051804835,0.0
4204,9.028219040630793,0.0
4205,9.932419751845952,0.0
4206,10.915801149065967,0.0
4207,11.998666102958447,0.0
4208,13.06895430089293,0.0
4209,13.84120936183747,0.0
4210,14.392283026321394,0.0
4211,14.324293186096982,0.0
4212,13.61916932341787,0.0
4213,12.447707107696576,0.0
4214,10.732570536082111,0.0
4215,8.982252365688966,0.0
4216,7.11805421263919,0.0
4217,5.596544949761668,0.0
4218,4.61960060473061,0.0
4219,4.2485001874148045,0.0
4220,4.684375834273904,0.0
4221,5.36490942769244,0.0
4222,6.427818751638599,0.0
4223,7.444808649562177,0.0
4224,8.418829981455293,0.0
4225,8.876093679407356,0.0
4226,8.945079063087453,0.0
4227,8.515695225650955,0.0
4228,8.010128846729,0.0
4229,7.418190902746546,0.0
4230,6.975949860988917,0.0
4231,6.672933842199329,0.0
4232,6.559021493982814,0.0
4233,6.677608111840519,0.0
4234,6.882161982342917,0.0
4235,7.305214830275727,0.0
4236,7.5084365855672175,0.0
4237,7.781613271571389,0.0
4238,7.733886448658437,0.0
4239,7.562944406123878,0.0
4240,7.591886102916773,0.0
4241,7.375102133848895,0.0
4242,7.324224073077249,0.0
4243,7.29962101748192,0.0
4244,7.2434160656723305,0.0
4245,7.249478420680621,0.0
4246,7.265334965892158,0.0
4247,7.466272717614627,0.0
4248,7.346413116788343,0.0
4249,7.435541489254737,0.0
4250,7.390512361879061,0.0
4251,7.412284332863008,0.0
4252,7.312357381147865,0.0
4253,7.403043447966794,0.0
4254,7.292929169339357,0.0
4255,7.379281576550429,0.0
4256,7.330691252573865,0.0
4257,7.321510825900417,0.0
4258,7.403186788649322,0.0
4259,7.330852913288409,0.0
4260,7.436263541382205,0.0
4261,7.450568998535271,0.0
4262,7.363511474126547,0.0
4263,7.425298888457674,0.0
4264,7.4065847721185385,0.0
4265,7.378951347527206,0.0
4266,7.428838816132013,0.0
4267,7.475415107819292,0.0
4268,7.377173256188076,0.0
4269,7.428564727701992,0.0
4270,7.383412913962405,0.0
4271,7.363997820191744,0.0
4272,7.390868661640195,0.0
4273,7.3563585550191295,0.0
4274,7.401698177964032,0.0
4275,7.297183227631142,0.0
4276,7.407501679126329,0.0
4277,7.396562725692183,0.0
4278,7.515221607804726,0.0
4279,7.3601051207312755,0.0
4280,7.518405856963274,0.0
4281,7.39396050530732,0.0
4282,7.45680982805307,0.0
4283,7.478769882045464,0.0
4284,7.425517880755594,0.0
4285,7.3521519192085645,0.0
4286,7.400661752436123,0.0
4287,7.444234608637515,0.0
4288,7.448317890303806,0.0
4289,7.404449159063208,0.0
4290,7.470453607382048,0.0
4291,7.352352536217871,0.0
4292,7.343585017397005,0.0
4293,7.40283743337809,0.0
4294,7.436706269694074,0.0
4295,7.423208847300765,0.0
4296,7.4308641571476866,0.0
4297,7.431611716676952,0.0
4298,7.4625422845835585,0.0
4299,7.403862122624494,0.0
4300,7.604321001213472,0.0
4301,7.737537698675509,0.0
4302,8.061800052278098,0.0
4303,8.546686120580123,0.0
4304,9.166239805254088,0.0
4305,10.002601491879068,0.0
4306,11.085468057108379,0.0
4307,12.049930070867198,0.0
4308,13.051360339817567,0.0
4309,13.99974333217753,0.0
4310,14.462409610243181,0.0
4311,14.357651089314233,0.0
4312,13.681263953996215,0.0
4313,12.518185446524376,0.0
4314,10.973784851886553,0.0
4315,9.05901036585132,0.0
4316,7.09962241933598,0.0
4317,5.760086230320243,0.0
4318,4.734102463376139,0.0
4319,4.497359317846092,0.0
4320,4.704647669507461,0.0
4321,5.4619388404346765,0.0
4322,6.621338299981019,0.0
4323,7.709622274504727,0.0
4324,8.531124337457657,0.0
4325,9.04460529920136,0.0
4326,9.072725678808323,0.0
4327,8.801544865855076,0.0
4328,8.261362841801622,0.0
4329,7.655997100906538,0.0
4330,7.089221751621398,0.0
4331,6.719104526412143,0.0
4332,6.634870034025108,0.0
4333,6.891286268473043,0.0
4334,7.099514843304899,0.0
4335,7.441052936340158,0.0
4336,7.598385081059324,0.0
4337,7.714700330096352,0.0
4338,7.791442023418357,0.0
4339,7.7896712461639,0.0
4340,7.591771604437579,0.0
4341,7.62306637855921,0.0
4342,7.4929486656352395,0.0
4343,7.349906529987132,0.0
4344,7.369870500441337,0.0
4345,7.48446944908814,0.0
4346,7.4639372994837085,0.0
4347,7.463115698323532,0.0
4348,7.704759582452991,0.0
4349,7.639863581038944,0.0
4350,7.6200649946960395,0.0
4351,7.564310863136986,0.0
4352,7.601884354150561,0.0
4353,7.520469599344375,0.0
4354,7.522671234354069,0.0
4355,7.457269316041863,0.0
4356,7.534944613585827,0.0
4357,7.569356168723546,0.0
4358,7.550856900129188,0.0
4359,7.538889197032929,0.0
4360,7.416948954811152,0.0
4361,7.447163644837381,0.0
4362,7.499739177605823,0.0
4363,7.551053398877982,0.0
4364,7.590161251123598,0.0
4365,7.56033820511034,0.0
4366,7.617426392792371,0.0
4367,7.477604255222204,0.0
4368,7.5673690510545475,0.0
4369,7.508314822840249,0.0
4370,7.503925413970413,0.0
4371,7.573673281717028,0.0
4372,7.480776778682479,0.0
4373,7.5951861720851905,0.0
4374,7.54678081693968,0.0
4375,7.5146537191223315,0.0
4376,7.570873028697628,0.0
4377,7.5604915338171175,0.0
4378,7.553097646976352,0.0
4379,7.48210965349645,0.0
4380,7.5887636912481,0.0
4381,7.5500852122895195,0.0
4382,7.603246561188967,0.0
4383,7.507581119367886,0.0
4384,7.692351450714035,0.0
4385,7.529738956303296,0.0
4386,7.5407343741759245,0.0
4387,7.51223573433118,0.0
4388,7.563021880400918,0.0
4389,7.538271571794884,0.0
4390,7.587005886907488,0.0
4391,7.519403873674122,0.0
4392,7.420291860292601,0.0
4393,7.563473869023047,0.0
4394,7.55479494032418,0.0
4395,7.496702785450002,0.0
4396,7.549163233757766,0.0
4397,7.552238203058981,0.0
4398,7.564171238468179,0.0
4399,7.486064361521194,0.0
4400,7.765329154044316,0.0
4401,7.833256573573769,0.0
4402,8.138442202398968,0.0
4403,8.576458097614802,0.0
4404,9.193837927857993,0.0
4405,10.038591575339847,0.0
4406,11.173429611495678,0.0
4407,12.100106471075453,0.0
4408,13.150964915929807,0.0
4409,14.093448092591604,0.0
4410,14.372232153013261,0.0
4411,14.344532652359732,0.0
4412,13.758426761266467,0.0
4413,12.643170305542093,0.0
4414,10.999150958420586,0.0
