timestamp,value-0,is_anomaly
0,-1.7782502585602897,0
1,-1.5672784757250604,0
2,-1.006175508892714,0
3,-0.47907021346791967,0
4,0.4627153762815248,0
5,1.519165251967744,0
6,2.610756180166317,0
7,3.6631512995212754,0
8,4.469621066903724,0
9,4.875397590726548,0
10,4.990458776020443,0
11,4.367682094316173,0
12,3.015088373023225,0
13,1.3581610439445768,0
14,-0.3813441734015377,0
15,-2.191022438049774,0
16,-3.7489914633695927,0
17,-4.702160597217376,0
18,-4.977898855497628,0
19,-4.7167358562474035,0
20,-3.9131070078289447,0
21,-2.8974622431136448,0
22,-1.8576176278677718,0
23,-0.8137457876531191,0
24,-0.4077853578345605,0
25,-0.29278675714510194,0
26,-0.7462860730932743,0
27,-1.0785136079125088,0
28,-1.734449841425937,0
29,-2.331197377087867,0
30,-2.5022902808975833,0
31,-2.7677068201807975,0
32,-2.5201290037572246,0
33,-2.272451096463076,0
34,-1.9693509395269133,0
35,-1.6764888113381646,0
36,-1.5430304610826178,0
37,-1.4985507459178016,0
38,-1.6240174777728473,0
39,-1.6044642709439227,0
40,-1.6939019684085785,0
41,-1.9561261974415216,0
42,-1.8648987160119974,0
43,-1.808605283032193,0
44,-1.9305161420306687,0
45,-1.8285383251090481,0
46,-1.7455152169479295,0
47,-1.7484883392635386,0
48,-1.6996937407269201,0
49,-1.7692959478875017,0
50,-1.7118454392295557,0
51,-1.8114835669564535,0
52,-1.730854665729162,0
53,-1.7305792949613612,0
54,-1.8048256751218024,0
55,-1.6890173502959005,0
56,-1.8374670900028898,0
57,-1.713154547075066,0
58,-1.6948897258986841,0
59,-1.71919012903874,0
60,-1.6720021145892374,0
61,-1.7890512498913003,0
62,-1.7931947340287309,0
63,-1.7143940819920023,0
64,-1.8008080345603987,0
65,-1.7660838683468207,0
66,-1.7052503361550675,0
67,-1.7384300728332869,0
68,-1.7037204611126542,0
69,-1.63820532982883,0
70,-1.6513316499983786,0
71,-1.7046067273743546,0
72,-1.665109811939161,0
73,-1.6696944619535237,0
74,-1.6598742853785706,0
75,-1.6169493371503272,0
76,-1.6770119885538293,0
77,-1.6829067690798782,0
78,-1.8458047414956347,0
79,-1.717359372455459,0
80,-1.5995454914454181,0
81,-1.6409784947928268,0
82,-1.6607367156212867,0
83,-1.6839239340005356,0
84,-1.6979895158287137,0
85,-1.5852213149129952,0
86,-1.7295903079230623,0
87,-1.7108709182609756,0
88,-1.612693409747465,0
89,-1.658898733725612,0
90,-1.6940494167958235,0
91,-1.6761365569957465,0
92,-1.5114483962876575,0
93,-1.6128028665028586,0
94,-1.5915820734685122,0
95,-1.572522439958363,0
96,-1.518117815867694,0
97,-1.5288798723067352,0
98,-1.480150756241159,0
99,-1.4853285123050162,0
100,-1.2770573563564929,0
101,-1.0578881910882272,0
102,-0.5320824033224956,0
103,0.15275461602935803,0
104,0.8824504802587692,0
105,1.9167045740210487,0
106,3.0313681324928465,0
107,4.094441134561805,0
108,4.882468240927838,0
109,5.322543063482206,0
110,5.288319758766063,0
111,4.705828457243078,0
112,3.603658474197999,0
113,1.9227740590079851,0
114,0.05869737080712034,0
115,-1.740241977674767,0
116,-3.2428673189502453,0
117,-4.189241862303761,0
118,-4.516627148817175,0
119,-4.226454679150306,0
120,-3.425742399170791,0
121,-2.4196904709537472,0
122,-1.2600364514680986,0
123,-0.3597284201959623,0
124,0.016060055954410846,0
125,0.0829014477823915,0
126,-0.09919398147313041,0
127,-0.6997666584143705,0
128,-1.2432546430360456,0
129,-1.785334228869576,0
130,-2.115426952578582,0
131,-2.1700639816909217,0
132,-2.0553706890414665,0
133,-1.8564049444233452,0
134,-1.4968337543007877,0
135,-1.329383808436143,0
136,-1.2018158766462808,0
137,-1.0820487111572654,0
138,-1.0829673130901103,0
139,-1.1997193037389606,0
140,-1.3118252997911246,0
141,-1.4170394767044143,0
142,-1.5582339522997535,0
143,-1.5047106558751016,0
144,-1.531026598501488,0
145,-1.3903171325148989,0
146,-1.4337464341186639,0
147,-1.3780786599735044,0
148,-1.3644375647185543,0
149,-1.3844957461385947,0
150,-1.2747699262025949,0
151,-1.26711731938809,0
152,-1.3589774937666919,0
153,-1.274228045408351,0
154,-1.300644776219524,0
155,-1.2278404076201948,0
156,-1.2888407151964347,0
157,-1.214247220854591,0
158,-1.3059506862030055,0
159,-1.2554188628104903,0
160,-1.2369487034162947,0
161,-1.2156297811653114,0
162,-1.1828832843566632,0
163,-1.3623066472029413,0
164,-1.302309868016933,0
165,-1.1716885909528856,0
166,-1.2723090243405883,0
167,-1.2407186548783888,0
168,-1.2453364683178356,0
169,-1.1448252622857036,0
170,-1.2070854497532821,0
171,-1.1830013076471178,0
172,-1.261392135495113,0
173,-1.2356622033341604,0
174,-1.128223021511645,0
175,-1.0790402306384952,0
176,-1.1123809017883914,0
177,-1.0695503301791907,0
178,-1.1263081890910756,0
179,-1.0774885044318423,0
180,-1.048632890774047,0
181,-1.1431701443332962,0
182,-1.1770919536562479,0
183,-1.1947900253730153,0
184,-1.1939189403424681,0
185,-1.1121592382003391,0
186,-1.0988349087760874,0
187,-1.070873734017678,0
188,-1.0963059544395832,0
189,-1.1571691386855605,0
190,-1.1339623857242156,0
191,-1.1017048070791062,0
192,-1.0618427606149279,0
193,-1.1759423171331507,0
194,-1.091209120432281,0
195,-1.0894855949343287,0
196,-1.130890652041929,0
197,-1.1694688238436917,0
198,-1.0464439819114317,0
199,-0.977396581182758,0
200,-0.7616802386413007,0
201,-0.5224331897216964,0
202,0.0670803874061131,0
203,0.5562186497961876,0
204,1.4171941919805202,0
205,2.4871736842958136,0
206,3.5019007849727157,0
207,4.617595568742294,0
208,5.411587919900257,0
209,5.972208685519094,0
210,5.880997964774838,0
211,5.298744037786225,0
212,3.9863096205418946,0
213,2.5366484743629805,0
214,0.6888604989956637,0
215,-1.1812084300082861,0
216,-2.679660612621007,0
217,-3.5724674500694995,0
218,-4.000509719403882,0
219,-3.7840019064616697,0
220,-2.982888657401706,0
221,-1.9004801597982897,0
222,-0.7851005663647793,0
223,0.1066001774982871,0
224,0.5065524525173597,0
225,0.7109133003896903,0
226,0.4162528122526864,0
227,-0.1376279115972321,0
228,-0.821505611972695,0
229,-1.2133720018985918,0
230,-1.6114816719052043,0
231,-1.7290845748671129,0
232,-1.5887643762981896,0
233,-1.2846965183167227,0
234,-1.0726874456314064,0
235,-0.8111376784894492,0
236,-0.6720503738304153,0
237,-0.5373402806503844,0
238,-0.607132175072177,0
239,-0.7294657395112543,0
240,-0.8880745185919781,0
241,-0.8601516820238091,0
242,-1.0319712824612213,0
243,-0.9611007001141212,0
244,-0.9173959473911849,0
245,-0.9744834043286936,0
246,-0.8356196796948686,0
247,-0.7396957842203382,0
248,-0.8632236778826448,0
249,-0.8056083111710858,0
250,-0.8086897093236606,0
251,-0.8251667447346669,0
252,-0.8055782089829625,0
253,-0.7892332956051457,0
254,-0.834715678856002,0
255,-0.8876034800174619,0
256,-0.8680009655307804,0
257,-0.7829205402984567,0
258,-0.7267279124256629,0
259,-0.80590084197155,0
260,-0.8110587144351553,0
261,-0.9195983368374835,0
262,-0.8381477623830241,0
263,-0.6899553076760784,0
264,-0.7390548277697877,0
265,-0.7682278147907383,0
266,-0.8152190818462884,0
267,-0.8059836734429621,0
268,-0.8360689161687248,0
269,-0.7713260866198213,0
270,-0.7541761474784656,0
271,-0.6818035283993646,0
272,-0.7471516007420872,0
273,-0.6722469888396654,0
274,-0.7016074321478462,0
275,-0.6690618689499543,0
276,-0.7858295870926947,0
277,-0.8238739317773677,0
278,-0.6843161487831578,0
279,-0.6717505325537844,0
280,-0.697397622680006,0
281,-0.7640085818230711,0
282,-0.693921216635093,0
283,-0.6682841180159829,0
284,-0.7218065998764038,0
285,-0.6728281548381403,0
286,-0.627526514908932,0
287,-0.6222428048425143,0
288,-0.6497119443011179,0
289,-0.597062652178441,0
290,-0.6485587855545112,0
291,-0.5314458505454287,0
292,-0.563095479141979,0
293,-0.6657440533042911,0
294,-0.5600605898869901,0
295,-0.5801187257323315,0
296,-0.6204202325444128,0
297,-0.6584644713908248,0
298,-0.6378558420337277,0
299,-0.48942710607913453,0
300,-0.2942643274287911,0
301,-0.07544638759448552,0
302,0.34177803119379446,0
303,0.9813810404367651,0
304,1.7983430528986126,0
305,2.825000804736641,0
306,3.942449973838202,0
307,4.909624629748185,0
308,5.744542201500825,0
309,6.256320699604049,0
310,6.336842906152113,0
311,5.746091207112552,0
312,4.538332398632194,0
313,3.011840091325417,0
314,1.1819346755486775,0
315,-0.6123531384712068,0
316,-2.2644660498227727,0
317,-3.3063244739180764,0
318,-3.5625594833848946,0
319,-3.236732791745377,0
320,-2.466043956595881,0
321,-1.558649615506981,0
322,-0.388696350383787,0
323,0.5721664239452359,0
324,1.0231573559256217,0
325,1.0924753782613075,0
326,0.7760833185350311,0
327,0.4451012544836662,0
328,-0.19056949328499223,0
329,-0.7493780315464922,0
330,-1.1093405107551038,0
331,-1.122373632081041,0
332,-1.0597601261149292,0
333,-0.8313056010291517,0
334,-0.5695428496100997,0
335,-0.4372570751008074,0
336,-0.21377384032409041,0
337,-0.1531007447421719,0
338,-0.247606664025407,0
339,-0.3530413350018895,0
340,-0.514298453572629,0
341,-0.5270928472853125,0
342,-0.6415757870470057,0
343,-0.5669079825932426,0
344,-0.5212874087227475,0
345,-0.48667937341498263,0
346,-0.455454971828003,0
347,-0.3550263790552678,0
348,-0.28934455682091287,0
349,-0.26555506843061666,0
350,-0.30877601161099283,0
351,-0.3972116890086626,0
352,-0.3481858869409973,0
353,-0.38575909569492506,0
354,-0.4096672561599691,0
355,-0.37745764726954883,0
356,-0.4109113529193779,0
357,-0.39007846643773125,0
358,-0.37973767000877456,0
359,-0.48745867000269694,0
360,-0.38055887249543885,0
361,-0.3848794192885601,0
362,-0.3712200925491853,0
363,-0.3931199090054024,0
364,-0.3785002630835837,0
365,-0.30891034994399996,0
366,-0.2855258311412847,0
367,-0.29742615568392716,0
368,-0.2734943967822132,0
369,-0.21705714563034595,0
370,-0.2382002114589774,0
371,-0.2182892696831975,0
372,-0.31645457863441506,0
373,-0.3767655512379622,0
374,-0.3110487545063396,0
375,-0.1754096890813424,0
376,-0.1976187336500998,0
377,-0.10997997386570321,0
378,-0.26351750904181453,0
379,-0.2615872014357746,0
380,-0.2969695710040243,0
381,-0.22644208466902335,0
382,-0.2120639242298889,0
383,-0.2565298773518496,0
384,-0.19849426805731646,0
385,-0.2117651440429685,0
386,-0.2347169821035013,0
387,-0.1062392682018811,0
388,-0.177899937226018,0
389,-0.20532094881428642,0
390,-0.24254299769340876,0
391,-0.1384997862442136,0
392,-0.21280309430795075,0
393,-0.1343108613802224,0
394,-0.15235074431471574,0
395,-0.16649238937869942,0
396,-0.055473526565518724,0
397,-0.10198398819119622,0
398,-0.09742971398991974,0
399,-0.11328889124512873,0
400,0.07781957930893452,0
401,0.3154880579886232,0
402,0.8167057293931492,0
403,1.44002129297334,0
404,2.332715365508536,0
405,3.311302704252521,0
406,4.327855764228352,0
407,5.478572118518516,0
408,6.210094635902794,0
409,6.784787666653223,0
410,6.955832807059934,0
411,6.195583340053746,0
412,5.010597143535572,0
413,3.505271168415362,0
414,1.6814005467500552,0
415,-0.15527882093586007,0
416,-1.6490740769992693,0
417,-2.8088457007997896,0
418,-3.1252836891183797,0
419,-2.8090719926832626,0
420,-2.093163054704877,0
421,-1.043385195797757,0
422,0.03698797159069389,0
423,0.860227454451944,0
424,1.456807480794622,0
425,1.5382555319125406,0
426,1.2277566334752283,0
427,0.7556994377471848,0
428,0.14861910452975938,0
429,-0.30712055078688116,0
430,-0.7940155182284067,0
431,-0.8053657657328985,0
432,-0.7133584245513686,0
433,-0.49170107314705724,0
434,-0.26956408706957025,0
435,0.08310223308252773,0
436,0.3381027431448402,0
437,0.3497512347188786,0
438,0.28823869947191294,0
439,0.1994366328698928,0
440,0.0065854636100455555,0
441,-0.002994961873520007,0
442,-0.028227985130022254,0
443,-0.1470593421138062,0
444,-0.1605822482368255,0
445,-0.018366443945966954,0
446,-0.028762386751626318,0
447,0.007560180057514354,0
448,0.06412373197640889,0
449,0.07285224701407729,0
450,0.005002456051929116,0
451,0.00799965522752532,0
452,0.08122622250445641,0
453,0.08573231259439745,0
454,0.15301672546320022,0
455,0.11518073173682936,0
456,0.08468337587529395,0
457,0.0953805081865082,0
458,0.04301351212395599,0
459,0.13525914650708812,0
460,0.06462530487013382,0
461,0.04458683491600687,0
462,0.20394295878819083,0
463,0.12535288295886282,0
464,0.18802130433301784,0
465,0.10472371806798247,0
466,0.10110165789122633,0
467,0.1046963832250834,0
468,0.10594117814162335,0
469,0.04367453949106245,0
470,0.07300792901248968,0
471,0.10199309141911157,0
472,0.06723102587456829,0
473,0.08121230295665516,0
474,0.04223591566143955,0
475,0.0957822612821819,0
476,0.10619163729627865,0
477,0.21162123900589808,0
478,0.09640263704852542,0
479,0.07942037481341022,0
480,0.14814530318675867,0
481,0.1561749640326529,0
482,0.20650048762078707,0
483,0.10025032436994016,0
484,0.11375919870823879,0
485,0.19682132793450013,0
486,0.05284976944707655,0
487,0.23245133053477032,0
488,0.1667937817986648,0
489,0.15651994097816174,0
490,0.23889108522093408,0
491,0.10350017186998622,0
492,0.17864478976389325,0
493,0.19457618873274532,0
494,0.08219780750213898,0
495,0.24429726148658298,0
496,0.194210173808745,0
497,0.14656233196424492,0
498,0.1884787788679808,0
499,0.23210213715067762,0
500,0.5148030370766121,0
501,0.7129562312968732,0
502,1.1661370012007133,0
503,1.7680039260514473,0
504,2.5565876044024964,0
505,3.5141668121010685,0
506,4.6607178740014765,0
507,5.745253725408783,0
508,6.549153653019346,0
509,7.095651710893631,0
510,7.139328212665687,0
511,6.59146994062983,0
512,5.400166199129679,0
513,3.8742632182782075,0
514,1.9949521861271624,0
515,0.24849656413148935,0
516,-1.3573663950078407,0
517,-2.3659707381279276,0
518,-2.7242452395652608,0
519,-2.49609428858522,0
520,-1.8689142883472167,0
521,-0.7592812260000102,0
522,0.31547363022206215,0
523,1.2059367829738246,0
524,1.7532010825801896,0
525,1.939372942596136,0
526,1.556461440098818,0
527,1.0891850634695954,0
528,0.5556000659536133,0
529,0.04592275260255635,0
530,-0.3162234814512438,0
531,-0.44577633129314453,0
532,-0.2989442641100435,0
533,-0.14240582920107214,0
534,0.13513382172736615,0
535,0.4043572776982325,0
536,0.5616066616866604,0
537,0.5523270084594858,0
538,0.5745867615942688,0
539,0.4833417668013449,0
540,0.35297641795942186,0
541,0.28033060114757846,0
542,0.28780176949290476,0
543,0.19014973551169395,0
544,0.29987666272656505,0
545,0.29923772926272557,0
546,0.2803038336469625,0
547,0.43176567332507765,0
548,0.41693579087504,0
549,0.38969387206146777,0
550,0.33067070787433406,0
551,0.3952600636634295,0
552,0.20782409318459513,0
553,0.306314409256195,0
554,0.2610959849261148,0
555,0.3418078265431126,0
556,0.32628237396445775,0
557,0.25166836241216384,0
558,0.24633725993551095,0
559,0.30036524818660737,0
560,0.2922444989055878,0
561,0.21838876566484103,0
562,0.33987287350949935,0
563,0.33093027154590016,0
564,0.40313955404397167,0
565,0.26396605627740044,0
566,0.3105539624330881,0
567,0.4391813083322179,0
568,0.4038064555203982,0
569,0.45124648944689116,0
570,0.43433308725737835,0
571,0.4132318309836164,0
572,0.43656031055692146,0
573,0.43923067065134286,0
574,0.46269292968213227,0
575,0.47031323380158313,0
576,0.36099044560235094,0
577,0.476098976189314,0
578,0.4230033378149951,0
579,0.3256295324767278,0
580,0.5086416082244445,0
581,0.3873592707660514,0
582,0.42725792263292345,0
583,0.4388368063537513,0
584,0.4372411533885974,0
585,0.4080145535338153,0
586,0.4436774316256058,0
587,0.4679396788973431,0
588,0.49834853222019626,0
589,0.49801028314990575,0
590,0.4301703124847052,0
591,0.45338578729655954,0
592,0.49038591690715705,0
593,0.4071608380168176,0
594,0.46859972971270797,0
595,0.4923090678418776,0
596,0.5057493963488435,0
597,0.4347223876350892,0
598,0.5006155006172236,0
599,0.5720401781668916,0
600,0.7104624120554529,0
601,1.0194572386243883,0
602,1.4092686925532067,0
603,2.0773905384517453,0
604,2.918477001425103,0
605,3.8330473745921094,0
606,4.907436235213467,0
607,6.135765993092594,0
608,6.850027852150256,0
609,7.489064362838188,0
610,7.495783943341114,0
611,6.882136034651487,0
612,5.771841499301416,0
613,4.1956818239521185,0
614,2.462477672699123,0
615,0.5614248287564976,0
616,-0.9301824406087379,0
617,-2.0827808182703786,0
618,-2.4960929471846187,0
619,-2.138181797849133,0
620,-1.5228675827149514,0
621,-0.542788692192883,0
622,0.6489761437066905,0
623,1.6030741903323145,0
624,2.102435467383299,0
625,2.189266621172689,0
626,1.9828326953119135,0
627,1.4624067963990024,0
628,0.7908476858987308,0
629,0.2948683759698363,0
630,-0.10223057812485137,0
631,-0.2514628126537767,0
632,-0.08722210480015613,0
633,0.20684791188248125,0
634,0.5193194609701159,0
635,0.7275980361158442,0
636,0.9098169735923762,0
637,1.0543392234785798,0
638,0.9244355859905209,0
639,0.8237177069192619,0
640,0.7544657798041399,0
641,0.677740364454442,0
642,0.5759995326034171,0
643,0.5896497071791211,0
644,0.5782844180520142,0
645,0.6428168219091375,0
646,0.7012209381265347,0
647,0.7691275965906392,0
648,0.7166469139844672,0
649,0.7154483859219065,0
650,0.7660659773602118,0
651,0.6170737881565098,0
652,0.5734072486529717,0
653,0.6641630744587617,0
654,0.7259786563894927,0
655,0.6754343463569031,0
656,0.7359179690451594,0
657,0.7326760007437326,0
658,0.6596197380903362,0
659,0.7329650637733914,0
660,0.7001056069123686,0
661,0.6841402654619471,0
662,0.8232331536043748,0
663,0.7577535730055597,0
664,0.7470742519236038,0
665,0.7169323000684488,0
666,0.8032260034964512,0
667,0.8592494985719733,0
668,0.7062033621369017,0
669,0.8404678185048193,0
670,0.8493163089426154,0
671,0.7719718402314076,0
672,0.6622950955575789,0
673,0.7807176811382656,0
674,0.7887988038407848,0
675,0.8375430021425069,0
676,0.8898245610339313,0
677,0.8045352210347599,0
678,0.8881124069043179,0
679,0.8363162909764504,0
680,0.8150103228729233,0
681,0.7774474912439906,0
682,0.8670327532287376,0
683,0.848975623730586,0
684,0.8466131682868786,0
685,0.8785566142571987,0
686,0.9005861179947264,0
687,0.8658583649147784,0
688,0.887015367434724,0
689,0.8381369050653126,0
690,0.9228676303310772,0
691,0.8800110381870938,0
692,0.8974390326888432,0
693,0.8181554244760444,0
694,0.8992004776712429,0
695,0.9687149368008108,0
696,0.9934169825699998,0
697,0.8752129662969684,0
698,1.0100956872313478,0
699,1.0569075455513168,0
700,1.1481912247627017,0
701,1.423709677486665,0
702,1.8129028508929512,0
703,2.4065109915709133,0
704,3.2370353393795743,0
705,4.278227619857997,0
706,5.279310524755438,0
707,6.420763107879021,0
708,7.235543861582148,0
709,7.881071689499727,0
710,7.909452823613176,0
711,7.327030060057014,0
712,6.215970493379426,0
713,4.630180855312848,0
714,2.8900028808752087,0
715,1.0062038257010588,0
716,-0.5342989387748407,0
717,-1.6039462468569703,0
718,-2.080833292675592,0
719,-1.8243431636347545,0
720,-1.1142762954160172,0
721,-0.14694809853859214,0
722,0.9943864069354771,0
723,2.0008022501887077,0
724,2.521274256633444,0
725,2.4794917163379115,0
726,2.3668536898592456,0
727,1.8840267303055986,0
728,1.4270937410648532,0
729,0.7473292446259231,0
730,0.3763890686464879,0
731,0.25618887555640224,0
732,0.43767394793539716,0
733,0.6754701815233233,0
734,0.9679172835027307,0
735,1.088039756728713,0
736,1.3362415134899472,0
737,1.3251704932256958,0
738,1.3600136778510028,0
739,1.1865972235787923,0
740,1.1023809545268968,0
741,1.1405468599583115,0
742,1.0862110046673188,0
743,1.0401556021865677,0
744,0.99755018702191,0
745,1.0534692046869163,0
746,0.9819793526278716,0
747,1.197601329823466,0
748,1.0376960510917912,0
749,1.2363146176908073,0
750,1.131638501749441,0
751,1.2052482038772299,0
752,1.185305892630791,0
753,1.1850673955155093,0
754,1.334087595358732,0
755,1.234873917324451,0
756,1.2168275710743857,0
757,1.154058619828951,0
758,1.1872975553490366,0
759,1.219906548565726,0
760,1.1936395913437006,0
761,1.2199399914159814,0
762,1.2056269559663901,0
763,1.3041249215019621,0
764,1.2424685520142167,0
765,1.202899243615712,0
766,1.2560694790526896,0
767,1.2548893558105718,0
768,1.2603228205311388,0
769,1.2383731834470246,0
770,1.2787753256975725,0
771,1.2568668472794602,0
772,1.235576399276201,0
773,1.1848948559175914,0
774,1.290685211279263,0
775,1.2410323501228906,0
776,1.2884082446929892,0
777,1.2548026287151297,0
778,1.2569716364409542,0
779,1.3479491178816447,0
780,1.1734197910081268,0
781,1.2761680548725154,0
782,1.2833332355189846,0
783,1.316466284704954,0
784,1.3213498161105737,0
785,1.2830887285840091,0
786,1.1623590415665768,0
787,1.3030294118477785,0
788,1.2380862822661978,0
789,1.2805968262229945,0
790,1.3702924906981178,0
791,1.2863740791028035,0
792,1.315855434419923,0
793,1.3847864703971404,0
794,1.352660758891309,0
795,1.3062435623560702,0
796,1.21100557160855,0
797,1.3619771648118288,0
798,1.28615143244169,0
799,1.427498356319151,0
800,1.6223181972360514,0
801,1.7596326733499632,0
802,2.2642361594826497,0
803,2.836031081607701,0
804,3.6249604571357716,0
805,4.666564044939117,0
806,5.755229086544215,0
807,6.868434769214474,0
808,7.719139970015921,0
809,8.317068774365914,0
810,8.39871138981146,0
811,7.755698197460687,0
812,6.6830028157991785,0
813,5.0879622860200895,0
814,3.385179939452963,0
815,1.4555344309165672,0
816,-0.054082058822586765,0
817,-1.2086820045094513,0
818,-1.5311176130053143,0
819,-1.3632948972410004,0
820,-0.7113989199703887,0
821,0.358939010727217,0
822,1.42951638458997,0
823,2.380551463374684,0
824,2.9811595348074924,0
825,3.010426230460037,0
826,2.80495931455671,0
827,2.4666916969958903,0
828,1.8122334532165554,0
829,1.319596941925138,0
830,0.870975314013434,0
831,0.7851085974551768,0
832,0.8859817756575588,0
833,1.1098203495442864,0
834,1.4866233507905242,0
835,1.6605480148183078,0
836,1.7720725731056197,0
837,1.9436061592736673,0
838,1.8269527869892959,0
839,1.7131719174958913,0
840,1.503048166456862,0
841,1.4744103476493515,0
842,1.4532405570574265,0
843,1.3104384573893528,0
844,1.5082419019574511,0
845,1.4550061052793746,0
846,1.440250801161457,0
847,1.5429474789889972,0
848,1.5623972957999333,0
849,1.5552104653541727,0
850,1.4651367664172368,0
851,1.5330663753071945,0
852,1.599796347448196,0
853,1.5098872908399048,0
854,1.504717407906184,0
855,1.6227913997047574,0
856,1.6314726846463634,0
857,1.546174270847103,0
858,1.630615510089009,0
859,1.5998738930338399,0
860,1.5403428423830912,0
861,1.571229921104283,0
862,1.5230892001066352,0
863,1.6275885995233792,0
864,1.5495766106090403,0
865,1.582590542990508,0
866,1.5872890707072673,0
867,1.6079458993240308,0
868,1.5777095481234416,0
869,1.5164337415956477,0
870,1.637338755504582,0
871,1.5634227731751456,0
872,1.6698356750962517,0
873,1.5287755567862822,0
874,1.5345579091192283,0
875,1.5836494743088272,0
876,1.6028483219148846,0
877,1.6652314185374506,0
878,1.65838445897366,0
879,1.6132586897993955,0
880,1.5454627500641074,0
881,1.595910081332726,0
882,1.6340491030165103,0
883,1.7147234465479295,0
884,1.7051195154532617,0
885,1.6060646922437374,0
886,1.7305613935578346,0
887,1.6906539041559665,0
888,1.7270057464774438,0
889,1.7396895365151213,0
890,1.7600776311735022,0
891,1.6504300103205536,0
892,1.6733523393826029,0
893,1.6665931499343856,0
894,1.7515986969366024,0
895,1.7264570138730857,0
896,1.69817555120351,0
897,1.700606109816955,0
898,1.5551863130968782,0
899,1.7532581741533264,0
900,1.989972421226297,0
901,2.2314793509248747,0
902,2.5408482526617866,0
903,3.1794970485009237,0
904,3.8664871353734043,0
905,4.948380045227652,0
906,6.140389795300727,0
907,7.115658002073067,0
908,7.974174167322738,0
909,8.613758056439652,0
910,8.72545312744279,0
911,8.199549173232842,0
912,7.008007802593023,0
913,5.41666752916886,0
914,3.7417963034767654,0
915,1.8829351074211476,0
916,0.2880827903061549,0
917,-0.7950597222716163,0
918,-1.2870916147000089,0
919,-1.102973177339329,0
920,-0.32772326646980354,0
921,0.62817563124475,0
922,1.6880907551973148,0
923,2.5863026550038577,0
924,3.3222764440010426,0
925,3.3528674725503125,0
926,3.06652729632287,0
927,2.6824125775203846,0
928,2.0682120342580013,0
929,1.4953421896534407,0
930,1.0840435833139148,0
931,0.9921957010032587,0
932,1.1566805302743894,0
933,1.3818438155480635,0
934,1.5843957491986225,0
935,1.8311912058685107,0
936,2.0625434795706417,0
937,2.1199977240148966,0
938,2.182164418937259,0
939,2.0122451156192587,0
940,1.899309061411441,0
941,1.7462620785750564,0
942,1.7066764197151636,0
943,1.7339830269239922,0
944,1.7149801776297746,0
945,1.700857319404303,0
946,1.8342144968779046,0
947,1.7944230132178454,0
948,1.8910848148020174,0
949,1.805768121552771,0
950,1.8953828786248195,0
951,1.858327797544893,0
952,1.7678925527456455,0
953,1.7325317166647378,0
954,1.758896085958028,0
955,1.8419112353346345,0
956,1.8259760005887933,0
957,1.8357586204332765,0
958,1.809129187031102,0
959,2.0348214584248416,0
960,1.7770316728151867,0
961,1.8362273110666445,0
962,1.8726439658840115,0
963,1.901942462113356,0
964,1.8811744813860083,0
965,1.8656918458990939,0
966,1.7859722864984742,0
967,1.8671661802990853,0
968,1.7678752236880857,0
969,1.8446782845377103,0
970,1.8022888591641393,0
971,1.8478342378464567,0
972,1.8577231354181518,0
973,1.8575666665671025,0
974,1.8977735595291545,0
975,1.7542029410579993,0
976,1.9056248404575664,0
977,1.8671646669359785,0
978,1.8378366087824427,0
979,1.9338990258447568,0
980,1.8865785693321588,0
981,1.867063375536242,0
982,1.8648803216955367,0
983,1.8853975988103682,0
984,1.8863639616805068,0
985,1.8976723831127857,0
986,1.9710863506267553,0
987,1.9112959375391458,0
988,1.9108552161354462,0
989,2.0337904386883903,0
990,1.9449458882725421,0
991,1.8959659672096132,0
992,1.9376909637983144,0
993,1.8888992391764121,0
994,1.949216242376893,0
995,1.939434179403912,0
996,1.9762022689984724,0
997,1.9662581882005614,0
998,1.9813759139272593,0
999,2.010516667804492,0
1000,2.190974823751301,0
1001,2.4366207415065295,0
1002,2.831100447957934,0
1003,3.3592166983773613,0
1004,4.281468658853727,0
1005,5.210755501493773,0
1006,6.332303362057232,0
1007,7.335700428500314,0
1008,8.255236365339726,0
1009,8.787775665645238,0
1010,8.8641177595931,0
1011,8.388369436682922,0
1012,7.28868226281188,0
1013,5.748987737269994,0
1014,3.929377223167412,0
1015,2.1980451400284915,0
1016,0.508125632971522,0
1017,-0.5346208393566423,0
1018,-0.9913953868410279,0
1019,-0.8503448257559185,0
1020,-0.14402903662316113,0
1021,0.7945510608946813,0
1022,1.9524876019867947,0
1023,2.920423363665371,0
1024,3.4652758768451877,0
1025,3.5370233954701398,0
1026,3.2882949617770345,0
1027,2.7499357203101313,0
1028,2.2414010039233547,0
1029,1.7226802413036297,0
1030,1.3930952965911096,0
1031,1.2637545920490691,0
1032,1.3544304481951628,0
1033,1.507398154506882,0
1034,1.8230914822642212,0
1035,2.0963597815538475,0
1036,2.3322885522215873,0
1037,2.4267091570548427,0
1038,2.2908791697591946,0
1039,2.225388179868156,0
1040,2.115168424067403,0
1041,2.0347453303939713,0
1042,1.974742423626023,0
1043,1.9231611862525648,0
1044,1.9921679110396222,0
1045,1.9661468785188487,0
1046,2.0574797538016423,0
1047,2.1777469216620706,0
1048,2.0992330019329444,0
1049,2.13345302227321,0
1050,2.154981101250678,0
1051,2.133468174250273,0
1052,2.053256151832605,0
1053,2.1091142478132916,0
1054,2.133136875908788,0
1055,1.9665455461147119,0
1056,2.072437973269618,0
1057,2.120983339276794,0
1058,2.0624491434040255,0
1059,2.1035935496250797,0
1060,1.9502979884978724,0
1061,2.0349610207714504,0
1062,2.0103530822440496,0
1063,2.034661977352772,0
1064,2.0300401087555677,0
1065,1.9544059464935415,0
1066,1.998200477647531,0
1067,2.028213396259823,0
1068,2.123462531947374,0
1069,2.041540988655383,0
1070,2.154886011780066,0
1071,2.1637888018656435,0
1072,2.2234280789046705,0
1073,2.1364619110613794,0
1074,2.1108025455333808,0
1075,2.1468895337652345,0
1076,2.0767316079692733,0
1077,2.1253841893812315,0
1078,2.1945007289456013,0
1079,2.202702336535918,0
1080,2.236970782307167,0
1081,2.198255395285674,0
1082,2.2253188880869175,0
1083,2.244826423030192,0
1084,2.095475148991549,0
1085,2.2497194401870115,0
1086,2.2371709247941407,0
1087,2.226681602376987,0
1088,2.2584562234700147,0
1089,2.2804979325879957,0
1090,2.177148953159978,0
1091,2.1056322182106118,0
1092,2.2721156178551665,0
1093,2.282270956508694,0
1094,2.281973941383197,0
1095,2.289414092766626,0
1096,2.221906620341177,0
1097,2.2757121459811165,0
1098,2.3285282553377287,0
1099,2.410338144404893,0
1100,2.465539551410985,0
1101,2.7585907037643698,0
1102,3.167310488089297,0
1103,3.7685543021080385,0
1104,4.477029366761149,0
1105,5.544933027389007,0
1106,6.732201968515005,0
1107,7.727062326016118,0
1108,8.600689400499792,0
1109,9.177776027029351,0
1110,9.256616058079432,0
1111,8.662389080918636,0
1112,7.669077527122692,0
1113,6.186503438999933,0
1114,4.451120237070219,0
1115,2.43938164904334,0
1116,0.914060064969197,0
1117,-0.16017100701697462,0
1118,-0.6718856104708615,0
1119,-0.5807217824226627,0
1120,0.18442178246561802,0
1121,1.0894141300558569,0
1122,2.2798266427776714,0
1123,3.2160192932971126,0
1124,3.821691654148725,0
1125,3.9466631446004996,0
1126,3.6484566692967038,0
1127,3.276592743765423,0
1128,2.593432387063987,0
1129,2.117578280257806,0
1130,1.6822543949941149,0
1131,1.5018739264675491,0
1132,1.7323587018941011,0
1133,1.892488231171318,0
1134,2.2768100424570563,0
1135,2.4978894967775807,0
1136,2.6250171477882454,0
1137,2.7699856626960795,0
1138,2.6255586422144703,0
1139,2.524071845789566,0
1140,2.49591868443525,0
1141,2.36885774549614,0
1142,2.3096055828651614,0
1143,2.258983217322366,0
1144,2.354843074259886,0
1145,2.262560028364814,0
1146,2.401510577503001,0
1147,2.4252824302825102,0
1148,2.4676960315891012,0
1149,2.350248960114788,0
1150,2.364077836846934,0
1151,2.4434332832982752,0
1152,2.426098470966293,0
1153,2.538655383604002,0
1154,2.510951969072434,0
1155,2.510668698138549,0
1156,2.3623159432008607,0
1157,2.37476466118639,0
1158,2.43265068255576,0
1159,2.39550167831226,0
1160,2.421023914185863,0
1161,2.4467103800420698,0
1162,2.4935038943188528,0
1163,2.493677341135655,0
1164,2.4641872414459147,0
1165,2.3837930455614558,0
1166,2.4570828165979046,0
1167,2.441607693793779,0
1168,2.5509775005347497,0
1169,2.5704123753218546,0
1170,2.499424634136128,0
1171,2.5440273651347516,0
1172,2.555962478147624,0
1173,2.509471279231249,0
1174,2.5110588944631447,0
1175,2.4437224162360933,0
1176,2.5168760857541495,0
1177,2.49950222734371,0
1178,2.442631746034172,0
1179,2.6306646872530686,0
1180,2.484354745040134,0
1181,2.5073022251550965,0
1182,2.560690430752313,0
1183,2.4970924464782063,0
1184,2.5205120803440506,0
1185,2.512494521319016,0
1186,2.575740118104549,0
1187,2.5897732311818715,0
1188,2.5497626680246026,0
1189,2.6027428772198373,0
1190,2.573692094401602,0
1191,2.5962566654736587,0
1192,2.483310764069282,0
1193,2.5393840886217363,0
1194,2.521152637845153,0
1195,2.4689897686920768,0
1196,2.5021754643929466,0
1197,2.6136443660908957,0
1198,2.595954768297841,0
1199,2.681629038760688,0
1200,2.6871709170949125,0
1201,3.056146193136347,0
1202,3.4588258309431863,0
1203,4.01567112292024,0
1204,4.81410847863093,0
1205,5.76588885600553,0
1206,6.822829656180482,0
1207,7.871692841895964,0
1208,8.910741513897953,0
1209,9.391733159893827,0
1210,9.599444259095762,0
1211,9.017618020389797,0
1212,7.976549865985961,0
1213,6.50644698779821,0
1214,4.7625059733283575,0
1215,2.8236948685585777,0
1216,1.289833171725724,0
1217,0.14649465329835332,0
1218,-0.3162547358945398,0
1219,-0.16390642109696651,0
1220,0.40278774330225087,0
1221,1.4718297312660185,0
1222,2.54158873972676,0
1223,3.5346088837177367,0
1224,4.11711405282038,0
1225,4.2356091880090805,0
1226,4.155375847726526,0
1227,3.7144704936071173,0
1228,3.0550339745462316,0
1229,2.494773069568857,0
1230,2.1071951991125095,0
1231,1.9551688315784594,0
1232,2.0336970086947064,0
1233,2.33879379183774,0
1234,2.56495175403372,0
1235,2.821119265342996,0
1236,2.9565830802266966,0
1237,3.0484815539714587,0
1238,3.0670081665658064,0
1239,2.8764273790859787,0
1240,2.840072923235087,0
1241,2.6823380223778486,0
1242,2.695720881286819,0
1243,2.6235845690361272,0
1244,2.645784991007309,0
1245,2.7063717652249877,0
1246,2.7384811208538675,0
1247,2.7004535556460887,0
1248,2.779273846558575,0
1249,2.7711417012340305,0
1250,2.8506472624315293,0
1251,2.8011055140388503,0
1252,2.7662297732171117,0
1253,2.69766150827881,0
1254,2.8294528579702027,0
1255,2.7294797467209753,0
1256,2.6566162459088614,0
1257,2.819959682730032,0
1258,2.7478983383121283,0
1259,2.7713633389107457,0
1260,2.7745485639808525,0
1261,2.757323172404047,0
1262,2.7518283032425424,0
1263,2.6953881043788224,0
1264,2.7644783592083537,0
1265,2.7671778710990833,0
1266,2.787071054449487,0
1267,2.863680473387125,0
1268,2.7705357151396335,0
1269,2.8305274537903995,0
1270,2.785748329606283,0
1271,2.801710420821353,0
1272,2.792877531088704,0
1273,2.8516620300206728,0
1274,2.9504884346976175,0
1275,2.708212903957726,0
1276,2.795620022789633,0
1277,2.809681998943047,0
1278,2.938967909686203,0
1279,2.9170267270044836,0
1280,2.9771550741753994,0
1281,2.7574151243395018,0
1282,2.816776712691686,0
1283,2.825592497941545,0
1284,2.902747597508455,0
1285,2.9666162246601218,0
1286,2.9115517114635154,0
1287,2.9280856173187386,0
1288,2.8795953240731573,0
1289,2.870903947783062,0
1290,2.8696360522232403,0
1291,2.910857149606356,0
1292,2.870933387172581,0
1293,3.0097100061273805,0
1294,2.8456246642050926,0
1295,2.881648907993345,0
1296,2.920125812881679,0
1297,2.893842159510448,0
1298,3.0125291745714047,0
1299,2.9982843687094087,0
1300,3.1376399540079865,0
1301,3.4025783456404404,0
1302,3.752041644454295,0
1303,4.370159311962796,0
1304,5.187584652935035,0
1305,6.036707538808305,0
1306,7.176648836254798,0
1307,8.139381404574081,0
1308,9.16908509946602,0
1309,9.747127745330769,0
1310,9.83858993436708,0
1311,9.31086385464205,0
1312,8.320565466893012,0
1313,6.792382659903565,0
1314,5.077313063932381,0
1315,3.3056276595742236,0
1316,1.6206137789138564,0
1317,0.4668646268099237,0
1318,0.008194934962537648,0
1319,0.24126618781523046,0
1320,0.8358645621439562,0
1321,1.8121674297362114,0
1322,3.0116768237380547,0
1323,3.867567528532988,0
1324,4.379643427694743,0
1325,4.545718532371651,0
1326,4.3948210938730305,0
1327,4.001356794478483,0
1328,3.3265411168181296,0
1329,2.844742078181562,0
1330,2.459123823829974,0
1331,2.2879113546261745,0
1332,2.368341043563725,0
1333,2.51770902471845,0
1334,2.873008790911015,0
1335,3.1816088424396325,0
1336,3.299855600763753,0
1337,3.411472984677696,0
1338,3.3829530047220935,0
1339,3.2937816259558805,0
1340,3.0983540722300797,0
1341,2.9931946570486896,0
1342,3.0143267423693745,0
1343,3.023232501794492,0
1344,2.9485611464184385,0
1345,2.925747066903889,0
1346,2.97298616721961,0
1347,3.0826454500602933,0
1348,3.0420089098330156,0
1349,3.0376194093886135,0
1350,3.16240189507705,0
1351,3.0857085387631638,0
1352,2.983943602503873,0
1353,3.1060081206221812,0
1354,2.980932555761156,0
1355,3.0786619775383426,0
1356,3.06663176236,0
1357,3.066388778782384,0
1358,3.067528961063038,0
1359,3.1014850287632085,0
1360,3.0556995713416875,0
1361,3.1271937657774087,0
1362,3.086105139597608,0
1363,3.082791291691357,0
1364,3.1346657429628753,0
1365,3.127157018305476,0
1366,3.1416185679223214,0
1367,3.1607850628786753,0
1368,3.175034785158809,0
1369,3.1445354089374566,0
1370,3.107184191858377,0
1371,3.0749993275482734,0
1372,3.111421546630388,0
1373,3.0897169988775355,0
1374,3.146135121162645,0
1375,3.0828835787687248,0
1376,3.1937818122089543,0
1377,3.151991947323534,0
1378,3.138919973264614,0
1379,3.1343924152843874,0
1380,3.234688081999205,0
1381,3.2320626783962276,0
1382,3.159174514161137,0
1383,3.24666447587785,0
1384,3.1082498704970893,0
1385,3.2777337857870763,0
1386,3.156853201702043,0
1387,3.2375923678185927,0
1388,3.3084623940540636,0
1389,3.2078488808299475,0
1390,3.09218517028527,0
1391,3.1461204092146287,0
1392,3.1483855287495817,0
1393,3.2097318529576255,0
1394,3.2442904465035807,0
1395,3.204217699296711,0
1396,3.2461893309465957,0
1397,3.2367405497399946,0
1398,3.238119327950266,0
1399,3.2177733896278897,0
1400,3.333377677581621,0
1401,3.6351797877337697,0
1402,4.081714282351695,0
1403,4.5742068108992715,0
1404,5.4705465685002554,0
1405,6.457912712303164,0
1406,7.534970532296235,0
1407,8.474583054511376,0
1408,9.390553261622276,0
1409,9.969089604016332,0
1410,10.199682687131457,0
1411,9.711146295168962,0
1412,8.60780855638109,0
1413,7.188245623396153,0
1414,5.436021388855037,0
1415,3.5322127585090555,0
1416,1.8496518962931827,0
1417,0.7297167090378696,0
1418,0.30139297498653317,0
1419,0.4316649362969862,0
1420,0.9777016063385773,0
1421,1.9826350368357801,0
1422,3.072802298484256,0
1423,4.0594925882396256,0
1424,4.60918443207928,0
1425,4.825611034209316,0
1426,4.6620792765777415,0
1427,4.194146487908448,0
1428,3.734118897631957,0
1429,3.1045669635247064,0
1430,2.7021305902106203,0
1431,2.40311824142511,0
1432,2.642484820879,0
1433,2.784863996149509,0
1434,3.054927834586298,0
1435,3.3352932668637534,0
1436,3.51782926696773,0
1437,3.5749540925496404,0
1438,3.5730822225786856,0
1439,3.445203504640725,0
1440,3.409184672365637,0
1441,3.1698187531673003,0
1442,3.183309856857449,0
1443,3.1448923998180205,0
1444,3.1822251171712383,0
1445,3.222515598063674,0
1446,3.2440472903491973,0
1447,3.278165328796915,0
1448,3.3851196411582385,0
1449,3.313187991832655,0
1450,3.4597506470183936,0
1451,3.344213736020318,0
1452,3.3342296669115425,0
1453,3.3326709588393677,0
1454,3.3261641329565923,0
1455,3.2254917325933246,0
1456,3.4940884334820805,0
1457,3.3953068147735808,0
1458,3.248420531173757,0
1459,3.297353092382926,0
1460,3.258527778613526,0
1461,3.3307863301110805,0
1462,3.377500836901196,0
1463,3.225825220021798,0
1464,3.463147165404242,0
1465,3.3452605654211647,0
1466,3.2889059707838326,0
1467,3.2524202446967365,0
1468,3.2541414372130477,0
1469,3.4057258267983914,0
1470,3.4090603310777876,0
1471,3.2424660532909706,0
1472,3.306413990837103,0
1473,3.2731848634236367,0
1474,3.3635685970512927,0
1475,3.3056899736225156,0
1476,3.3707609701998393,0
1477,3.4048890423496814,0
1478,3.352701726829393,0
1479,3.381095849761638,0
1480,3.2737393845361966,0
1481,3.3693312810450986,0
1482,3.410636488742327,0
1483,3.496738308269529,0
1484,3.342861606600764,0
1485,3.329116262081848,0
1486,3.4082853367572756,0
1487,3.447992641429863,0
1488,3.3657443362417685,0
1489,3.3880834270289,0
1490,3.369619201260242,0
1491,3.4605088661507324,0
1492,3.3692060605509355,0
1493,3.3456414666125545,0
1494,3.394593600502178,0
1495,3.3257073381394058,0
1496,3.358546883082809,0
1497,3.426778866961111,0
1498,3.425517773501833,0
1499,3.4385230394575803,0
1500,3.5910503509233025,0
1501,3.815307645271217,0
1502,4.202272363079289,0
1503,4.880912296233083,0
1504,5.518373082508576,0
1505,6.644527626295079,0
1506,7.644975907270004,0
1507,8.698793875102156,0
1508,9.611786957505657,0
1509,10.219984070982864,0
1510,10.427869121204871,0
1511,10.059576758964651,0
1512,8.938201880100102,0
1513,7.4725101421651745,0
1514,5.709691082224529,0
1515,3.8079874580919344,0
1516,2.2496183408824613,0
1517,1.0143817187288975,0
1518,0.44109365014300916,0
1519,0.6834644816332824,0
1520,1.3512741728982176,0
1521,2.1863685580764316,0
1522,3.247960067306707,0
1523,4.385172847107526,0
1524,4.919403729268499,0
1525,5.206085505243755,0
1526,4.981213520722795,0
1527,4.464842937333443,0
1528,3.9010071981809733,0
1529,3.28849500512172,0
1530,2.8413645679552957,0
1531,2.7623377336360084,0
1532,2.799446551827976,0
1533,3.0486915148136156,0
1534,3.290082921376838,0
1535,3.562510013197772,0
1536,3.729962635790663,0
1537,3.7834156717635414,0
1538,3.8614702702788275,0
1539,3.725018705132105,0
1540,3.57762400575474,0
1541,3.469029531993161,0
1542,3.4652519619839777,0
1543,3.41274513480928,0
1544,3.4928415786762126,0
1545,3.4354011180036075,0
1546,3.6401508981140505,0
1547,3.60627156246852,0
1548,3.719362565622499,0
1549,3.581327226449395,0
1550,3.5675073045001335,0
1551,3.6758632294215006,0
1552,3.536240527292779,0
1553,3.5784033784479363,0
1554,3.576860883247803,0
1555,3.522112551680507,0
1556,3.6580031633823715,0
1557,3.671762820551682,0
1558,3.5845969653038496,0
1559,3.5267894732735905,0
1560,3.5099775656694354,0
1561,3.528784475764617,0
1562,3.547375389481025,0
1563,3.584442752809516,0
1564,3.547470629661663,0
1565,3.522268676451365,0
1566,3.4879073016057407,0
1567,3.577615472454861,0
1568,3.678403411764741,0
1569,3.6594362856787415,0
1570,3.536427535421101,0
1571,3.6297001564394606,0
1572,3.5274210134530164,0
1573,3.5427165399682714,0
1574,3.6269185078318635,0
1575,3.5928253907407037,0
1576,3.59073699420768,0
1577,3.7203237684027193,0
1578,3.642209694869746,0
1579,3.700162695098002,0
1580,3.5752857930349915,0
1581,3.6857627232537267,0
1582,3.750886273826429,0
1583,3.7328735027904454,0
1584,3.6207888036201035,0
1585,3.6232014018733714,0
1586,3.591811936767279,0
1587,3.690672866774183,0
1588,3.661893880049126,0
1589,3.6331890334801233,0
1590,3.651493540896334,0
1591,3.578927240048588,0
1592,3.622200597680651,0
1593,3.6266982565055255,0
1594,3.677901730277748,0
1595,3.551776095814495,0
1596,3.7002340203521493,0
1597,3.737743654000939,0
1598,3.7097850150532277,0
1599,3.7608479854339283,0
1600,3.836996243466212,0
1601,4.193288785285709,0
1602,4.466207635800341,0
1603,5.0460261650763405,0
1604,5.853780293893868,0
1605,6.840232316910843,0
1606,7.85356131986722,0
1607,8.87046241211647,0
1608,9.903452064633194,0
1609,10.561884389265167,0
1610,10.6878753086529,0
1611,10.293978818877422,0
1612,9.170098301869523,0
1613,7.673210096772365,0
1614,5.985403480052509,0
1615,4.167215177177162,0
1616,2.5395076235634457,0
1617,1.2394091648046506,0
1618,0.7239284607155332,0
1619,0.8559129428055599,0
1620,1.2987131782077919,0
1621,2.4015624561744966,0
1622,3.4088824113259975,0
1623,4.48704895959068,0
1624,5.132540936597062,0
1625,5.2794779087732495,0
1626,5.089923763444315,0
1627,4.620417614216164,0
1628,4.187549595927082,0
1629,3.5137727046155844,0
1630,3.148220080285652,0
1631,2.932562298257877,0
1632,3.0233155623963057,0
1633,3.2793430219132276,0
1634,3.6342428465440633,0
1635,3.695781923892396,0
1636,3.9741655161831413,0
1637,4.179778871698156,0
1638,4.071548469945997,0
1639,3.9768119254377554,0
1640,3.9284531174561694,0
1641,3.7914159534265592,0
1642,3.667586519722285,0
1643,3.7056581388637135,0
1644,3.67242668418857,0
1645,3.7851992178224885,0
1646,3.7877829788591932,0
1647,3.6929298843228393,0
1648,3.746316091967548,0
1649,3.8377490176792928,0
1650,3.779838888225423,0
1651,3.8037461759575275,0
1652,3.840716402570081,0
1653,3.788050080222811,0
1654,3.8274336478640816,0
1655,3.824935763817175,0
1656,3.7968869410051522,0
1657,3.7708251286537537,0
1658,3.8190438188159543,0
1659,3.8701390270161413,0
1660,3.8989391611356488,0
1661,3.9770837763064955,0
1662,3.941811544095303,0
1663,3.87674123753748,0
1664,3.853060792367835,0
1665,3.962611207747048,0
1666,3.8473350072557033,0
1667,3.8768661555116526,0
1668,3.8227768358212098,0
1669,3.8618906073960235,0
1670,3.771512707078961,0
1671,3.8673424402439602,0
1672,3.8554484563806706,0
1673,3.8290547949168268,0
1674,3.9023017639532194,0
1675,4.001068595877363,0
1676,3.8516823647960496,0
1677,3.9493906785508344,0
1678,3.8559838081004596,0
1679,3.8759436247224577,0
1680,3.7956882113636494,0
1681,3.9980136689810037,0
1682,3.843612189445192,0
1683,3.939023185137463,0
1684,3.979493130100914,0
1685,3.9347628030552606,0
1686,3.8909178975656786,0
1687,3.9421649604158038,0
1688,3.885243253347273,0
1689,3.8969755976759455,0
1690,4.002232714137648,0
1691,3.948352974968881,0
1692,3.839750458906881,0
1693,3.862556677122345,0
1694,3.897257409096879,0
1695,3.9220469324758147,0
1696,3.935526491285515,0
1697,3.898904884936804,0
1698,3.926963946671886,0
1699,4.0800096608169225,0
1700,4.151147048062367,0
1701,4.4036824784703335,0
1702,4.7540077926629305,0
1703,5.264919756301668,0
1704,6.035832302066684,0
1705,6.981729154688586,0
1706,8.078240285620684,0
1707,9.084297363564017,0
1708,10.073555251052849,0
1709,10.722236445906054,0
1710,10.883978417954774,0
1711,10.452202576162634,0
1712,9.397543230863167,0
1713,7.996769643765005,0
1714,6.303658987334073,0
1715,4.416972716082997,0
1716,2.7280772629356784,0
1717,1.5760205481333243,0
1718,0.9470098599610108,0
1719,1.0706266382337075,0
1720,1.7774371869754195,0
1721,2.6329845176711686,0
1722,3.734353465838393,0
1723,4.701753526123962,0
1724,5.511598763210314,0
1725,5.5923755255925,0
1726,5.427878988040344,0
1727,4.994816421154436,0
1728,4.463548068157788,0
1729,3.79467041366705,0
1730,3.519694202550297,0
1731,3.167365767369615,0
1732,3.302403200778734,0
1733,3.4499269232500525,0
1734,3.8065343901926956,0
1735,4.109315711679315,0
1736,4.2828239011349165,0
1737,4.307814890642749,0
1738,4.292003750865118,0
1739,4.2531651397703945,0
1740,4.087896457036231,0
1741,3.9736528291432593,0
1742,3.8872562734662393,0
1743,3.9107611096723467,0
1744,3.895680183071256,0
1745,4.007869021219224,0
1746,4.103697761180781,0
1747,4.002022247364991,0
1748,3.9973265099968676,0
1749,4.123489013624374,0
1750,4.0735856442433915,0
1751,4.046756129502179,0
1752,4.13437478562998,0
1753,4.08674157868528,0
1754,3.9465152589644767,0
1755,4.047870113840395,0
1756,4.112681711013242,0
1757,4.036933432325681,0
1758,4.099265156110175,0
1759,4.0484150883852825,0
1760,4.09956528664944,0
1761,4.090296657372644,0
1762,4.101683690941323,0
1763,4.147597699579718,0
1764,4.162300046877473,0
1765,4.151736078043393,0
1766,4.101658703602152,0
1767,4.1429926478615435,0
1768,4.1332320657586825,0
1769,4.112104114919773,0
1770,4.1078877337105615,0
1771,4.069507436544482,0
1772,4.082871820080966,0
1773,4.064143493792695,0
1774,4.063331363433644,0
1775,4.048296720253228,0
1776,4.166432792975965,0
1777,4.090781975109629,0
1778,4.046193308437028,0
1779,4.142388693307113,0
1780,4.107340514864629,0
1781,4.000133571026366,0
1782,4.091243863859359,0
1783,4.074325608166007,0
1784,4.110731340374666,0
1785,4.025219754827487,0
1786,4.167207626294336,0
1787,4.209410158802108,0
1788,4.202552414032156,0
1789,4.191557169741799,0
1790,4.180400057006173,0
1791,4.0745834972133075,0
1792,4.125574979294378,0
1793,4.104660697368352,0
1794,4.135665632128158,0
1795,4.176420034441881,0
1796,4.19999162347424,0
1797,4.133468863825167,0
1798,4.177328216064248,0
1799,4.210565065681288,0
1800,4.324963889896801,0
1801,4.643339197662025,0
1802,4.988056884695966,0
1803,5.468995791628375,0
1804,6.316744218268315,0
1805,7.292595992701763,0
1806,8.322998423566421,0
1807,9.319295593979895,0
1808,10.297191655721104,0
1809,10.922767041496684,0
1810,11.13873302108564,0
1811,10.827560509196491,0
1812,9.726072797880828,0
1813,8.27147896169641,0
1814,6.574743621072809,0
1815,4.651937349203029,0
1816,3.043722211803396,0
1817,1.726493715526939,0
1818,1.2435886592899035,0
1819,1.2800060667354973,0
1820,1.8647577218399212,0
1821,2.7628200641247123,0
1822,3.8575049356536106,0
1823,5.012799870495291,0
1824,5.682464400604681,0
1825,5.809055140854719,0
1826,5.708523143072791,0
1827,5.264684252616577,0
1828,4.667214677957188,0
1829,4.070557010601646,0
1830,3.5402238727711284,0
1831,3.4082172575247536,0
1832,3.5050138763821415,0
1833,3.7392853987669423,0
1834,3.9868977739551337,0
1835,4.32863244866428,0
1836,4.448371964908329,0
1837,4.559184012901817,0
1838,4.534254303742784,0
1839,4.535756815621159,0
1840,4.34282945488694,0
1841,4.330183123641318,0
1842,4.248856755523369,0
1843,4.199522956578892,0
1844,4.133970387279579,0
1845,4.194422466986609,0
1846,4.282092297010477,0
1847,4.194204894672632,0
1848,4.309412055745059,0
1849,4.332817864228959,0
1850,4.262301078153536,0
1851,4.34256133254113,0
1852,4.308097436683148,0
1853,4.274982022222237,0
1854,4.283619662820443,0
1855,4.365650412960583,0
1856,4.234938895527008,0
1857,4.38870497946048,0
1858,4.200144951953696,0
1859,4.279006043152109,0
1860,4.183703997917384,0
1861,4.337511916890796,0
1862,4.2422899398859,0
1863,4.209336074542596,0
1864,4.253366265359605,0
1865,4.3252727753000215,0
1866,4.2070508137073235,0
1867,4.345264606626996,0
1868,4.351356359775791,0
1869,4.335836486134289,0
1870,4.304910999042958,0
1871,4.39805759732485,0
1872,4.321927806330373,0
1873,4.331692805922996,0
1874,4.461141028383589,0
1875,4.337868885513492,0
1876,4.4025212037218,0
1877,4.30583889446357,0
1878,4.35750101786073,0
1879,4.413249685951737,0
1880,4.384328657991663,0
1881,4.282861276849759,0
1882,4.360600551211753,0
1883,4.371426989913956,0
1884,4.38923347623948,0
1885,4.271453588268457,0
1886,4.405443782186627,0
1887,4.370756843660891,0
1888,4.361966400238521,0
1889,4.359733330977744,0
1890,4.368848860773736,0
1891,4.37669418236071,0
1892,4.352796660225362,0
1893,4.334466998670073,0
1894,4.320696897237538,0
1895,4.343545301550979,0
1896,4.341133851564818,0
1897,4.319165869284072,0
1898,4.386549559205871,0
1899,4.4585824363020885,0
1900,4.549072079543586,0
1901,4.831284677391837,0
1902,5.136381794851678,0
1903,5.687391389118161,0
1904,6.52601007367155,0
1905,7.435468826440275,0
1906,8.425032785574135,0
1907,9.546648140454232,0
1908,10.50804430604158,0
1909,11.018904245977346,0
1910,11.376276237704662,0
1911,10.937120191533548,0
1912,9.972828642783604,0
1913,8.530957472321424,0
1914,6.786817888767034,0
1915,4.89772946032167,0
1916,3.3508670482886656,0
1917,2.0386717737644746,0
1918,1.35125221018142,0
1919,1.487506192260287,0
1920,2.0673297084918025,0
1921,2.9620283780934593,0
1922,4.070096771252015,0
1923,5.113217945662642,0
1924,5.7568855191185255,0
1925,6.04043794751632,0
1926,5.847497122537628,0
1927,5.357088764804489,0
1928,4.84698955249712,0
1929,4.320572677855347,0
1930,3.8431880276601356,0
1931,3.6597861499140856,0
1932,3.822749476031599,0
1933,4.010077598933978,0
1934,4.1490856834638885,0
1935,4.520092120174428,0
1936,4.700280885113701,0
1937,4.829392095888336,0
1938,4.769271349108134,0
1939,4.7232574386240564,0
1940,4.547184381547279,0
1941,4.456133086602956,0
1942,4.343559497264929,0
1943,4.3576783953873885,0
1944,4.399686596088642,0
1945,4.3923672414235755,0
1946,4.3738125390871545,0
1947,4.488572732740194,0
1948,4.4995976524144945,0
1949,4.4787806804242,0
1950,4.432806689266655,0
1951,4.501292525982415,0
1952,4.485279692500355,0
1953,4.566052440106242,0
1954,4.460046546174153,0
1955,4.437179525125526,0
1956,4.451326433278524,0
1957,4.551928772730084,0
1958,4.480762223882572,0
1959,4.508562903796837,0
1960,4.449602262700351,0
1961,4.49532007767731,0
1962,4.531037426646073,0
1963,4.496560143086247,0
1964,4.545618977201279,0
1965,4.439360567795507,0
1966,4.602233276231091,0
1967,4.478934361149592,0
1968,4.521694410540628,0
1969,4.484438121948791,0
1970,4.53763673410295,0
1971,4.482168604910787,0
1972,4.612685409358008,0
1973,4.5387827556369,0
1974,4.538888343664484,0
1975,4.546791056541572,0
1976,4.570862220861299,0
1977,4.566277711649391,0
1978,4.505297885390843,0
1979,4.554949715582438,0
1980,4.566537574316916,0
1981,4.527492915721676,0
1982,4.498534000463346,0
1983,4.532245957278694,0
1984,4.5097155665737905,0
1985,4.526962475320421,0
1986,4.599168115009327,0
1987,4.602525464952505,0
1988,4.508593887420272,0
1989,4.551280027892834,0
1990,4.565937866855699,0
1991,4.680599876374544,0
1992,4.594012266978756,0
1993,4.62634990815777,0
1994,4.589615731986489,0
1995,4.55780763151105,0
1996,4.575240743175739,0
1997,4.608576013237474,0
1998,4.6351226801956145,0
1999,4.512314512960628,0
2000,4.707902413423604,0
2001,4.9833927152693605,0
2002,5.307859432193848,0
2003,5.918226502114798,0
2004,6.622224517493439,0
2005,7.565420143081003,0
2006,8.570812331210021,0
2007,9.697500153310202,0
2008,10.737496897728779,0
2009,11.371885076172799,0
2010,11.560732379086353,0
2011,11.244852782534117,0
2012,10.178693289878431,0
2013,8.82591068898228,0
2014,7.0453983328184435,0
2015,5.209212995160082,0
2016,3.591208645946838,0
2017,2.238522381566685,0
2018,1.661184109152264,0
2019,1.6864313481308293,0
2020,2.27322235501926,0
2021,3.156659345113513,0
2022,4.327424477314014,0
2023,5.247051533577951,0
2024,6.068536884603237,0
2025,6.084918168905248,0
2026,5.994612364823943,0
2027,5.690733356846977,0
2028,5.123712408565447,0
2029,4.5911226463246315,0
2030,4.086913163783359,0
2031,3.9179952945013405,0
2032,3.9648832275445742,0
2033,4.1189644917201855,0
2034,4.40196489111372,0
2035,4.729842335596904,0
2036,4.843636194715149,0
2037,4.903669492932474,0
2038,4.921356253837317,0
2039,4.912618343973924,0
2040,4.8523789058478775,0
2041,4.735572809870145,0
2042,4.563588967783627,0
2043,4.6107804431035575,0
2044,4.6737446147697055,0
2045,4.697908635760068,0
2046,4.659621719861737,0
2047,4.730569737699707,0
2048,4.6755695915843765,0
2049,4.779169887008827,0
2050,4.700202067666949,0
2051,4.760502315492547,0
2052,4.72155610432861,0
2053,4.637629130905387,0
2054,4.615544551132936,0
2055,4.775789791264195,0
2056,4.737980344011541,0
2057,4.695877854141234,0
2058,4.717753950106885,0
2059,4.707349541157592,0
2060,4.779404195131565,0
2061,4.654522557027218,0
2062,4.724806743083532,0
2063,4.743227835791471,0
2064,4.701008885658796,0
2065,4.811893704137852,0
2066,4.780688796150554,0
2067,4.771461111799102,0
2068,4.7865719855372,0
2069,4.773113908726606,0
2070,4.744558073293367,0
2071,4.838961325126108,0
2072,4.7839004146110105,0
2073,4.811964440637145,0
2074,4.767824721517203,0
2075,4.863685038224725,0
2076,4.8085750591129015,0
2077,4.800457828575341,0
2078,4.791086836149798,0
2079,4.803642575255896,0
2080,4.873900154784348,0
2081,4.744588236292973,0
2082,4.813422116315069,0
2083,4.796994426710094,0
2084,4.81118041222558,0
2085,4.8324103138567756,0
2086,4.743907633384564,0
2087,4.849766127454275,0
2088,4.817830963651487,0
2089,4.848312182757418,0
2090,4.838516890052648,0
2091,4.758810288090223,0
2092,4.782919275007632,0
2093,4.7474506481082255,0
2094,4.7452272466304075,0
2095,4.804076243962109,0
2096,4.804658541100331,0
2097,4.837448348401027,0
2098,4.829215907419396,0
2099,4.817213349483692,0
2100,5.051981933679473,0
2101,5.2560551048360615,0
2102,5.552279569034617,0
2103,6.1005664490204285,0
2104,6.801357930797633,0
2105,7.852657199287299,0
2106,8.83052270037049,0
2107,9.883762627159975,0
2108,10.884958857550778,0
2109,11.528457783314519,0
2110,11.741409477127846,0
2111,11.462729177848452,0
2112,10.527234423672674,0
2113,9.036830261728461,0
2114,7.395880583469115,0
2115,5.441883791698801,0
2116,3.788006263299261,0
2117,2.37045923475933,0
2118,1.8376516054429848,0
2119,1.917952071360757,0
2120,2.533279724269879,0
2121,3.4234119959502163,0
2122,4.474171868273019,0
2123,5.467651358449768,0
2124,6.3213416315393935,0
2125,6.429179551340462,0
2126,6.304422431443866,0
2127,5.756190645796626,0
2128,5.288891391724927,0
2129,4.785072631410777,0
2130,4.315471587645611,0
2131,4.05193673164622,0
2132,4.204308599684575,0
2133,4.437714935676037,0
2134,4.6185903577450365,0
2135,4.879681249327947,0
2136,5.0875878078416745,0
2137,5.223804573285876,0
2138,5.359957507332183,0
2139,5.092032573457331,0
2140,5.006115005663668,0
2141,4.970944315623956,0
2142,4.831014274960124,0
2143,4.798906272050498,0
2144,4.82421009820439,0
2145,4.877619660278224,0
2146,4.924663946502823,0
2147,4.9369513978078805,0
2148,4.957731988410549,0
2149,5.021911704745164,0
2150,4.927873078277557,0
2151,4.927703998765845,0
2152,4.910742474851251,0
2153,4.893852056227655,0
2154,4.95094518900519,0
2155,4.928420324850937,0
2156,4.9648326303851,0
2157,4.995932646164863,0
2158,4.997845616322091,0
2159,4.938436735551726,0
2160,5.017680264852971,0
2161,4.8646966294513705,0
2162,4.923283836135311,0
2163,4.8793751117897255,0
2164,4.988584242463293,0
2165,4.950460654800022,0
2166,5.014040512553333,0
2167,4.998068280466596,0
2168,4.8651093074160645,0
2169,4.955825257623479,0
2170,4.9300147576745825,0
2171,4.960557774673764,0
2172,4.910896690243518,0
2173,4.94247103047485,0
2174,4.9652007193339145,0
2175,4.975107217014621,0
2176,4.963957964298365,0
2177,4.9560109419118135,0
2178,4.934528831109953,0
2179,4.90165686049309,0
2180,4.961119945645019,0
2181,4.877408653370108,0
2182,4.9080792257215595,0
2183,5.005764581058633,0
2184,4.950732751214836,0
2185,4.991400285753746,0
2186,4.921759533725212,0
2187,5.026100717821669,0
2188,4.940748331225816,0
2189,5.009280015038633,0
2190,4.994799345452488,0
2191,5.06592098076031,0
2192,4.929949384453279,0
2193,5.025636375701642,0
2194,4.952133399099265,0
2195,5.008016856173026,0
2196,4.983916651647816,0
2197,5.046080261137825,0
2198,4.998019511407812,0
2199,5.090990300172969,0
2200,5.082020710070085,0
2201,5.319653884390341,0
2202,5.708001196160491,0
2203,6.295144839711241,0
2204,7.005827468755576,0
2205,7.9955238538548254,0
2206,9.101498980816352,0
2207,10.087015915532145,0
2208,11.056842246590529,0
2209,11.75283404509221,0
2210,12.000104102896314,0
2211,11.72957156931399,0
2212,10.710503689481296,0
2213,9.29230879117205,0
2214,7.508568096258718,0
2215,5.7444129767957275,0
2216,3.930626336994307,0
2217,2.6286113702218974,0
2218,1.9841338789260874,0
2219,2.1422068295312733,0
2220,2.6429075174583128,0
2221,3.5513160880702523,0
2222,4.588015147837205,0
2223,5.691738188883396,0
2224,6.357457413385459,0
2225,6.638786640778095,0
2226,6.509315614746942,0
2227,6.106359226965016,0
2228,5.499085106808669,0
2229,4.993853741299305,0
2230,4.419540677936264,0
2231,4.297181065590748,0
2232,4.295558102610715,0
2233,4.512918321362887,0
2234,4.824347142783407,0
2235,5.047141372570789,0
2236,5.2748182998205255,0
2237,5.361007711483283,0
2238,5.426173504913925,0
2239,5.270621558703435,0
2240,5.166844967435194,0
2241,5.031866861518616,0
2242,5.039706632612668,0
2243,5.046294686249865,0
2244,5.108447972132963,0
2245,5.0961573749147995,0
2246,5.106072419909356,0
2247,5.283098739028061,0
2248,5.121578161199335,0
2249,5.082025774805005,0
2250,5.16411691220695,0
2251,5.241122045763952,0
2252,5.210991715397365,0
2253,5.1771940413181605,0
2254,5.109298109436607,0
2255,5.157286945791999,0
2256,5.1505974019551415,0
2257,5.153651659218772,0
2258,5.00748785399328,0
2259,5.181070127741871,0
2260,5.181038986969542,0
2261,5.099884492987112,0
2262,5.0731342108913955,0
2263,5.14421557425226,0
2264,5.100120675354462,0
2265,5.0825192630155955,0
2266,5.136683834115277,0
2267,5.1717997176253885,0
2268,5.085018802283331,0
2269,5.185873824737458,0
2270,5.052741500505799,0
2271,5.070194847184157,0
2272,5.154680303446978,0
2273,5.1999557036029795,0
2274,5.090594521372143,0
2275,5.125007354162545,0
2276,5.171431599521352,0
2277,5.216531813153714,0
2278,5.143655295404153,0
2279,5.1330214102633605,0
2280,5.215859776311047,0
2281,5.138208870840959,0
2282,5.173308913028202,0
2283,5.206332065513162,0
2284,5.159615738262594,0
2285,5.177336751897718,0
2286,5.123223199752584,0
2287,5.10640396360415,0
2288,5.213828252223388,0
2289,5.08196958427124,0
2290,5.0850345253140254,0
2291,5.121032880379389,0
2292,5.084933542487345,0
2293,5.096511625750659,0
2294,5.19401292969185,0
2295,5.158933457700208,0
2296,5.195388969543993,0
2297,5.249905759283983,0
2298,5.253919505054277,0
2299,5.271496307416952,0
2300,5.491990648166036,0
2301,5.690164977008157,0
2302,5.9449758959268175,0
2303,6.513895965791949,0
2304,7.272049741112731,0
2305,8.165067598296497,0
2306,9.19325775639437,0
2307,10.283117846239051,0
2308,11.185267902679627,0
2309,11.986217029764076,0
2310,12.225194250202328,0
2311,11.899150207368947,0
2312,10.99111304167879,0
2313,9.52903399960933,0
2314,7.798986758268564,0
2315,5.929238879775407,0
2316,4.253197056743518,0
2317,2.848085449402247,0
2318,2.222548505976905,0
2319,2.3407596990391286,0
2320,2.855498981656153,0
2321,3.6939740064363313,0
2322,4.851850223205872,0
2323,5.898901446120331,0
2324,6.522567378267215,0
2325,6.8600886871145725,0
2326,6.745298392639008,0
2327,6.225075206867181,0
2328,5.71828137163657,0
2329,5.16266255304414,0
2330,4.6872230286556915,0
2331,4.404935084944029,0
2332,4.445131849568264,0
2333,4.702193127998623,0
2334,4.955555027099848,0
2335,5.199943093011117,0
2336,5.423688231336991,0
2337,5.522006210119823,0
2338,5.535667057389437,0
2339,5.481320374887208,0
2340,5.430498349820477,0
2341,5.238538680377356,0
2342,5.273074318623128,0
2343,5.1569348837206235,0
2344,5.233042315950685,0
2345,5.220781774958534,0
2346,5.173626892116808,0
2347,5.2858294391871885,0
2348,5.295871410650157,0
2349,5.2342738465968015,0
2350,5.356467220574154,0
2351,5.230970861283467,0
2352,5.166461381563247,0
2353,5.245094339323115,0
2354,5.30529956368158,0
2355,5.235018313567357,0
2356,5.282914908469918,0
2357,5.213621042615343,0
2358,5.269383571585349,0
2359,5.28147311886902,0
2360,5.324103678514227,0
2361,5.33614437437707,0
2362,5.251755416796393,0
2363,5.2672597995777375,0
2364,5.28668899823257,0
2365,5.281459999540761,0
2366,5.262402241214434,0
2367,5.238279267162984,0
2368,5.160452127085805,0
2369,5.279043019909871,0
2370,5.260562768012639,0
2371,5.252617199618422,0
2372,5.329813038328122,0
2373,5.22990335110098,0
2374,5.288400971253868,0
2375,5.28515947854808,0
2376,5.324467782432165,0
2377,5.29918637422748,0
2378,5.245337109211771,0
2379,5.275078591247638,0
2380,5.386533936949174,0
2381,5.284058506713792,0
2382,5.354264769223366,0
2383,5.264649494319138,0
2384,5.2675347653204385,0
2385,5.3418229700815125,0
2386,5.282912414479891,0
2387,5.300055179641323,0
2388,5.365468818903227,0
2389,5.37263764178429,0
2390,5.2332083156150935,0
2391,5.203371322539236,0
2392,5.304186320187818,0
2393,5.203334117952267,0
2394,5.275672938646111,0
2395,5.323181056862358,0
2396,5.2157685072564846,0
2397,5.279541333260356,0
2398,5.308756200705552,0
2399,5.313967007502462,0
2400,5.504812555272378,0
2401,5.740506571481203,0
2402,5.974718390979595,0
2403,6.543186410153957,0
2404,7.201708507645516,0
2405,8.117840644922644,0
2406,9.414167611573749,0
2407,10.414033268250844,0
2408,11.2868460116478,0
2409,12.021641494196256,0
2410,12.366288337402931,0
2411,12.018257772424699,0
2412,11.150741866950293,0
2413,9.843253048492691,0
2414,7.905638110099323,0
2415,6.0551987213425,0
2416,4.449049020125792,0
2417,3.1740420039267816,0
2418,2.361611923555791,0
2419,2.328655816341452,0
2420,3.0538143494044894,0
2421,3.7839125893311327,0
2422,4.891635620175656,0
2423,5.9288998899586804,0
2424,6.687290601161662,0
2425,6.988042599542148,0
2426,6.80880322907484,0
2427,6.375440544966649,0
2428,5.794089068237774,0
2429,5.232708054071853,0
2430,4.732978405338028,0
2431,4.637284996862993,0
2432,4.653160338367577,0
2433,4.8328514835202006,0
2434,5.013623650168621,0
2435,5.388636499898422,0
2436,5.567316902642402,0
2437,5.7126171410573505,0
2438,5.690867878259441,0
2439,5.664363871240856,0
2440,5.5614833133168435,0
2441,5.313567161705991,0
2442,5.365494625941536,0
2443,5.247270635871879,0
2444,5.305663240344016,0
2445,5.310582768725901,0
2446,5.327240202004175,0
2447,5.334512482154551,0
2448,5.285018194954065,0
2449,5.439385067464601,0
2450,5.328506387462822,0
2451,5.337432075638497,0
2452,5.349456163282448,0
2453,5.353277583791146,0
2454,5.316347055319945,0
2455,5.491024348618301,0
2456,5.3412212228847205,0
2457,5.299285462741324,0
2458,5.282876021824133,0
2459,5.4111569037538345,0
2460,5.385864242237254,0
2461,5.402357294244107,0
2462,5.417725318681535,0
2463,5.430520295928735,0
2464,5.3674482440090605,0
2465,5.450359380661873,0
2466,5.432553134650058,0
2467,5.4878191396234115,0
2468,5.532858543412021,0
2469,5.4555297530869735,0
2470,5.368696782720967,0
2471,5.493074751907551,0
2472,5.5554007499536935,0
2473,5.425503577167805,0
2474,5.503936119211469,0
2475,5.3747425387441226,0
2476,5.428762544763538,0
2477,5.406169947516967,0
2478,5.465140921161711,0
2479,5.259727666697176,0
2480,5.381392789396683,0
2481,5.293425193648277,0
2482,5.44230740043562,0
2483,5.407160778381784,0
2484,5.322261870857355,0
2485,5.384972982048429,0
2486,5.391113386068709,0
2487,5.42714072465164,0
2488,5.471383761433179,0
2489,5.465503615938742,0
2490,5.437509751195614,0
2491,5.520490513673964,0
2492,5.485288145565764,0
2493,5.4666428246252545,0
2494,5.618960550635683,0
2495,5.432901719065503,0
2496,5.46096461818705,0
2497,5.416096969885826,0
2498,5.4514313176827915,0
2499,5.454141777268617,0
2500,5.593186110202043,0
2501,5.872029261751323,0
2502,6.142613750482488,0
2503,6.738504204568168,0
2504,7.423080101096598,0
2505,8.350181126332767,0
2506,9.468856366639338,0
2507,10.5423227983654,0
2508,11.502440881795069,0
2509,12.149347835921386,0
2510,12.506063802150098,0
2511,12.031062382889996,0
2512,11.300049301811509,0
2513,9.86357697229387,0
2514,8.150103361399587,0
2515,6.281512249592555,0
2516,4.493827257818444,0
2517,3.2163431306628576,0
2518,2.4912328119763787,0
2519,2.5111077184457105,0
2520,3.032524583002154,0
2521,3.9209296305331307,0
2522,5.0577613149872445,0
2523,6.082150264786057,0
2524,6.842726793842893,0
2525,7.050943911335095,0
2526,6.963721116025172,0
2527,6.5503592152103955,0
2528,6.1394351069513045,0
2529,5.467173385818573,0
2530,5.192644856589508,0
2531,4.72388298471421,0
2532,4.835274970367448,0
2533,4.971458308877334,0
2534,5.226334412177043,0
2535,5.569558239843288,0
2536,5.818480848570757,0
2537,5.824343047500534,0
2538,5.872162133613974,0
2539,5.777242896158693,0
2540,5.724636838538357,0
2541,5.585400582061028,0
2542,5.531941437440107,0
2543,5.523366357825932,0
2544,5.376929662460707,0
2545,5.501605324448916,0
2546,5.568620250365272,0
2547,5.607073010806299,0
2548,5.63371787770772,0
2549,5.578096705080051,0
2550,5.621659516490812,0
2551,5.605628511457712,0
2552,5.5977330805145264,0
2553,5.468714468677576,0
2554,5.472941641342482,0
2555,5.635732904943531,0
2556,5.528043464000134,0
2557,5.521800105203287,0
2558,5.571859077186514,0
2559,5.514332778305877,0
2560,5.495324525329719,0
2561,5.644255188001928,0
2562,5.4682368740642815,0
2563,5.5419421651250484,0
2564,5.6076029849465465,0
2565,5.587684456379496,0
2566,5.50657248654268,0
2567,5.544921756608993,0
2568,5.54710372517149,0
2569,5.576363087211618,0
2570,5.643628130594708,0
2571,5.516368994123167,0
2572,5.6878440841527445,0
2573,5.580209761875951,0
2574,5.609549591994388,0
2575,5.643587695947279,0
2576,5.661854027001317,0
2577,5.6175668014065945,0
2578,5.625589673583985,0
2579,5.557672995298984,0
2580,5.594639843328582,0
2581,5.585145013677881,0
2582,5.663699853756273,0
2583,5.6356289315730335,0
2584,5.69581396170645,0
2585,5.681649207357767,0
2586,5.582751458627679,0
2587,5.632604227912331,0
2588,5.636130760683953,0
2589,5.5534151540203975,0
2590,5.624051072008111,0
2591,5.530240783719529,0
2592,5.615265948911391,0
2593,5.6871919654888226,0
2594,5.7542550304257345,0
2595,5.678596518357769,0
2596,5.730016528370716,0
2597,5.67792163902546,0
2598,5.637930000181756,0
2599,5.7736174734773895,0
2600,5.876114603457749,0
2601,6.0393231472088855,0
2602,6.317154642159161,0
2603,6.8870947955684425,0
2604,7.666119475161395,0
2605,8.538569780904872,0
2606,9.617325675088226,0
2607,10.71257873060093,0
2608,11.56867645676271,0
2609,12.356368759151433,0
2610,12.567326299298966,0
2611,12.381307958626142,0
2612,11.447843205702657,0
2613,10.081840580913116,0
2614,8.415292531487486,0
2615,6.517111132385402,0
2616,4.728831150437128,0
2617,3.430586812170208,0
2618,2.5860600088716383,0
2619,2.7086363516117085,0
2620,3.279382779944628,0
2621,3.9898161359552784,0
2622,5.199757130063603,0
2623,6.322594250654288,0
2624,6.950733551164124,0
2625,7.33186652398246,0
2626,7.11477061155567,0
2627,6.736411189938679,0
2628,6.193095013391666,0
2629,5.720638505302337,0
2630,5.221331961988674,0
2631,4.908855037608435,0
2632,4.905653550236056,0
2633,5.255207245673027,0
2634,5.378712404830838,0
2635,5.770126431819324,0
2636,5.962617559592052,0
2637,6.089450187809859,0
2638,6.032671628242471,0
2639,5.920485718551814,0
2640,5.787668571277055,0
2641,5.761801205441573,0
2642,5.687815890182002,0
2643,5.562887241302519,0
2644,5.6402215180960935,0
2645,5.787467742153085,0
2646,5.752906527559622,0
2647,5.685863966475568,0
2648,5.806292493423058,0
2649,5.770059581940231,0
2650,5.690249107675261,0
2651,5.831311023395327,0
2652,5.72184109906011,0
2653,5.7230017654412855,0
2654,5.713331230842193,0
2655,5.794032583907489,0
2656,5.6995362167299035,0
2657,5.669284233323815,0
2658,5.767905997321441,0
2659,5.755080368929343,0
2660,5.7455578169060075,0
2661,5.728326143003591,0
2662,5.749443398819874,0
2663,5.831180940820877,0
2664,5.721670645053796,0
2665,5.76820559804048,0
2666,5.74256074676324,0
2667,5.824203902453763,0
2668,5.742020654769328,0
2669,5.7652139715120105,0
2670,5.757996119419358,0
2671,5.855470039338783,0
2672,5.704450465336101,0
2673,5.85328444983356,0
2674,5.812749013609626,0
2675,5.714464193212733,0
2676,5.873552001942268,0
2677,5.802497722352769,0
2678,5.716881488886644,0
2679,5.747428723116507,0
2680,5.738150891619357,0
2681,5.756983176504623,0
2682,5.819310635779785,0
2683,5.727296306972896,0
2684,5.756502554529584,0
2685,5.83539993834138,0
2686,5.772201785332543,0
2687,5.8415561692083084,0
2688,5.789313266450473,0
2689,5.846248902318947,0
2690,5.847088733134502,0
2691,5.772736051050343,0
2692,5.828091704067327,0
2693,5.803880143026065,0
2694,5.805918941713341,0
2695,5.844930011487118,0
2696,5.872072557243665,0
2697,5.798543156163621,0
2698,5.908828900572505,0
2699,5.911067731392411,0
2700,5.976037855112932,0
2701,6.159620673418803,0
2702,6.495323393650987,0
2703,6.968998971722734,0
2704,7.69220872873003,0
2705,8.68653430519136,0
2706,9.619068907161193,0
2707,10.721155553051286,0
2708,11.807736288638608,0
2709,12.530962969458159,0
2710,12.836245929079844,0
2711,12.642683260580487,0
2712,11.564860241872415,0
2713,10.31588268093438,0
2714,8.600065428540043,0
2715,6.714486687974603,0
2716,5.138226832752612,0
2717,3.657057184712783,0
2718,2.9649832802004683,0
2719,2.9299384195098805,0
2720,3.307917744434029,0
2721,4.277501049034662,0
2722,5.351355875743015,0
2723,6.415706692848283,0
2724,7.081634443602798,0
2725,7.428425836715546,0
2726,7.375483424735433,0
2727,6.853694442245629,0
2728,6.463405317795609,0
2729,5.774141494622506,0
2730,5.401268415104617,0
2731,5.126824199124289,0
2732,5.169531599024126,0
2733,5.252437564454597,0
2734,5.562455254134006,0
2735,5.858613321809432,0
2736,5.896915599353018,0
2737,6.137984900081219,0
2738,6.142899834523504,0
2739,6.048623854160078,0
2740,6.0259766154921275,0
2741,5.869464312729502,0
2742,5.736887930505042,0
2743,5.719225141915321,0
2744,5.751509791095716,0
2745,5.843172658256129,0
2746,5.928362842823998,0
2747,5.883443272705556,0
2748,5.957282167803639,0
2749,5.9439684762302,0
2750,5.966252043278919,0
2751,6.0963789371882795,0
2752,5.934588432040693,0
2753,6.057182195633264,0
2754,5.98990319539937,0
2755,5.951842834930746,0
2756,5.897051704787131,0
2757,5.956880095590783,0
2758,5.890517694882377,0
2759,5.960107043834969,0
2760,5.887068749048603,0
2761,5.841537126544057,0
2762,5.784477578333121,0
2763,5.8390665416454635,0
2764,5.795848576310493,0
2765,5.921158969381787,0
2766,5.901701827725487,0
2767,5.865424083225927,0
2768,5.902502109621307,0
2769,5.875072981170787,0
2770,5.895211804215612,0
2771,5.930224504658543,0
2772,5.942161101119363,0
2773,5.871884675461125,0
2774,5.874913740870287,0
2775,5.840759261197569,0
2776,5.950818167403414,0
2777,5.915781335922009,0
2778,5.868827693107336,0
2779,5.860347389702368,0
2780,5.886622604231104,0
2781,5.9262580521886425,0
2782,5.887403624404317,0
2783,5.919504446779297,0
2784,5.8611376276786835,0
2785,5.962422488151285,0
2786,5.916798424117996,0
2787,5.931194057271584,0
2788,6.007754730895352,0
2789,5.860123186073814,0
2790,6.0014403561148395,0
2791,5.827966561104848,0
2792,5.907196918847962,0
2793,5.931723540148821,0
2794,5.918955210151502,0
2795,5.94943467063013,0
2796,5.912496107986907,0
2797,5.955901514305783,0
2798,5.8970808039702245,0
2799,6.000479705535809,0
2800,6.128446509178763,0
2801,6.278640086312046,0
2802,6.698334710775441,0
2803,7.173573524350166,0
2804,7.849847237072266,0
2805,8.757988344804119,0
2806,9.778851831360043,0
2807,10.771894935027756,0
2808,11.78089447495017,0
2809,12.630019666306453,0
2810,12.9945603748725,0
2811,12.705435772337683,0
2812,11.826542144020951,0
2813,10.344871185678015,0
2814,8.78660331534678,0
2815,6.942158833759084,0
2816,5.08218314732377,0
2817,3.751371109045425,0
2818,3.093073902119965,0
2819,2.9606165217060085,0
2820,3.4989507895944643,0
2821,4.349820579126142,0
2822,5.391679357893738,0
2823,6.4436640850292894,0
2824,7.220731216203566,0
2825,7.532591534763814,0
2826,7.404313041864565,0
2827,7.090314370855701,0
2828,6.551959778439967,0
2829,5.9509885736694805,0
2830,5.540770709359146,0
2831,5.101042889291477,0
2832,5.23807662503755,0
2833,5.535138803562453,0
2834,5.6286913292247664,0
2835,5.902672087070049,0
2836,6.266023385420781,0
2837,6.343570263873415,0
2838,6.2915550909112,0
2839,6.2565906558704185,0
2840,6.1154581166923965,0
2841,6.072392056878101,0
2842,5.954703408814704,0
2843,5.9402661985310194,0
2844,5.899961464801741,0
2845,5.888512052741187,0
2846,5.9820760208725074,0
2847,6.132150511799734,0
2848,6.041514109450415,0
2849,5.907449040750426,0
2850,6.004490980363229,0
2851,6.01468340213419,0
2852,5.895350047673473,0
2853,5.908455186586768,0
2854,5.988261673260256,0
2855,5.953123759154319,0
2856,6.023417867307063,0
2857,6.005822757313329,0
2858,6.05348042594246,0
2859,5.964101606651625,0
2860,5.9395442885839875,0
2861,5.990937332517151,0
2862,5.910772160405794,0
2863,5.971842264679394,0
2864,5.930058472172075,0
2865,6.037688694065782,0
2866,5.993671288293325,0
2867,6.062976096587226,0
2868,6.064328943872537,0
2869,5.975313873119617,0
2870,5.9882411944113425,0
2871,5.95204965988197,0
2872,6.017175972389371,0
2873,6.012551667947813,0
2874,6.115362031575197,0
2875,5.968950072458984,0
2876,6.007650851683328,0
2877,6.038319768681751,0
2878,5.8902638039900195,0
2879,6.0088169651843355,0
2880,5.943507425036911,0
2881,5.973586526332009,0
2882,6.016406784075898,0
2883,5.978125651432891,0
2884,5.993061649407874,0
2885,6.021543034804516,0
2886,6.007006915724899,0
2887,5.949990362123073,0
2888,5.957419125928398,0
2889,6.0384605917463405,0
2890,6.0253155618736995,0
2891,5.99779025232411,0
2892,6.039993768034112,0
2893,5.976038047741033,0
2894,6.088309506420602,0
2895,6.081941569974691,0
2896,6.164390874392333,0
2897,6.111354879983903,0
2898,6.092058931284201,0
2899,6.059952346986673,0
2900,6.245489717901311,0
2901,6.410299917274351,0
2902,6.697770655480581,0
2903,7.21308232934256,0
2904,7.998524211212376,0
2905,8.780598350494902,0
2906,9.994644554200129,0
2907,10.973835189821083,0
2908,12.033086774054478,0
2909,12.737387297085004,0
2910,13.033656764124022,0
2911,12.806895112325515,0
2912,11.901168444210704,0
2913,10.542319148150973,0
2914,8.954863003996401,0
2915,7.108862149177182,0
2916,5.303386910720218,0
2917,3.8687799708936255,0
2918,3.2481217104788898,0
2919,3.142835384590181,0
2920,3.5075492904071996,0
2921,4.477511025604937,0
2922,5.464731300018517,0
2923,6.570456380573662,0
2924,7.295169274812517,0
2925,7.617156214302329,0
2926,7.518364780854041,0
2927,7.135548084540121,0
2928,6.6154260312754,0
2929,6.021420270442278,0
2930,5.617909519230267,0
2931,5.425291538872724,0
2932,5.358714149826442,0
2933,5.577447976350932,0
2934,5.73762705174875,0
2935,5.999835215133117,0
2936,6.256219551500394,0
2937,6.432296199043585,0
2938,6.456958017647778,0
2939,6.320179485073416,0
2940,6.14822212112989,0
2941,6.129986162512874,0
2942,6.053519963722409,0
2943,6.038128373430771,0
2944,6.04260349779661,0
2945,6.059865286939027,0
2946,6.008306103528844,0
2947,6.180094535715701,0
2948,6.099029252383355,0
2949,6.085171834863388,0
2950,6.121132607735954,0
2951,6.125681335361581,0
2952,6.075228657115514,0
2953,6.174307758910138,0
2954,6.058405353541877,0
2955,6.063365386644099,0
2956,6.0646200824631675,0
2957,6.162886801329934,0
2958,6.133770283003506,0
2959,6.1287414230716974,0
2960,6.1428122388801,0
2961,6.199304868359953,0
2962,6.172412987943392,0
2963,6.172853107191354,0
2964,6.162084415526837,0
2965,6.133418569085498,0
2966,6.158160419184935,0
2967,6.096563897380392,0
2968,6.147663791227196,0
2969,5.998966362244641,0
2970,6.0045859205781715,0
2971,6.136521244484639,0
2972,6.183044667536146,0
2973,6.146918196664246,0
2974,6.114333304706214,0
2975,6.120439008550746,0
2976,6.2132667840960245,0
2977,6.116562156337197,0
2978,6.167974932141022,0
2979,6.2390090689551245,0
2980,6.126681765896903,0
2981,6.0994347780014975,0
2982,6.145984348207271,0
2983,6.160317295912664,0
2984,6.128208607336482,0
2985,6.1538055242106635,0
2986,6.215749861696336,0
2987,6.226200909962763,0
2988,6.225392242705323,0
2989,6.245399628156422,0
2990,6.237735523477216,0
2991,6.144001705811141,0
2992,6.15204509329399,0
2993,6.254590484566906,0
2994,6.171710153020452,0
2995,6.078936787090913,0
2996,6.207543292897579,0
2997,6.20129262580544,0
2998,6.273105025742405,0
2999,6.206152185373011,0
3000,5.930867269406065,1
3001,6.533486902810521,1
3002,6.620371754880028,1
3003,7.248068602345217,1
3004,7.900793226095951,1
3005,8.663713315659175,1
3006,10.161124748123003,1
3007,10.631014484276282,1
3008,11.730682213532745,1
3009,13.14007957960825,1
3010,13.15175089102922,1
3011,11.867107477161651,1
3012,12.302617121366046,1
3013,10.729543842981439,1
3014,9.535804985647072,1
3015,8.16301781018998,1
3016,5.8395128890036085,1
3017,4.286578462352623,1
3018,2.7789343569294176,1
3019,2.882284619396257,1
3020,4.857978689092972,1
3021,4.353295953715479,1
3022,5.592566967542089,1
3023,5.450646457028896,1
3024,7.324057733002767,1
3025,7.085951136563686,1
3026,7.59277259771805,1
3027,8.075077110430694,1
3028,7.360248683067216,1
3029,7.434135449710261,1
3030,6.211618118400031,1
3031,4.944310715185446,1
3032,5.231203921275769,1
3033,5.55959211396863,1
3034,4.818347558965621,1
3035,5.96372182064759,1
3036,6.4764908855070145,1
3037,8.07246979036998,1
3038,6.248532381665987,1
3039,7.335209039394819,1
3040,6.438201206277536,1
3041,5.616634826124094,1
3042,5.945490268349899,1
3043,6.273840643907554,1
3044,5.761444765588455,1
3045,5.689876570578552,1
3046,6.91462703012432,1
3047,6.565561080395687,1
3048,6.364544498315189,1
3049,6.064575841591352,1
3050,6.418616022254808,1
3051,5.644966478753141,1
3052,6.156054059707001,1
3053,6.7169378348048365,1
3054,6.0723162639348445,1
3055,6.044902888367981,1
3056,6.359581335054711,1
3057,5.789115270685371,1
3058,5.172571652427225,1
3059,6.994381763123798,1
3060,7.408993367602131,1
3061,6.394040229341837,1
3062,5.684907215428431,1
3063,5.789883903765131,1
3064,5.922005772127154,1
3065,6.661744004409662,1
3066,6.412378877369652,1
3067,6.3273511958136,1
3068,7.620757006055535,1
3069,6.355643452937759,1
3070,7.1509891428504675,1
3071,6.47682079427823,1
3072,7.118279120775275,1
3073,5.724051833642279,1
3074,6.080492441222431,1
3075,6.07767879666522,1
3076,7.680974444415403,1
3077,7.126926853612171,1
3078,7.107611956600543,1
3079,6.561854402865946,1
3080,7.118962143134284,1
3081,5.684660647397738,1
3082,7.137473699322617,1
3083,4.911713602944336,1
3084,5.354003888517255,1
3085,6.801341433717924,1
3086,7.683485953484329,1
3087,6.742149715383721,1
3088,7.614299727946819,1
3089,5.5209372090811035,1
3090,6.351319540080872,1
3091,6.7909341127204215,1
3092,6.289433983821301,1
3093,5.378668422704435,1
3094,6.891903600925069,1
3095,6.261105023634888,1
3096,6.931214218546408,1
3097,6.643340464450026,1
3098,6.258458794590718,1
3099,6.472862050599705,1
3100,6.480003884540285,0
3101,6.639087363587456,0
3102,6.996191163220082,0
3103,7.527721403841315,0
3104,8.278884284029706,0
3105,9.050566477095543,0
3106,10.084483015442304,0
3107,11.211595256338821,0
3108,12.210223591238153,0
3109,12.92058461901373,0
3110,13.338297064438706,0
3111,13.133176859054617,0
3112,12.260870846074237,0
3113,10.882313102834761,0
3114,9.291508008268455,0
3115,7.360236702215434,0
3116,5.672594835343561,0
3117,4.202703190325526,0
3118,3.4944070485476773,0
3119,3.2936459780048835,0
3120,3.8691182779780817,0
3121,4.662014746876985,0
3122,5.6684353655243545,0
3123,6.801796059060393,0
3124,7.601642466241526,0
3125,7.8551271923261465,0
3126,7.857560839181531,0
3127,7.454756560602585,0
3128,6.976837673038885,0
3129,6.436899101523611,0
3130,5.885370659617512,0
3131,5.66047280005032,0
3132,5.697061582369883,0
3133,5.767061296047007,0
3134,6.074032885005571,0
3135,6.207483023366884,0
3136,6.5698138872108,0
3137,6.7362567612821875,0
3138,6.684238184932581,0
3139,6.6132352838027195,0
3140,6.574568789616345,0
3141,6.373904781487933,0
3142,6.331550730212746,0
3143,6.275806488966966,0
3144,6.237793838864384,0
3145,6.298398799367966,0
3146,6.311572310280951,0
3147,6.4274326174825775,0
3148,6.481032625209064,0
3149,6.375868649960886,0
3150,6.445765188256822,0
3151,6.447790214275786,0
3152,6.4225715239930565,0
3153,6.410858834954192,0
3154,6.400621491366851,0
3155,6.388480856480744,0
3156,6.402362921997916,0
3157,6.3573845553812,0
3158,6.422617283202986,0
3159,6.360088795450393,0
3160,6.476215138189773,0
3161,6.33534737713017,0
3162,6.373355489912207,0
3163,6.449168380388023,0
3164,6.398413110903303,0
3165,6.379002965394417,0
3166,6.351251277599626,0
3167,6.3816869880226,0
3168,6.348285981938112,0
3169,6.413641855241579,0
3170,6.362522547671724,0
3171,6.4060797909123846,0
3172,6.427529678254514,0
3173,6.396905846952883,0
3174,6.332959531331948,0
3175,6.40133965420888,0
3176,6.339369986388932,0
3177,6.338133205372951,0
3178,6.40391581580272,0
3179,6.374389659965543,0
3180,6.320578734523258,0
3181,6.264336208036305,0
3182,6.378298945845184,0
3183,6.493603987585282,0
3184,6.439443328685419,0
3185,6.352085425971794,0
3186,6.4448450547896075,0
3187,6.419717098321801,0
3188,6.329682497633034,0
3189,6.344071461658158,0
3190,6.372535490668647,0
3191,6.400723535767737,0
3192,6.4411355813723565,0
3193,6.347090043519092,0
3194,6.348781070890749,0
3195,6.382695365023825,0
3196,6.356131623455794,0
3197,6.353965590115312,0
3198,6.365123504915337,0
3199,6.444417718137651,0
3200,6.6077417276183725,0
3201,6.714735278478416,0
3202,7.004209268788609,0
3203,7.508623697082348,0
3204,8.269317469454649,0
3205,9.141183956314457,0
3206,10.086260804165308,0
3207,11.308835520661127,0
3208,12.268148962288592,0
3209,12.978234481148696,0
3210,13.37516428903375,0
3211,13.301362928243126,0
3212,12.392435201924368,0
3213,11.010810973188391,0
3214,9.354085575898328,0
3215,7.546817172348504,0
3216,5.874435943994738,0
3217,4.49197637094707,0
3218,3.7079373861679135,0
3219,3.470811172144672,0
3220,3.8309392365641872,0
3221,4.788454012366185,0
3222,5.87034263165577,0
3223,6.930325937754368,0
3224,7.687353533982602,0
3225,8.097696503137938,0
3226,7.981461430849842,0
3227,7.601246795563289,0
3228,7.0319161138596495,0
3229,6.476614031386825,0
3230,6.0929792722694005,0
3231,5.70673632878872,0
3232,5.770135358198411,0
3233,5.867448903818057,0
3234,6.058458859391015,0
3235,6.381418167620088,0
3236,6.47375547194031,0
3237,6.820347502468238,0
3238,6.877798939042704,0
3239,6.736041081839857,0
3240,6.52857532091815,0
3241,6.5589011703889755,0
3242,6.46658285028776,0
3243,6.361745260886352,0
3244,6.447495593213278,0
3245,6.443654039198267,0
3246,6.474036179292318,0
3247,6.504386603050887,0
3248,6.6680719342355665,0
3249,6.561510300972508,0
3250,6.644184318411013,0
3251,6.6022183292291565,0
3252,6.584491086314063,0
3253,6.532671118354332,0
3254,6.5365142806521925,0
3255,6.5323637609798375,0
3256,6.465044665849434,0
3257,6.476789909511999,0
3258,6.518717763697537,0
3259,6.5501746194946815,0
3260,6.525718314370968,0
3261,6.484293044261635,0
3262,6.510366786597669,0
3263,6.495620561456654,0
3264,6.454006767814365,0
3265,6.540195526379952,0
3266,6.494440179298794,0
3267,6.5283851304474885,0
3268,6.508922323215671,0
3269,6.528186161453771,0
3270,6.441656442385096,0
3271,6.608413948818007,0
3272,6.578162399806545,0
3273,6.598100945284321,0
3274,6.5546870075731025,0
3275,6.589124428738773,0
3276,6.572297873250296,0
3277,6.663660932853284,0
3278,6.566081778028195,0
3279,6.564459346859932,0
3280,6.592025067657931,0
3281,6.726589888654165,0
3282,6.50531886493341,0
3283,6.573925844098334,0
3284,6.599424208370069,0
3285,6.595268363823602,0
3286,6.574884754167081,0
3287,6.663744858430174,0
3288,6.576908521581399,0
3289,6.602830129797648,0
3290,6.647152393745133,0
3291,6.548080575631882,0
3292,6.568316379724095,0
3293,6.577816494606213,0
3294,6.617210730340102,0
3295,6.673099835741522,0
3296,6.7025438134543265,0
3297,6.5644190596225105,0
3298,6.600944550039276,0
3299,6.659978933477424,0
3300,6.689210042776995,0
3301,6.940128010604759,0
3302,7.200996360400244,0
3303,7.776391953189718,0
3304,8.422073852450975,0
3305,9.302536040548887,0
3306,10.33994446353827,0
3307,11.537362423806723,0
3308,12.441533302640302,0
3309,13.157974644970137,0
3310,13.60604811538039,0
3311,13.403852141889484,0
3312,12.681607874956388,0
3313,11.373512716316036,0
3314,9.752512336272048,0
3315,7.809477868546182,0
3316,6.10600671974545,0
3317,4.567132214231219,0
3318,3.7891559129427455,0
3319,3.631618029998926,0
3320,4.105600322734368,0
3321,4.897264079476247,0
3322,5.9088430309471205,0
3323,7.08054346863211,0
3324,7.896049386831312,0
3325,8.173095441967385,0
3326,8.114298508503836,0
3327,7.721245383964224,0
3328,7.202771443958974,0
3329,6.658268897603533,0
3330,6.232492781980206,0
3331,5.7997090130501485,0
3332,5.824355234264889,0
3333,6.075957933310188,0
3334,6.295633309405925,0
3335,6.5892593579093415,0
3336,6.7827863950242655,0
3337,6.8887685552584745,0
3338,6.959708767487232,0
3339,6.901478565859676,0
3340,6.718318889940167,0
3341,6.515796441210998,0
3342,6.67407689321202,0
3343,6.597191686857626,0
3344,6.529880506044124,0
3345,6.546052053515092,0
3346,6.6294113953334985,0
3347,6.675491238249225,0
3348,6.714868922491058,0
3349,6.631397405800603,0
3350,6.721035029780068,0
3351,6.674296319713776,0
3352,6.627117916822779,0
3353,6.677815305328371,0
3354,6.560857485560457,0
3355,6.66945060127777,0
3356,6.674603527195275,0
3357,6.75809968056202,0
3358,6.709095017236163,0
3359,6.734146056200409,0
3360,6.690491647120106,0
3361,6.7090516885539975,0
3362,6.745943384261055,0
3363,6.717345888425435,0
3364,6.7490157397138,0
3365,6.703788017118263,0
3366,6.706409557406477,0
3367,6.672683413944284,0
3368,6.628669378076367,0
3369,6.681470832546709,0
3370,6.675686430835385,0
3371,6.644388716128599,0
3372,6.7033713454394155,0
3373,6.694947578413464,0
3374,6.6294043392428925,0
3375,6.716453080851437,0
3376,6.695668820358562,0
3377,6.60290493497337,0
3378,6.6462170754687175,0
3379,6.743571681747228,0
3380,6.758411208341025,0
3381,6.748794262762314,0
3382,6.693312446839787,0
3383,6.716495181542639,0
3384,6.698122107944337,0
3385,6.730949541500793,0
3386,6.6726465456574005,0
3387,6.755482112391999,0
3388,6.678166372413095,0
3389,6.750237689070156,0
3390,6.68978335942259,0
3391,6.812426652718162,0
3392,6.715294726894257,0
3393,6.686028321432193,0
3394,6.60954324705814,0
3395,6.724531174529966,0
3396,6.63103427632535,0
3397,6.775818206458957,0
3398,6.732098453259917,0
3399,6.6694594943462535,0
3400,6.782300627340812,0
3401,7.013476265202108,0
3402,7.351476068435926,0
3403,7.752261449183189,0
3404,8.547191443375253,0
3405,9.356119333555535,0
3406,10.368408206814667,0
3407,11.441118165937402,0
3408,12.465903170175586,0
3409,13.214070357309836,0
3410,13.64931602071627,0
3411,13.513079065701799,0
3412,12.71970382811476,0
3413,11.36104375573082,0
3414,9.723550012772144,0
3415,7.922867216538075,0
3416,6.025646465965801,0
3417,4.678480195190563,0
3418,3.863336036721566,0
3419,3.6302815064189575,0
3420,4.2068562801818725,0
3421,4.892080438897904,0
3422,6.13823198059548,0
3423,7.0407048361885956,0
3424,7.7620971884603875,0
3425,8.247722591888046,0
3426,8.181799379393123,0
3427,7.880569600434324,0
3428,7.340212132940396,0
3429,6.7784499511114,0
3430,6.3345054145064505,0
3431,6.0237011250934716,0
3432,6.081606574731933,0
3433,6.097601889883116,0
3434,6.408697536447963,0
3435,6.7453454841921054,0
3436,6.949326361514721,0
3437,7.029927144665387,0
3438,7.0451706067216096,0
3439,6.975507019096722,0
3440,6.73207606207497,0
3441,6.803403764956819,0
3442,6.632747757937547,0
3443,6.604503943310445,0
3444,6.578240052193686,0
3445,6.611331719461855,0
3446,6.673052012730146,0
3447,6.720529144892759,0
3448,6.738453575004869,0
3449,6.7534816537783335,0
3450,6.72811273708427,0
3451,6.676843971842326,0
3452,6.692057800788791,0
3453,6.636250014235126,0
3454,6.687216387946675,0
3455,6.783906917284852,0
3456,6.681495786839331,0
3457,6.685889002306678,0
3458,6.762535396804246,0
3459,6.822420590730613,0
3460,6.77795954398441,0
3461,6.722248238709556,0
3462,6.776746258831159,0
3463,6.762290702845487,0
3464,6.645291721879917,0
3465,6.740644150596626,0
3466,6.743174140994088,0
3467,6.812712513348059,0
3468,6.6834755380293815,0
3469,6.749866597787511,0
3470,6.725455149711452,0
3471,6.812317063405861,0
3472,6.808942079014358,0
3473,6.647917788465577,0
3474,6.719878963397341,0
3475,6.600265035837303,0
3476,6.782761812687849,0
3477,6.705346928342169,0
3478,6.694963462749021,0
3479,6.736151519666379,0
3480,6.762680908105358,0
3481,6.679521955896275,0
3482,6.829771305444277,0
3483,6.701317568801551,0
3484,6.690727244354327,0
3485,6.715819416399039,0
3486,6.732139653739765,0
3487,6.750055444786255,0
3488,6.793120587084361,0
3489,6.782849525177855,0
3490,6.784485130826789,0
3491,6.801195153638271,0
3492,6.73680300749511,0
3493,6.778247062092805,0
3494,6.755049891201394,0
3495,6.756057020128007,0
3496,6.861315121783471,0
3497,6.769581428530517,0
3498,6.785298572702356,0
3499,6.78335102634262,0
3500,6.886026440843806,0
3501,7.0521055869251965,0
3502,7.461974616228627,0
3503,7.830219274819484,0
3504,8.549820695700944,0
3505,9.401031187279251,0
3506,10.499617142332289,0
3507,11.535764234377488,0
3508,12.551713280444524,0
3509,13.331411774220292,0
3510,13.668690799906416,0
3511,13.634525730914177,0
3512,12.79457973531462,0
3513,11.470366562577286,0
3514,9.801307798208745,0
3515,8.091871232804214,0
3516,6.291366887766827,0
3517,4.74141985151385,0
3518,3.911261886684046,0
3519,3.7824158506347008,0
3520,4.146377022837099,0
3521,4.982103350383891,0
3522,6.073587277415217,0
3523,7.140408709861735,0
3524,7.977390445007732,0
3525,8.323842351230207,0
3526,8.384465001698143,0
3527,7.959607026968435,0
3528,7.456239029531934,0
3529,6.837661556190362,0
3530,6.381197837418297,0
3531,6.162591912108732,0
3532,6.080935921909445,0
3533,6.129606267164323,0
3534,6.434322770150725,0
3535,6.782069179131872,0
3536,7.0617350246323465,0
3537,7.155270776896897,0
3538,7.196049958474948,0
3539,7.090119171974203,0
3540,6.955613659682249,0
3541,6.827461782800615,0
3542,6.776801219874492,0
3543,6.655203890357757,0
3544,6.68701190480192,0
3545,6.6907939786903,0
3546,6.729069906005988,0
3547,6.825980738123885,0
3548,6.824510445509047,0
3549,6.817591547575211,0
3550,6.932529228419078,0
3551,6.788691597089753,0
3552,6.868168192187746,0
3553,6.837789067434231,0
3554,6.918314250185139,0
3555,6.829020288116766,0
3556,6.868683199762855,0
3557,6.929151801050792,0
3558,6.8008907804749805,0
3559,6.871918700741574,0
3560,6.83892655172936,0
3561,6.796088202892473,0
3562,6.816324896810459,0
3563,6.712967286309489,0
3564,6.826800133494315,0
3565,6.81542485772286,0
3566,6.887519290263252,0
3567,6.743927434698964,0
3568,6.81841014659794,0
3569,6.787244459737229,0
3570,6.836334592101474,0
3571,6.782578106304714,0
3572,6.745237204027716,0
3573,6.863379320515116,0
3574,6.8361583326392825,0
3575,6.755711990264254,0
3576,6.903710673328645,0
3577,6.796443587784422,0
3578,6.837487148639978,0
3579,6.808211444223555,0
3580,6.819740636293771,0
3581,6.8441695904666435,0
3582,6.85661153037163,0
3583,6.858204661324353,0
3584,6.865119142597818,0
3585,6.9469249644231725,0
3586,6.910953685311958,0
3587,6.840742985158829,0
3588,6.90230324150797,0
3589,6.845745272969055,0
3590,6.903436061426509,0
3591,6.845644706363454,0
3592,6.849250989575102,0
3593,6.955049777058402,0
3594,6.89530148252859,0
3595,6.9271039054549,0
3596,6.956323928167271,0
3597,6.851691638715629,0
3598,6.8989857577944385,0
3599,6.994909847334984,0
3600,6.992427240766657,0
3601,7.232116493921638,0
3602,7.460679490658925,0
3603,7.936050161114245,0
3604,8.63037530656631,0
3605,9.495704261307726,0
3606,10.533390443694925,0
3607,11.538213779204405,0
3608,12.599659586304666,0
3609,13.332909557906316,0
3610,13.846241490467929,0
3611,13.634675901163131,0
3612,12.88758394173427,0
3613,11.719954950059286,0
3614,9.962217206953268,0
3615,8.15489479057928,0
3616,6.387167699730699,0
3617,4.920823618552183,0
3618,4.116780460065154,0
3619,3.9117845237816193,0
3620,4.345903854398646,0
3621,5.092635050851355,0
3622,6.226688402007173,0
3623,7.246976620128459,0
3624,8.156306164464018,0
3625,8.542536570010832,0
3626,8.436426310577836,0
3627,8.11570385620081,0
3628,7.598851960409084,0
3629,6.967495053642048,0
3630,6.4457302782711965,0
3631,6.201965632363502,0
3632,6.157458218407786,0
3633,6.275705676700231,0
3634,6.599570652432311,0
3635,6.869924304216033,0
3636,7.033132820586128,0
3637,7.158655731301838,0
3638,7.310917134955122,0
3639,7.170776332243876,0
3640,7.040322897834967,0
3641,6.963748559195274,0
3642,6.911652564848886,0
3643,6.826035929077383,0
3644,6.827944281308783,0
3645,6.855532268964777,0
3646,6.921692648874189,0
3647,6.8949838388952465,0
3648,6.928251177909274,0
3649,6.934417465545646,0
3650,7.01382437378266,0
3651,7.017386705098123,0
3652,6.968952295408535,0
3653,6.92359986373174,0
3654,6.962580580276471,0
3655,7.063266498915743,0
3656,6.979945148740621,0
3657,6.957796926457397,0
3658,6.898093166525869,0
3659,6.96159345859146,0
3660,6.886018541780676,0
3661,6.895377421257562,0
3662,6.9850787633102005,0
3663,7.000230186060406,0
3664,6.907165385250797,0
3665,6.953835231847073,0
3666,6.930551399760506,0
3667,6.933538135026679,0
3668,6.888800008019559,0
3669,6.986765443639156,0
3670,6.950933448932905,0
3671,6.938381592175769,0
3672,6.859469100461604,0
3673,6.914244388296118,0
3674,7.04345012682592,0
3675,6.888333866124311,0
3676,6.989074179803709,0
3677,6.960885252299282,0
3678,6.978260964942613,0
3679,6.953489295280916,0
3680,6.983797778569889,0
3681,6.933804480373516,0
3682,7.034803426838067,0
3683,6.991865528363837,0
3684,6.907867860640273,0
3685,6.949031635472063,0
3686,7.0859089378206646,0
3687,6.88561237159885,0
3688,6.915636645482551,0
3689,6.996892112903742,0
3690,6.9796201652638095,0
3691,6.96390454045157,0
3692,6.987601276208241,0
3693,7.011543881739264,0
3694,6.9049637496326755,0
3695,6.911061491717907,0
3696,7.009583018088385,0
3697,6.957909145125363,0
3698,6.89578056588886,0
3699,7.110111143978704,0
3700,7.103054563963763,0
3701,7.386090062021349,0
3702,7.637014071265257,0
3703,7.96893369133622,0
3704,8.757557811937438,0
3705,9.663602825817572,0
3706,10.56420237716427,0
3707,11.759978146987756,0
3708,12.794380336970871,0
3709,13.58217130580238,0
3710,13.85890153289262,0
3711,13.90387974877746,0
3712,13.081034400774382,0
3713,11.722762910948425,0
3714,10.20455596649002,0
3715,8.341377811831757,0
3716,6.514433542878809,0
3717,5.053739614322284,0
3718,4.156015308037297,0
3719,4.0144282815022745,0
3720,4.296228919178192,0
3721,5.201858721243337,0
3722,6.211346207163947,0
3723,7.23818961203837,0
3724,8.049812336318006,0
3725,8.624467206976986,0
3726,8.496444583625772,0
3727,8.162381539450946,0
3728,7.6614330539007955,0
3729,7.147058801102719,0
3730,6.5856239429319725,0
3731,6.2610178755734704,0
3732,6.19584151639182,0
3733,6.4591478395367545,0
3734,6.647701167050835,0
3735,6.95084763866171,0
3736,7.112198488873908,0
3737,7.355929073338983,0
3738,7.258801987726361,0
3739,7.254927371810072,0
3740,7.0818426171997935,0
3741,7.023162270059443,0
3742,6.964208928905551,0
3743,6.852999427186483,0
3744,6.931591027797786,0
3745,6.982235608686832,0
3746,6.982386005399907,0
3747,7.001806511584898,0
3748,6.999361425898063,0
3749,7.067136888710188,0
3750,7.044809076395979,0
3751,6.944973339170287,0
3752,7.04781594287413,0
3753,6.998303456555059,0
3754,7.02010245276661,0
3755,7.004004349760862,0
3756,6.985906929549945,0
3757,6.994134986257402,0
3758,6.985591211048308,0
3759,6.92092711096485,0
3760,6.944324790103596,0
3761,7.03989433133677,0
3762,7.063385470770418,0
3763,7.037373154041,0
3764,6.968494505748492,0
3765,7.006694468823321,0
3766,7.080482952468381,0
3767,7.0725502597394305,0
3768,7.065021553055017,0
3769,7.05544153939083,0
3770,7.082579556183121,0
3771,7.088131749315582,0
3772,7.086347546754939,0
3773,7.06477967737117,0
3774,7.070850843244026,0
3775,7.021024568417022,0
3776,7.080106652948512,0
3777,6.9357433844156215,0
3778,6.929894393737678,0
3779,7.01048437287893,0
3780,6.835760824571901,0
3781,7.025225607633906,0
3782,7.020453292511778,0
3783,6.9988640773340665,0
3784,6.893391255188335,0
3785,6.997532144598514,0
3786,6.967620202100942,0
3787,7.052354316580029,0
3788,6.9618399829681845,0
3789,6.980848880540647,0
3790,7.061868109794245,0
3791,7.077704827322032,0
3792,7.039746477788328,0
3793,7.073232811787816,0
3794,7.02696962014136,0
3795,7.082683908139719,0
3796,7.10301822278692,0
3797,7.024751796115897,0
3798,6.969058250455425,0
3799,6.967057598071418,0
3800,7.271235731031994,0
3801,7.32382066446933,0
3802,7.678266123479161,0
3803,8.11132867756352,0
3804,8.726007954522807,0
3805,9.67634248405361,0
3806,10.684040782159117,0
3807,11.643890707625527,0
3808,12.735682572319076,0
3809,13.609448489664633,0
3810,14.009924717162242,0
3811,13.94025837363703,0
3812,13.152724736340055,0
3813,11.962195338450034,0
3814,10.234443396304393,0
3815,8.36811765542105,0
3816,6.499413724720558,0
3817,5.157320891341147,0
3818,4.247932649695056,0
3819,3.989660379859968,0
3820,4.379437334621589,0
3821,5.1430682892662,0
3822,6.150541471143587,0
3823,7.2882089264052725,0
3824,8.078991823401546,0
3825,8.574536376830554,0
3826,8.558630273004797,0
3827,8.246053938758,0
3828,7.703211796619926,0
3829,7.1462330617323415,0
3830,6.640251588950399,0
3831,6.269757455980758,0
3832,6.288075936298538,0
3833,6.36057532286002,0
3834,6.783629306953044,0
3835,6.989079656681699,0
3836,7.256545194363824,0
3837,7.2890632417859464,0
3838,7.3747305319530065,0
3839,7.331779130843916,0
3840,7.207481595968322,0
3841,7.075160252993764,0
3842,7.105482869029117,0
3843,6.919228727983171,0
3844,6.961405011542096,0
3845,6.941975001063931,0
3846,7.075257624214863,0
3847,7.0834630706023,0
3848,7.132199450341067,0
3849,7.08967652525894,0
3850,7.1532922759505535,0
3851,7.201707181471765,0
3852,7.18877145127593,0
3853,7.043184531369371,0
3854,7.10837836745788,0
3855,7.061583167382583,0
3856,7.096111379745884,0
3857,7.093765932421732,0
3858,7.07000519126821,0
3859,7.1651536646878125,0
3860,7.123786223332552,0
3861,7.024747898351248,0
3862,7.073073460625169,0
3863,7.174818528478372,0
3864,7.125121722132915,0
3865,7.121132636179692,0
3866,7.035565051935254,0
3867,6.998559996107747,0
3868,7.0981855141474615,0
3869,7.128670679583048,0
3870,7.026808415927863,0
3871,7.096088591276971,0
3872,7.071134398877281,0
3873,7.122745937255286,0
3874,7.07214652186036,0
3875,7.064688946367169,0
3876,7.120112919292856,0
3877,7.108531722364522,0
3878,7.193365958799241,0
3879,7.157172186156987,0
3880,7.079544181409428,0
3881,7.15944495041017,0
3882,7.1057769378236415,0
3883,7.060249249835575,0
3884,7.0658302672275966,0
3885,7.039110193367426,0
3886,7.033261505124573,0
3887,7.092940038319455,0
3888,7.113205109748071,0
3889,7.0172376155592655,0
3890,7.065674904058733,0
3891,7.1125218532393815,0
3892,7.060802752946266,0
3893,7.240041733970997,0
3894,7.2300393637713105,0
3895,7.026240352622533,0
3896,7.170119550703291,0
3897,7.111633113548744,0
3898,7.167415832595621,0
3899,7.20027185712604,0
3900,7.157653145052796,0
3901,7.3920868515972975,0
3902,7.742220688784759,0
3903,8.23546733555036,0
3904,8.918099595587368,0
3905,9.659919916834822,0
3906,10.721821055177587,0
3907,11.752408336799178,0
3908,12.786161346824336,0
3909,13.644751301754956,0
3910,14.064382642922272,0
3911,13.996362665859936,0
3912,13.214142982578014,0
3913,12.095839744313793,0
3914,10.430972882077128,0
3915,8.529589983682182,0
3916,6.9027935311787925,0
3917,5.283561695436701,0
3918,4.480216913197733,0
3919,4.149628508219195,0
3920,4.605966985623943,0
3921,5.285405892267576,0
3922,6.414230855718256,0
3923,7.421279800754973,0
3924,8.359496447781211,0
3925,8.743381900678264,0
3926,8.711606357400168,0
3927,8.345891748085574,0
3928,7.920115844745049,0
3929,7.27720394986746,0
3930,6.9022254346740635,0
3931,6.472476741596076,0
3932,6.461340268470408,0
3933,6.562127753002107,0
3934,6.861995076369021,0
3935,7.114838380125571,0
3936,7.340798367927936,0
3937,7.48125829053293,0
3938,7.489608788932584,0
3939,7.466847710774701,0
3940,7.3723494801423035,0
3941,7.154832928737237,0
3942,7.147758800435322,0
3943,7.220906921096498,0
3944,7.013115206060723,0
3945,7.207217425249858,0
3946,7.1847111972014845,0
3947,7.170907236883261,0
3948,7.216300412917212,0
3949,7.274525981240116,0
3950,7.126719682279833,0
3951,7.220150114136075,0
3952,7.285240329662235,0
3953,7.1963947523351885,0
3954,7.175141575598242,0
3955,7.170157629967955,0
3956,7.192196736822755,0
3957,7.156585189104641,0
3958,7.223882201449247,0
3959,7.19744285234429,0
3960,7.263268759083697,0
3961,7.088846351533225,0
3962,7.306627481310759,0
3963,7.18470426030355,0
3964,7.180192148898289,0
3965,7.226117551103339,0
3966,7.25352296172138,0
3967,7.151520053536307,0
3968,7.22593508460269,0
3969,7.233153712832071,0
3970,7.181188361011861,0
3971,7.245610312912967,0
3972,7.1892342252205514,0
3973,7.271805221272868,0
3974,7.1747531180668025,0
3975,7.251791916289912,0
3976,7.234968447038712,0
3977,7.211391124845579,0
3978,7.206602245093251,0
3979,7.133493956945964,0
3980,7.233405264555469,0
3981,7.217804317662968,0
3982,7.260619165252489,0
3983,7.182325771628585,0
3984,7.157363589197369,0
3985,7.2396222527735645,0
3986,7.292372762228152,0
3987,7.25293783062811,0
3988,7.23044018283523,0
3989,7.19864797339248,0
3990,7.237436043323368,0
3991,7.157004553002838,0
3992,7.2953405985726985,0
3993,7.305068689965544,0
3994,7.1884934982199225,0
3995,7.26755839207797,0
3996,7.192141238349514,0
3997,7.200285570029421,0
3998,7.17085772658028,0
3999,7.243873052667667,0
4000,7.349520082704214,0
4001,7.323281624454849,0
4002,7.824903310019278,0
4003,8.29435622425504,0
4004,8.84568700743634,0
4005,9.70387778196627,0
4006,10.807779048723626,0
4007,11.887015265467792,0
4008,12.95154678153527,0
4009,13.553257977767199,0
4010,14.19555765316138,0
4011,14.00979365406379,0
4012,13.26859050578172,0
4013,12.123036565281938,0
4014,10.635095113405159,0
4015,8.615851851498432,0
4016,6.764704898786574,0
4017,5.4449898580806915,0
4018,4.465794291658138,0
4019,4.240493342224832,0
4020,4.5631590848870935,0
4021,5.351320382846373,0
4022,6.361697541100196,0
4023,7.427221512037398,0
4024,8.3077912351425,0
4025,8.834713449909453,0
4026,8.724945259217552,0
4027,8.43763588706073,0
4028,7.94191877225173,0
4029,7.317402504522928,0
4030,6.841082123792627,0
4031,6.433949557708354,0
4032,6.403475649524129,0
4033,6.587637052098621,0
4034,6.906728176536718,0
4035,7.166299583436246,0
4036,7.3622977634753175,0
4037,7.513346359927172,0
4038,7.6404781150787855,0
4039,7.519508922389763,0
4040,7.5031935089042365,0
4041,7.351644236902584,0
4042,7.20638096764237,0
4043,7.246829594046873,0
4044,7.258894203947155,0
4045,7.222195821527218,0
4046,7.282085991225495,0
4047,7.252517986747065,0
4048,7.338408851439096,0
4049,7.303760640342796,0
4050,7.316199028176279,0
4051,7.208846780225514,0
4052,7.264556106931472,0
4053,7.261838267813413,0
4054,7.194113546058819,0
4055,7.179785167309605,0
4056,7.24933481591589,0
4057,7.259087383720546,0
4058,7.246938331583364,0
4059,7.237802967960634,0
4060,7.20645152215772,0
4061,7.257061216518971,0
4062,7.173285149089651,0
4063,7.138062695315982,0
4064,7.228257765427742,0
4065,7.270717237145799,0
4066,7.208220478450031,0
4067,7.22829499851529,0
4068,7.2160417592150194,0
4069,7.256052512792677,0
4070,7.32228865018107,0
4071,7.265136091341821,0
4072,7.392382322292578,0
4073,7.302720200800807,0
4074,7.300097044620668,0
4075,7.265684796423796,0
4076,7.2572317110412925,0
4077,7.3151503093776284,0
4078,7.277265036451547,0
4079,7.354883553217326,0
4080,7.333956496951244,0
4081,7.300740158131316,0
4082,7.20855203597945,0
4083,7.291090838181448,0
4084,7.3543471797050195,0
4085,7.271920029440899,0
4086,7.3527513953974895,0
4087,7.318072842136755,0
4088,7.191305207253802,0
4089,7.3398398046690145,0
4090,7.325178252357389,0
4091,7.2666446228021515,0
4092,7.460612328442386,0
4093,7.280892348351049,0
4094,7.314451123501056,0
4095,7.310365697255646,0
4096,7.337771641010383,0
4097,7.266875650679804,0
4098,7.382450318239462,0
4099,7.2790958532370915,0
4100,7.486943441791599,0
4101,7.6849122123233276,0
4102,7.868010319166516,0
4103,8.470415295356844,0
4104,8.899805939148711,0
4105,9.799606914399886,0
4106,10.815112481924734,0
4107,11.922834180815542,0
4108,12.976177061432026,0
4109,13.844071605797645,0
4110,14.19303894679543,0
4111,14.19754193847839,0
4112,13.482843990737308,0
4113,12.272698510371097,0
4114,10.745741679376092,0
4115,8.839541131616807,0
4116,7.009810336136781,0
4117,5.496234802583613,0
4118,4.761020224777695,0
4119,4.351937450376734,0
4120,4.662375563331095,0
4121,5.475365843572711,0
4122,6.499260115165406,0
4123,7.61506356919678,0
4124,8.470241030277075,0
4125,8.988072542167629,0
4126,8.86610641131653,0
4127,8.653267256135571,0
4128,8.132164473347043,0
4129,7.488638391073896,0
4130,6.878393844210723,0
4131,6.674016978365544,0
4132,6.428651103124211,0
4133,6.708443417440523,0
4134,6.8873556418777415,0
4135,7.1070476766191595,0
4136,7.383352395186928,0
4137,7.607438338227486,0
4138,7.7301132193947835,0
4139,7.632378780631366,0
4140,7.49851899472738,0
4141,7.3108138944238945,0
4142,7.315929243762371,0
4143,7.214347507486658,0
4144,7.238886278391142,0
4145,7.228669406567509,0
4146,7.255634687374702,0
4147,7.415028177534099,0
4148,7.3450048512694135,0
4149,7.353886461311638,0
4150,7.369054470265183,0
4151,7.422705446954241,0
4152,7.426927702059394,0
4153,7.3129550146180735,0
4154,7.322388202497198,0
4155,7.356892404752775,0
4156,7.274275863509532,0
4157,7.415796481612375,0
4158,7.3733410007861035,0
4159,7.369003734613919,0
4160,7.376446093639459,0
4161,7.467794719311006,0
4162,7.348553324509417,0
4163,7.311757095026873,0
4164,7.310135862353721,0
4165,7.363029994703633,0
4166,7.434820986227929,0
4167,7.355710689196668,0
4168,7.343039835151989,0
4169,7.408414592943651,0
4170,7.345167721337339,0
4171,7.373275897982941,0
4172,7.381008090481674,0
4173,7.338440782646892,0
4174,7.404798893474516,0
4175,7.367313216199171,0
4176,7.346361771297471,0
4177,7.474515917999468,0
4178,7.499172050445011,0
4179,7.3957880881905345,0
4180,7.482549684847795,0
4181,7.405785400884054,0
4182,7.410713979038579,0
4183,7.47192574975346,0
4184,7.486174867785556,0
4185,7.501071196838025,0
4186,7.473921136182753,0
4187,7.497719978016324,0
4188,7.458227793126028,0
4189,7.450768910442195,0
4190,7.4987886290841885,0
4191,7.416967587985462,0
4192,7.437874287648393,0
4193,7.522631973839224,0
4194,7.424072736588016,0
4195,7.431497124620019,0
4196,7.4221109963003205,0
4197,7.37795641337602,0
4198,7.379915204323838,0
4199,7.497435719670475,0
4200,7.511836261051111,0
4201,7.638360025343858,0
4202,7.959795268947334,0
4203,8.487269774198516,0
4204,9.02687033701449,0
4205,9.977112058694415,0
4206,10.943839948842163,0
4207,12.051610550136648,0
4208,13.165885274576258,0
4209,13.895857814861742,0
4210,14.402307666812202,0
4211,14.22188872017498,0
4212,13.683768627615395,0
4213,12.460771433019238,0
4214,10.887518075394453,0
4215,9.056780513759133,0
4216,7.1998453610452735,0
4217,5.726741384019616,0
4218,4.676439652421769,0
4219,4.450450354035992,0
4220,4.802485972643053,0
4221,5.576102604193542,0
4222,6.53437336513119,0
4223,7.628684419385904,0
4224,8.598296130588556,0
4225,9.10478584145444,0
4226,8.96346468903232,0
4227,8.752569598384245,0
4228,8.249736727674684,0
4229,7.639930424925618,0
4230,7.088576783930393,0
4231,6.753398190063776,0
4232,6.692354477273788,0
4233,6.740664684014618,0
4234,7.146733910754143,0
4235,7.422090093993608,0
4236,7.596136905907709,0
4237,7.748095115546592,0
4238,7.88985686690069,0
4239,7.733983603823894,0
4240,7.549593725620329,0
4241,7.567746678835613,0
4242,7.439561395626284,0
4243,7.388067836404644,0
4244,7.332745028538622,0
4245,7.424064036106146,0
4246,7.324843763743211,0
4247,7.351048442437097,0
4248,7.548290397575145,0
4249,7.548111283390968,0
4250,7.560835461901919,0
4251,7.493473523264891,0
4252,7.40260179189928,0
4253,7.504387017139089,0
4254,7.4843789767176565,0
4255,7.551500752542356,0
4256,7.490505931592451,0
4257,7.555074245509769,0
4258,7.449920449981377,0
4259,7.52060928782497,0
4260,7.531129688101961,0
4261,7.51433033736253,0
4262,7.563628792214291,0
4263,7.500764761425735,0
4264,7.540296326321491,0
4265,7.571843608029068,0
4266,7.541844977911124,0
4267,7.4339442296778255,0
4268,7.455507841504173,0
4269,7.550526003962033,0
4270,7.490482247637568,0
4271,7.4106985217564185,0
4272,7.426988458126136,0
4273,7.4096544469991645,0
4274,7.48210884535602,0
4275,7.446938589546429,0
4276,7.3399947380065065,0
4277,7.337449408924181,0
4278,7.393390246357261,0
4279,7.4993813848945505,0
4280,7.393163885111619,0
4281,7.462018147561544,0
4282,7.516169019755111,0
4283,7.413372750830087,0
4284,7.49817369222177,0
4285,7.4993423531834775,0
4286,7.539756817886195,0
4287,7.461697614487511,0
4288,7.419172575589501,0
4289,7.569184094788719,0
4290,7.465103330527728,0
4291,7.466897390403494,0
4292,7.436608365160617,0
4293,7.480561415888231,0
4294,7.579512467754617,0
4295,7.58803147260088,0
4296,7.537771161672957,0
4297,7.4934991249913345,0
4298,7.510255808379684,0
4299,7.585841761476612,0
4300,7.579250044389305,0
4301,7.797975689611852,0
4302,7.990007540872986,0
4303,8.509535749728743,0
4304,9.137139282425068,0
4305,9.879341687961725,0
4306,10.961199439476587,0
4307,12.074889040632975,0
4308,13.129579097082669,0
4309,13.957891332604508,0
4310,14.40416029092648,0
4311,14.351761529998956,0
4312,13.668861099149769,0
4313,12.48815903350971,0
4314,10.932171526123687,0
4315,9.075779523991379,0
4316,7.231746031960431,0
4317,5.702116207590206,0
4318,4.743885253561601,0
4319,4.4947695278302255,0
4320,4.747179490048556,0
4321,5.472298548903627,0
4322,6.61867330811148,0
4323,7.593701444054563,0
4324,8.509060771773116,0
4325,9.006046137018297,0
4326,9.02421688316612,0
4327,8.778386767096624,0
4328,8.249463861961722,0
4329,7.762780860118105,0
4330,7.139938808745771,0
4331,6.840039664186448,0
4332,6.678351632945151,0
4333,6.845915860139269,0
4334,7.068441779702832,0
4335,7.427143164077866,0
4336,7.590929624550385,0
4337,7.7497643541723225,0
4338,7.841514284247789,0
4339,7.716574718055698,0
4340,7.634777263055167,0
4341,7.433532572473589,0
4342,7.398780204285577,0
4343,7.449255621567999,0
4344,7.445148568032813,0
4345,7.427379748808256,0
4346,7.398655472924257,0
4347,7.5550117225641,0
4348,7.480183652758265,0
4349,7.480513361432602,0
4350,7.474727241588587,0
4351,7.495737972281176,0
4352,7.458301991389143,0
4353,7.52072795075547,0
4354,7.470609211260018,0
4355,7.360652747106409,0
4356,7.500821944736625,0
4357,7.40833576344762,0
4358,7.476499717794666,0
4359,7.51807619073131,0
4360,7.431735026918541,0
4361,7.504626696868715,0
4362,7.305066616263091,0
4363,7.448432192777417,0
4364,7.435831072799202,0
4365,7.4585880100664905,0
4366,7.40254392308986,0
4367,7.487213527043776,0
4368,7.479659989467034,0
4369,7.475136368311694,0
4370,7.475510408953404,0
4371,7.433593264974273,0
4372,7.423294533570652,0
4373,7.417062629395039,0
4374,7.378925186922393,0
4375,7.524525504360031,0
4376,7.500871199156022,0
4377,7.577413356326117,0
4378,7.4831416254264305,0
4379,7.442418142038445,0
4380,7.43173167711923,0
4381,7.4500877535795516,0
4382,7.531175890369898,0
4383,7.471917934305186,0
4384,7.461921595177555,0
4385,7.500090192188736,0
4386,7.525111641034159,0
4387,7.471556134814363,0
4388,7.496569940739436,0
4389,7.51077995392462,0
4390,7.4434913191686976,0
4391,7.421774577130704,0
4392,7.469504570167405,0
4393,7.483509607521567,0
4394,7.39415759195067,0
4395,7.43177932187461,0
4396,7.50454172321666,0
4397,7.473542072708415,0
4398,7.478345818398709,0
4399,7.478717620555764,0
4400,7.57335422502764,0
4401,7.719337081606858,0
4402,7.999995434211842,0
4403,8.420201739571173,0
4404,9.05226418623869,0
4405,9.902588710824604,0
4406,10.95982764122711,0
4407,12.121699908090108,0
4408,13.047817580883478,0
4409,13.965134774320767,0
4410,14.42935310403427,0
4411,14.493937253437927,0
4412,13.7076498487215,0
4413,12.514449837435784,0
4414,10.92634493585901,0
4415,9.151649841268723,0
4416,7.35805066546888,0
4417,5.766501175684407,0
4418,4.866065339613672,0
4419,4.591568053506853,0
4420,4.875373039288638,0
4421,5.56443796436136,0
4422,6.5858246026114315,0
4423,7.708285363232124,0
4424,8.596316052774402,0
4425,9.022703447085526,0
4426,9.13388929658485,0
4427,8.845361650196065,0
4428,8.360091306281907,0
4429,7.709590945015373,0
4430,7.139617635088071,0
4431,6.810366391025875,0
4432,6.720242648199613,0
4433,6.894341839249583,0
4434,7.177645484236345,0
4435,7.3747279892726745,0
4436,7.620346316602245,0
4437,7.795563856822179,0
4438,7.892255912433591,0
4439,7.846293874760107,0
4440,7.598535287172879,0
4441,7.551655669502531,0
4442,7.4543503670465485,0
4443,7.432003327468435,0
4444,7.375428926841214,0
4445,7.392309835356475,0
4446,7.397751577850954,0
4447,7.594123856805908,0
4448,7.485350968291017,0
4449,7.546033371055983,0
4450,7.549131262976844,0
4451,7.486813916702349,0
4452,7.487569234217984,0
4453,7.569286072992307,0
4454,7.470107366087112,0
4455,7.541120912744268,0
4456,7.583964443224026,0
4457,7.542117060979122,0
4458,7.456715233476325,0
4459,7.467993371256035,0
4460,7.506046545684527,0
4461,7.608159663245558,0
4462,7.588272397337386,0
4463,7.552615520562058,0
4464,7.607076410599431,0
4465,7.617831950435028,0
4466,7.5781388929221345,0
4467,7.495095413959855,0
4468,7.572463154094085,0
4469,7.510885356448493,0
4470,7.627353845019554,0
4471,7.5669242987351915,0
4472,7.659356474043646,0
4473,7.635239865369848,0
4474,7.64613583302114,0
4475,7.528876056737262,0
4476,7.59441592674611,0
4477,7.574669285946602,0
4478,7.5804596381664995,0
4479,7.607255863694415,0
4480,7.585399268545723,0
4481,7.5682820779881625,0
4482,7.601003135345372,0
4483,7.667059702058236,0
4484,7.681378566799122,0
4485,7.607217766943209,0
4486,7.57334413068055,0
4487,7.616022191405925,0
4488,7.654809946832897,0
4489,7.573278492121145,0
4490,7.6320937656709456,0
4491,7.557890982748784,0
4492,7.539543989617628,0
4493,7.600494458410992,0
4494,7.61747290300586,0
4495,7.528255189577061,0
4496,7.678604460589263,0
4497,7.539100840039412,0
4498,7.640599345189046,0
4499,7.660038735844978,0
4500,7.708363091154139,0
4501,7.847653174929849,0
4502,8.230166329761605,0
4503,8.546385723720885,0
4504,9.225609352050991,0
4505,10.035639910155858,0
4506,11.197229279381487,0
4507,12.128391389614697,0
4508,13.254251578072143,0
4509,14.078773207615509,0
4510,14.600120057446263,0
4511,14.485344738589053,0
4512,13.881823504260328,0
4513,12.714792787188728,0
4514,11.190018007976567,0
4515,9.363459093758,0
4516,7.530734024452869,0
4517,5.946224009180392,0
4518,4.973798226795589,0
4519,4.585741031513227,0
4520,4.919025480084789,0
4521,5.628152658907506,0
4522,6.597236045605828,0
4523,7.67649806791717,0
4524,8.63598674633613,0
4525,9.084907408940918,0
4526,9.143378615027864,0
4527,8.879456395735406,0
4528,8.426041870304196,0
4529,7.817710763773786,0
4530,7.251160631489807,0
4531,6.82044897541046,0
4532,6.832894593302858,0
4533,6.915696089797449,0
4534,7.277371884518256,0
4535,7.430132675350865,0
4536,7.6821714904235225,0
4537,7.918997803477685,0
4538,7.977770610892008,0
4539,7.935326693320529,0
4540,7.857125844789282,0
4541,7.679978267476335,0
4542,7.637789769849716,0
4543,7.565178531376521,0
4544,7.559666657640943,0
4545,7.5137172730422535,0
4546,7.62545365012722,0
4547,7.64051560021222,0
4548,7.676661899591553,0
4549,7.599121879399218,0
4550,7.725859111821587,0
4551,7.621616505770709,0
4552,7.632299420605099,0
4553,7.615036681174184,0
4554,7.5662289707761765,0
4555,7.780770874916266,0
4556,7.619729541244702,0
4557,7.71423023464451,0
4558,7.561838287089864,0
4559,7.648938934571487,0
4560,7.691576632297621,0
4561,7.586584922989828,0
4562,7.710306441859561,0
4563,7.685967700221798,0
4564,7.635178876045751,0
4565,7.609299208281744,0
4566,7.640652043053932,0
4567,7.703313466235832,0
4568,7.6036671866895675,0
4569,7.672016240720628,0
4570,7.679664059469057,0
4571,7.712638847470047,0
4572,7.656096323128876,0
4573,7.54727260338686,0
4574,7.6108311215509925,0
4575,7.630286768925818,0
4576,7.656121827216487,0
4577,7.652644497790836,0
4578,7.7255212910407804,0
4579,7.560696102816941,0
4580,7.609379481062959,0
4581,7.669790837371341,0
4582,7.605058870776743,0
4583,7.684866418107853,0
4584,7.8130411677167455,0
4585,7.718051786350121,0
4586,7.653136314139592,0
4587,7.736688583188119,0
4588,7.631232676426625,0
4589,7.680469763500086,0
4590,7.67692772391375,0
4591,7.7188055995041545,0
4592,7.646218012724028,0
4593,7.721101742581628,0
4594,7.807322741875333,0
4595,7.674216078848558,0
4596,7.7010604721717275,0
4597,7.718428080957446,0
4598,7.782040848091958,0
4599,7.741607103968264,0
4600,7.6642451548638295,0
4601,7.908500194868509,0
4602,8.220566247988916,0
4603,8.741802508951594,0
4604,9.300649273744554,0
4605,10.121039114024324,0
4606,11.149205347857357,0
4607,12.24170372303411,0
4608,13.293544685686907,0
4609,14.039314435793777,0
4610,14.581744302850186,0
4611,14.655888296823004,0
4612,14.119855738891939,0
4613,12.831882301545344,0
4614,11.303635351857892,0
4615,9.478267251857046,0
4616,7.635940502382704,0
4617,6.002667523230056,0
4618,5.02638300855257,0
4619,4.766826182731735,0
4620,4.953810604129442,0
4621,5.782333707250235,0
4622,6.674653054448181,0
4623,7.747320315599918,0
4624,8.692366225302091,0
4625,9.271606908837558,0
4626,9.401621101944267,0
4627,9.001747782955016,0
4628,8.364301758870253,0
4629,7.938249696778088,0
4630,7.442849616859904,0
4631,7.06345947070797,0
4632,6.910477440696878,0
4633,7.105380624712379,0
4634,7.33380249582315,0
4635,7.5543148473127415,0
4636,7.873855273656426,0
4637,7.999347481048925,0
4638,8.01360524459201,0
4639,8.112392146578433,0
4640,7.934396041652654,0
4641,7.822318281651803,0
4642,7.687563367808916,0
4643,7.617041743517629,0
4644,7.647805926298908,0
4645,7.669976996607922,0
4646,7.656722941721719,0
4647,7.732096948891197,0
4648,7.851277525320346,0
4649,7.739781003424763,0
4650,7.859250219881502,0
4651,7.799486354669977,0
4652,7.674755235301887,0
4653,7.724644359675872,0
4654,7.768538918324726,0
4655,7.81216236671131,0
4656,7.80328143731383,0
4657,7.850728074389973,0
4658,7.698785070841523,0
4659,7.7960070784717175,0
4660,7.769012241769681,0
4661,7.787236604099449,0
4662,7.773558902628992,0
4663,7.7405337571326145,0
4664,7.802754855145436,0
4665,7.71002266624155,0
4666,7.848075490946688,0
4667,7.804740165043931,0
4668,7.786136569898211,0
4669,7.794612814453696,0
4670,7.764331922447565,0
4671,7.745668159741947,0
4672,7.793258924068467,0
4673,7.759859834472031,0
4674,7.726741375056004,0
4675,7.754279656746763,0
4676,7.683266893447966,0
4677,7.7660253695066706,0
4678,7.834482214173123,0
4679,7.85652741415977,0
4680,7.827820824605654,0
4681,7.739167211135863,0
4682,7.72556211533074,0
4683,7.780270366253826,0
4684,7.798934925981065,0
4685,7.801921458598261,0
4686,7.872165867441077,0
4687,7.794533619792576,0
4688,7.727747666912053,0
4689,7.806182281328297,0
4690,7.7552992667805265,0
4691,7.749851810072256,0
4692,7.73610862562194,0
4693,7.695744662406374,0
4694,7.729823070328785,0
4695,7.729171082567547,0
4696,7.617076679600999,0
4697,7.695153362431392,0
4698,7.729294136617741,0
4699,7.822142249024796,0
4700,7.729429584045009,0
4701,8.037565208674712,0
4702,8.302555422292937,0
4703,8.639329941591313,0
4704,9.290830882737476,0
4705,10.128305793996422,0
4706,11.155901515184478,0
4707,12.247188848983805,0
4708,13.304412300025636,0
4709,14.163879523575105,0
4710,14.698857795699343,0
4711,14.716665854635043,0
4712,14.05533912389949,0
4713,12.960824686742662,0
4714,11.406707431455349,0
4715,9.556025475058762,0
4716,7.651157042373881,0
4717,6.165152994246506,0
4718,5.102195422097973,0
4719,4.792699381388155,0
4720,5.0150714701379915,0
4721,5.737465312766631,0
4722,6.737261034278682,0
4723,7.910371665282746,0
4724,8.69725487379392,0
4725,9.266183071007188,0
4726,9.308808609060659,0
4727,9.08913924628607,0
4728,8.677125109665711,0
4729,7.99414466159283,0
4730,7.5125466108286885,0
4731,7.199484217311368,0
4732,7.008550593486426,0
4733,7.123744592187612,0
4734,7.413707595542412,0
4735,7.682173385168006,0
4736,7.995348151424159,0
4737,8.122236634025398,0
4738,8.107538785338585,0
4739,8.13675044498661,0
4740,7.965316469475532,0
4741,7.830453685225501,0
4742,7.6953959158289615,0
4743,7.701438278568229,0
4744,7.686100297307411,0
4745,7.6209960059466875,0
4746,7.76020685687921,0
4747,7.767767965697101,0
4748,7.821890363517219,0
4749,7.8046928393720165,0
4750,7.781728674068154,0
4751,7.804445646796116,0
4752,7.895375757734348,0
4753,7.813892090362854,0
4754,7.756465404386018,0
4755,7.773116053823696,0
4756,7.741912408713915,0
4757,7.840696656575417,0
4758,7.837319218164946,0
4759,7.734955681617944,0
4760,7.8249507188865,0
4761,7.8076303511214515,0
4762,7.871455864040489,0
4763,7.835268174348532,0
4764,7.875880308943586,0
4765,7.901541900542885,0
4766,7.952579281293371,0
4767,7.782407131978936,0
