timestamp,value-0,is_anomaly
0,0.2632660145487213,0.0
1,4.518382681970368,0.0
2,5.038340116648034,0.0
3,-3.0056054613779892,0.0
4,1.6287647317281158,0.0
5,-0.7693945689653938,0.0
6,0.19035523972096136,0.0
7,-0.11215168505601807,0.0
8,0.0580858887890226,0.0
9,-0.07500493791420611,0.0
10,-0.09901794608037025,0.0
11,-0.014384016596110678,0.0
12,-0.006447463323931044,0.0
13,-0.07623011435575992,0.0
14,-0.030698959153973776,0.0
15,-0.0428915408177983,0.0
16,0.03294032413156627,0.0
17,1.0215971790813296,0.0
18,6.427820440771457,0.0
19,1.7282784464462617,0.0
20,-1.9416884151911653,0.0
21,1.235468176457027,0.0
22,-0.6575941118362335,0.0
23,0.2919994290483656,0.0
24,-0.051529813905110036,0.0
25,0.04937750995222389,0.0
26,0.062396675861078846,0.0
27,0.004307379463650396,0.0
28,0.026265250552784045,0.0
29,-0.013189572036366691,0.0
30,0.03615015344984227,0.0
31,0.015026541702081987,0.0
32,0.06728747216022411,0.0
33,0.0680963618989452,0.0
34,2.5333587402810944,0.0
35,6.983565347153132,0.0
36,-1.7404622034517634,0.0
37,0.17347086038676476,0.0
38,0.14576991543408757,0.0
39,-0.10312566762250094,0.0
40,-0.01572101751942016,0.0
41,-0.04679958897809125,0.0
42,0.03657021716849843,0.0
43,-0.034200720369526524,0.0
44,-0.15084435092076962,0.0
45,0.02548101450817237,0.0
46,-0.04225466311485943,0.0
47,0.013666443110639758,0.0
48,-0.007724660974624477,0.0
49,0.0055585214664065075,0.0
50,0.28778311901888154,0.0
51,4.622656121217526,0.0
52,5.009046065813338,0.0
53,-2.9249193742457376,0.0
54,1.5327927255010385,0.0
55,-0.5619321121706445,0.0
56,0.3357394826541907,0.0
57,-0.03608369785857331,0.0
58,0.06854593538970799,0.0
59,0.10421615209678367,0.0
60,0.05301336265206255,0.0
61,0.07312149187160008,0.0
62,0.03853038860044013,0.0
63,0.04493216766254189,0.0
64,0.1212887341211506,0.0
65,0.03416489759080642,0.0
66,0.12685679512972511,0.0
67,1.0423200138405442,0.0
68,6.483031679184196,0.0
69,1.6344702636808726,0.0
70,-1.8327883562865974,0.0
71,1.2736801348934537,0.0
72,-0.6781626932656984,0.0
73,0.37053990164256606,0.0
74,-0.06896369755471063,0.0
75,-0.01317981333462194,0.0
76,0.0011794835886598971,0.0
77,0.042455819622732,0.0
78,0.030443335749451263,0.0
79,-0.04189983430970058,0.0
80,-0.008651420607113158,0.0
81,-0.04663979185350788,0.0
82,0.04022269416197143,0.0
83,-0.022768336144980847,0.0
84,2.4551966156523077,0.0
85,6.889623920772396,0.0
86,-1.7680024428332843,0.0
87,0.16790299761713473,0.0
88,0.19311124047389322,0.0
89,-0.07848403949278096,0.0
90,0.08659638417547597,0.0
91,0.008675185684966486,0.0
92,0.10979212079865641,0.0
93,-0.06066877392380099,0.0
94,0.012975641565474061,0.0
95,0.01595557111792102,0.0
96,-0.02517961725128068,0.0
97,-0.02322431610666411,0.0
98,-0.007034311900410484,0.0
99,-0.07877600459415399,0.0
100,0.3085012507860084,0.0
101,4.568081034828373,0.0
102,5.050186657357111,0.0
103,-2.992632106525021,0.0
104,1.554355041182905,0.0
105,-0.7065626291026079,0.0
106,0.34226795345312416,0.0
107,-0.15861467893263478,0.0
108,0.014173822257641834,0.0
109,-0.020221761966338892,0.0
110,-0.023132798061862657,0.0
111,-4.1557157536171833e-05,0.0
112,0.07624395056936747,0.0
113,-0.0734881924510254,0.0
114,0.027291401461628402,0.0
115,0.017908862738973783,0.0
116,-0.01694670767405051,0.0
117,1.0791004523942112,0.0
118,6.5172099186067385,0.0
119,1.5167686291233737,0.0
120,-1.8457413221788324,0.0
121,1.2436424027018693,0.0
122,-0.6566814086787088,0.0
123,0.2607812170454486,0.0
124,-0.04756902416385331,0.0
125,-0.011900708328481658,0.0
126,-0.01808328986900874,0.0
127,-0.0077464099214104255,0.0
128,0.06739999221886019,0.0
129,-0.05154392241340209,0.0
130,0.07095216733532654,0.0
131,0.04323360185165581,0.0
132,-0.013095815726678076,0.0
133,0.07439440268838808,0.0
134,2.5224913196072576,0.0
135,6.8402703468538615,0.0
136,-1.796622364406448,0.0
137,0.23884847656334482,0.0
138,0.13464000424352676,0.0
139,-0.13376570055052897,0.0
140,-0.024569694295029077,0.0
141,-0.010651406141505892,0.0
142,0.05321976461091486,0.0
143,-0.0914309539943418,0.0
144,0.01430429305332848,0.0
145,0.04772763562624905,0.0
146,-0.004400483442020157,0.0
147,-0.10230175633608049,0.0
148,-0.0033220807717108843,0.0
149,-0.11477366995360658,0.0
150,0.21167691854990436,0.0
151,4.613851963909803,0.0
152,4.916764962437578,0.0
153,-2.9907108117341554,0.0
154,1.5496018841204449,0.0
155,-0.7244562336670921,0.0
156,0.28827674753159227,0.0
157,-0.17324355744437608,0.0
158,-0.07012331022030957,0.0
159,-0.046185925846258864,0.0
160,-0.06948177609218249,0.0
161,-0.06648286283759405,0.0
162,-0.03707211090721511,0.0
163,-0.020491008508467336,0.0
164,-0.08882566581163698,0.0
165,-0.0755281452346719,0.0
166,-0.10544094213575571,0.0
167,0.934673317611416,0.0
168,6.409637195474077,0.0
169,1.4236307212221209,0.0
170,-2.050216585814519,0.0
171,1.0975222749453215,0.0
172,-0.747647707757036,0.0
173,0.2638559425939333,0.0
174,-0.20712496661957605,0.0
175,-0.07212176672090348,0.0
176,-0.03736737147431231,0.0
177,-0.0256547995243254,0.0
178,-0.054340138851105654,0.0
179,-0.04014554376147987,0.0
180,-0.00957668858521557,0.0
181,0.02381052874340677,0.0
182,-0.011998584935738455,0.0
183,0.007800120976559435,0.0
184,2.5014080438329245,0.0
185,6.811388385078523,0.0
186,-1.9030381766544882,0.0
187,0.17400163343645925,0.0
188,0.11187719480073459,0.0
189,-0.08286522148657469,0.0
190,-0.02448857837036973,0.0
191,-0.06998418171439336,0.0
192,-0.1021248820695089,0.0
193,-0.04202625519065559,0.0
194,-0.11710642648960114,0.0
195,-0.008422797540310875,0.0
196,-0.013127651376786176,0.0
197,-0.037898810829865084,0.0
198,0.03596443923196477,0.0
199,-0.03460180340792117,0.0
200,0.38967031140380626,0.0
201,4.548789866209507,0.0
202,4.937551846319959,0.0
203,-3.0379974847130384,0.0
204,1.5837760372278873,0.0
205,-0.7615845642442057,0.0
206,0.26107532113792986,0.0
207,-0.07606762036279258,0.0
208,-0.10819916243116558,0.0
209,-0.05235185824670002,0.0
210,0.019558051672415755,0.0
211,-0.029682397590964492,0.0
212,-0.10520905239688774,0.0
213,-0.1210432714103187,0.0
214,-0.06356105159301695,0.0
215,-0.11666116517365402,0.0
216,-0.025990714730684053,0.0
217,0.8583488088455281,0.0
218,6.34391439403789,0.0
219,1.3096043063276772,0.0
220,-2.0302602335741344,0.0
221,1.147603892858989,0.0
222,-0.7989842908545014,0.0
223,0.2486797237221135,0.0
224,-0.1702361566162036,0.0
225,-0.17944071146345303,0.0
226,-0.022781959521858797,0.0
227,-0.05674169897217845,0.0
228,-0.12288238806272571,0.0
229,-0.01003133620893016,0.0
230,-0.06295558269627868,0.0
231,-0.09910641119143891,0.0
232,-0.03532788122385876,0.0
233,0.017075898848184477,0.0
234,2.4657919519019265,0.0
235,6.852024368226908,0.0
236,-1.8560359246642442,0.0
237,0.22681386904237838,0.0
238,0.11687433112006408,0.0
239,-0.08252382481289922,0.0
240,-0.015631329716752844,0.0
241,-0.04060665484230634,0.0
242,-0.04135798702982346,0.0
243,-0.0659087877238072,0.0
244,-0.11776532575401175,0.0
245,-0.12454022577337626,0.0
246,-0.05036969446608805,0.0
247,-0.009672264557941367,0.0
248,-0.042886410126636194,0.0
249,-0.017136200435243568,0.0
250,0.27392865487613327,0.0
251,4.651256787459162,0.0
252,4.908756201510944,0.0
253,-3.133031040621345,0.0
254,1.4845988608444867,0.0
255,-0.7017643934770722,0.0
256,0.26537511361236543,0.0
257,-0.10501063889900966,0.0
258,0.022666630462171815,0.0
259,-0.07320625764145233,0.0
260,-0.0970371127843006,0.0
261,-5.8685553738856144e-05,0.0
262,-0.1055956361948534,0.0
263,-0.028610927841628567,0.0
264,-0.09455925333927734,0.0
265,-0.08732301534511702,0.0
266,-0.05858831004864909,0.0
267,0.9843507272451469,0.0
268,6.3773019590262345,0.0
269,1.5081600948303058,0.0
270,-1.977566604253399,0.0
271,1.1649337932394663,0.0
272,-0.5543818111527479,0.0
273,0.3322255433077889,0.0
274,-0.1280428829667568,0.0
275,0.002407768601386567,0.0
276,-0.012782085617176486,0.0
277,-0.11243887011367142,0.0
278,-0.06286644260079201,0.0
279,-0.031095054253412753,0.0
280,0.022019393311948757,0.0
281,0.06828803517963718,0.0
282,-0.06910356570682788,0.0
283,0.028550888549139664,0.0
284,2.570448930794001,0.0
285,6.771470841415493,0.0
286,-1.8959247170775801,0.0
287,0.22423150958041202,0.0
288,0.05767151018648515,0.0
289,0.023042482435518444,0.0
290,-0.006036980535341059,0.0
291,-0.10131972534916774,0.0
292,0.03701224149346966,0.0
293,-0.035691827394260515,0.0
294,-0.0767728942798297,0.0
295,-0.016033826312599246,0.0
296,0.06312467866726505,0.0
297,0.03980318236587364,0.0
298,0.060462643534193575,0.0
299,-0.06296636316396004,0.0
300,0.3010983838856692,0.0
301,4.5250405689623445,0.0
302,4.900598451083702,0.0
303,-3.0541523677928835,0.0
304,1.6019315368393643,0.0
305,-0.750702121706189,0.0
306,0.21826045776295305,0.0
307,-0.0922618229951499,0.0
308,-0.06333812067831268,0.0
309,-0.05731228782865973,0.0
310,-0.07599161919952796,0.0
311,-0.02393147680987353,0.0
312,-0.09033439392486521,0.0
313,-0.09437183506396918,0.0
314,-0.011045909073415799,0.0
315,0.04338104970757434,0.0
316,0.013603345163666673,0.0
317,0.9937139887849937,0.0
318,6.523430199747127,0.0
319,1.4411319990081972,0.0
320,-1.9218686746609965,0.0
321,1.189459346212531,0.0
322,-0.5785389188197336,0.0
323,0.2882744353290456,0.0
324,-0.12662371043908102,0.0
325,0.024477099782146773,0.0
326,0.052787307631190356,0.0
327,0.009878437335801902,0.0
328,-0.02630531134086368,0.0
329,-0.027715558406012895,0.0
330,-0.06417698901888826,0.0
331,-0.018932633350977196,0.0
332,-0.02121917063222637,0.0
333,0.03911166238634256,0.0
334,2.48523749076718,0.0
335,6.857019110087177,0.0
336,-1.8201448320556919,0.0
337,0.2343655021396737,0.0
338,0.03302802481778212,0.0
339,-0.026003383512319483,0.0
340,0.09401254286513358,0.0
341,0.08223742221573464,0.0
342,0.017977294553266483,0.0
343,0.03450558312638183,0.0
344,0.016550639210931604,0.0
345,0.00848670392518333,0.0
346,-0.020231850381505774,0.0
347,-0.040575173162117215,0.0
348,0.05777833160898457,0.0
349,0.04127141159875543,0.0
350,0.20974445693182722,0.0
351,4.714138421761946,0.0
352,4.904448063032974,0.0
353,-2.9868103317804726,0.0
354,1.465572725046841,0.0
355,-0.7678351790779493,0.0
356,0.3298903377417193,0.0
357,-0.08143138628119842,0.0
358,0.08985734748473366,0.0
359,0.014406668200591232,0.0
360,0.020708120546761057,0.0
361,-0.019868170058144882,0.0
362,0.05938800973374403,0.0
363,-0.04444527190630197,0.0
364,-0.04178250915563271,0.0
365,-0.03704472688470638,0.0
366,0.019989610735353373,0.0
367,1.0851761157563196,0.0
368,6.481936953761992,0.0
369,1.3092129191055313,0.0
370,-1.8465992098026411,0.0
371,1.1805353252478807,0.0
372,-0.6675373399102037,0.0
373,0.3208870191261067,0.0
374,-0.0920251482434687,0.0
375,0.0516122076983449,0.0
376,0.04901830271507101,0.0
377,-0.054834524815758,0.0
378,0.00729566338718003,0.0
379,0.08092009652905423,0.0
380,0.10745881144360976,0.0
381,-0.05694963973194646,0.0
382,-0.024650801049744445,0.0
383,0.14485648238743215,0.0
384,2.494940710107847,0.0
385,6.883662024282123,0.0
386,-1.9689608754781074,0.0
387,0.27018623633200317,0.0
388,0.03601486808476081,0.0
389,-0.06799720843861906,0.0
390,0.0182783968580241,0.0
391,-0.023958332521129423,0.0
392,-0.01918124128255743,0.0
393,-0.09791929022482514,0.0
394,-0.0449997525767295,0.0
395,-0.0016833322892609824,0.0
396,-0.06428974568500126,0.0
397,0.09894344456372295,0.0
398,-0.051889127251403065,0.0
399,-0.06327511186155527,0.0
400,0.32155641228616233,0.0
401,4.6467918637754515,0.0
402,4.887781808809352,0.0
403,-2.913335312393958,0.0
404,1.5784260598245652,0.0
405,-0.7276073676800449,0.0
406,0.37524008838056166,0.0
407,-0.11958575513404804,0.0
408,-0.03326937753442365,0.0
409,-0.07379275109630573,0.0
410,-0.023157859778823956,0.0
411,-0.0537495792371538,0.0
412,-0.1321122685731361,0.0
413,0.013584434441627838,0.0
414,-0.12569071451112784,0.0
415,-0.1145064193018601,0.0
416,-0.059339979312684074,0.0
417,0.9285433018210936,0.0
418,6.467211332729736,0.0
419,1.3035234090769012,0.0
420,-1.8705916944643393,0.0
421,1.150086043598727,0.0
422,-0.6643926735499595,0.0
423,0.22473076021764837,0.0
424,-0.18085641730765536,0.0
425,0.001848909262493939,0.0
426,0.014950703035680432,0.0
427,-0.0692330273973496,0.0
428,-0.0892446382125302,0.0
429,0.03432388897046768,0.0
430,0.007780715161031654,0.0
431,-0.010053871822650978,0.0
432,0.02996520726875765,0.0
433,0.11141845560664412,0.0
434,2.603093216511531,0.0
435,6.754927810171972,0.0
436,-1.988310981879696,0.0
437,0.2997481288315389,0.0
438,0.08830897531046385,0.0
439,-0.10565041938787645,0.0
440,0.006734103789497308,0.0
441,0.015372448927550592,0.0
442,0.06975733099060683,0.0
443,-0.02147294094008094,0.0
444,-0.24667966721948095,0.0
445,0.008278632763975363,0.0
446,0.009550863080656263,0.0
447,-0.019609311360454552,0.0
448,-0.010483488934887791,0.0
449,0.0023436801495397455,0.0
450,0.2475527561273142,0.0
451,4.803247082627857,0.0
452,4.919358133384449,0.0
453,-3.0452809865493733,0.0
454,1.6080575626019888,0.0
455,-0.8331888035509846,0.0
456,0.30307408603189195,0.0
457,-0.033697574023307045,0.0
458,0.05538643620556816,0.0
459,0.010048604206661121,0.0
460,-0.036524931727895255,0.0
461,-0.016425413765180117,0.0
462,0.08235608689420318,0.0
463,-0.006098565636188361,0.0
464,-0.050944830503348935,0.0
465,-0.021426481308446488,0.0
466,0.025728108748479174,0.0
467,1.0823547806017002,0.0
468,6.54354855438861,0.0
469,1.3567753490685963,0.0
470,-1.7940960725427197,0.0
471,1.1929636366073908,0.0
472,-0.6555785469736357,0.0
473,0.33106682368240276,0.0
474,-0.14032868940432838,0.0
475,0.01977306817725276,0.0
476,0.036495024934178666,0.0
477,0.009838647630229735,0.0
478,-0.042872835734523156,0.0
479,0.044693094840086545,0.0
480,-0.07634980999637411,0.0
481,-0.09720378161419,0.0
482,-0.0241807647556578,0.0
483,-0.004966705521707179,0.0
484,2.5950725573133857,0.0
485,6.837413288380086,0.0
486,-1.9052219065618452,0.0
487,0.29319877302671005,0.0
488,0.08281671167376445,0.0
489,-0.07507605949858204,0.0
490,-0.020434953216453226,0.0
491,-0.04072269476052648,0.0
492,0.06164646121546637,0.0
493,0.08770233455793809,0.0
494,-0.0028494576227519035,0.0
495,0.032552981975722414,0.0
496,-0.05432918753157229,0.0
497,0.020856437944320644,0.0
498,-0.037627656887233005,0.0
499,-0.008314312177218952,0.0
500,0.33825822743298384,0.0
501,4.655396178404538,0.0
502,4.7982082311130725,0.0
503,-3.0781132346255666,0.0
504,1.5542813821882777,0.0
505,-0.7486752534576311,0.0
506,0.24655488318454477,0.0
507,-0.20417666869586515,0.0
508,0.08520870710843684,0.0
509,-0.09453025150462696,0.0
510,0.06406649976873166,0.0
511,0.05506666766316948,0.0
512,-0.03676993689412521,0.0
513,0.0035717433860704365,0.0
514,0.011433852116714317,0.0
515,-0.010705281690659055,0.0
516,0.05302097055535903,0.0
517,1.078073850899331,0.0
518,6.43798698966207,0.0
519,1.2853937818870946,0.0
520,-1.864154850104251,0.0
521,1.189213358155863,0.0
522,-0.6024154051201802,0.0
523,0.22379311201126345,0.0
524,-0.030019853781388786,0.0
525,-0.07007507280601136,0.0
526,-0.0014894265780805993,0.0
527,0.02430183722442485,0.0
528,-0.05718021813556373,0.0
529,0.01840151953821241,0.0
530,0.02258884237494473,0.0
531,0.05280770339073178,0.0
532,-0.06177674696082162,0.0
533,0.10374179893782824,0.0
534,2.5969727834140515,0.0
535,6.800231507539512,0.0
536,-1.9812967523093594,0.0
537,0.3135337033500421,0.0
538,0.008099556264774752,0.0
539,-0.10592046639999925,0.0
540,-0.0009673974813946221,0.0
541,-0.036125003658492666,0.0
542,-0.034720411446937244,0.0
543,0.04239142532880319,0.0
544,0.02926289331941676,0.0
545,-0.004429974335132305,0.0
546,-0.04334035324185541,0.0
547,-0.004305739071353216,0.0
548,0.00875954258137116,0.0
549,-0.021047279803408335,0.0
550,0.25714498699644167,0.0
551,4.760997674283415,0.0
552,4.661069716258475,0.0
553,-3.1059055863536043,0.0
554,1.5488213210990966,0.0
555,-0.7474964494149355,0.0
556,0.2941801539822787,0.0
557,-0.07591445767725935,0.0
558,0.0316130348887851,0.0
559,-0.03129889798089301,0.0
560,-0.03164537119310948,0.0
561,-0.07789122946266622,0.0
562,-0.02984084143566593,0.0
563,0.0002128777030763057,0.0
564,-0.016499531782345915,0.0
565,-0.03417808755712454,0.0
566,-0.02746249583608063,0.0
567,1.1478074300203451,0.0
568,6.455191431363556,0.0
569,1.344992353498907,0.0
570,-1.818673397773927,0.0
571,1.1937664068771223,0.0
572,-0.5885652414414819,0.0
573,0.26562663328081126,0.0
574,-0.07623487256321028,0.0
575,-0.0039033146578728722,0.0
576,-0.08986398229165171,0.0
577,-0.08629836736461374,0.0
578,0.014757689181651192,0.0
579,-0.10147729375009443,0.0
580,-0.06145985633376681,0.0
581,-0.04853015167528697,0.0
582,-0.05440067130856442,0.0
583,-0.07746688880381017,0.0
584,2.624113152693685,0.0
585,6.750731627847125,0.0
586,-1.9954409788379752,0.0
587,0.22304822015370201,0.0
588,0.07204120208813743,0.0
589,-0.05564144152507659,0.0
590,0.06925227680774684,0.0
591,0.10740409002210849,0.0
592,0.020136013121038077,0.0
593,0.05592067983869277,0.0
594,-0.01917632577052946,0.0
595,-0.017508744206806415,0.0
596,-0.005988390634265546,0.0
597,-0.04847936939674391,0.0
598,0.0038770224563284134,0.0
599,0.06186888529097109,0.0
600,0.2650165134580043,0.0
601,4.733637347285419,0.0
602,4.77896709769479,0.0
603,-3.112774054607352,0.0
604,1.5351212786775883,0.0
605,-0.6993657115228723,0.0
606,0.39768357680304023,0.0
607,-0.1122517529108266,0.0
608,-0.08334740760217559,0.0
609,-0.0012678803407925737,0.0
610,-0.0008222088572148872,0.0
611,-0.09360016121189414,0.0
612,-0.12248414329110949,0.0
613,-0.08584628663212908,0.0
614,0.014575031448947777,0.0
615,-0.07980839386613825,0.0
616,-0.07435346411744874,0.0
617,1.1611183996479992,0.0
618,6.5403431876996425,0.0
619,1.2449477735136163,0.0
620,-1.8273358912065027,0.0
621,1.1784199502471937,0.0
622,-0.6892229549605967,0.0
623,0.24730346353955204,0.0
624,-0.07215553665569302,0.0
625,0.09010610024904021,0.0
626,-0.11413942118782794,0.0
627,-0.14132090006078918,0.0
628,-0.04664416921729833,0.0
629,-0.0748871757709223,0.0
630,0.0812908259486016,0.0
631,-0.03523818307664889,0.0
632,0.012645684683900812,0.0
633,0.0034384788177318337,0.0
634,2.5648751357176365,0.0
635,6.711588412906608,0.0
636,-1.9080878162443349,0.0
637,0.3870019299315463,0.0
638,0.04297517645651555,0.0
639,-0.17103631221332266,0.0
640,-0.02160877531888071,0.0
641,0.0059326594239342036,0.0
642,-0.05969824648448409,0.0
643,0.0007698744930507359,0.0
644,0.016698752182632334,0.0
645,-0.07079250633455897,0.0
646,0.010033800817873334,0.0
647,0.13814151739465386,0.0
648,-0.07974153366240617,0.0
649,-0.006894713396128405,0.0
650,0.3505268578576835,0.0
651,4.749865617210294,0.0
652,4.673364565238235,0.0
653,-3.0106953055931887,0.0
654,1.4865661843391786,0.0
655,-0.8242324430086452,0.0
656,0.2698456953391859,0.0
657,-0.0642908093994871,0.0
658,-0.025692407461738495,0.0
659,-0.06997624070201758,0.0
660,-0.06678198662487417,0.0
661,-0.00936117871702273,0.0
662,-0.04811980384631152,0.0
663,-0.08148015364300445,0.0
664,0.02006402910819697,0.0
665,-0.012959141973285418,0.0
666,-0.021493810881128055,0.0
667,1.051250673431307,0.0
668,6.569014473821479,0.0
669,1.1689516415473926,0.0
670,-1.8285136521154775,0.0
671,1.0908465872736102,0.0
672,-0.6903943898716248,0.0
673,0.22552289842890696,0.0
674,-0.11216918733796492,0.0
675,0.0029266539700030167,0.0
676,0.029746585770422204,0.0
677,0.015924362318682807,0.0
678,-0.1429540696703629,0.0
679,0.0385149458730962,0.0
680,-0.01812039194428397,0.0
681,-0.04678199135239988,0.0
682,-0.0650378637012649,0.0
683,0.02641304586339305,0.0
684,2.67090443191603,0.0
685,6.792083680379291,0.0
686,-2.049873400912368,0.0
687,0.2637983705161496,0.0
688,0.009490919821764013,0.0
689,-0.026154054144320482,0.0
690,-0.02034875519021649,0.0
691,0.009502860151661727,0.0
692,-0.026098305107388916,0.0
693,0.014596599452913563,0.0
694,-0.08404832714339752,0.0
695,-0.09087276855809062,0.0
696,0.02450119426359469,0.0
697,-0.007974833693523961,0.0
698,-0.17148203505921705,0.0
699,0.002952454893759754,0.0
700,0.2959064224022381,0.0
701,4.68647377495986,0.0
702,4.718438225012318,0.0
703,-3.006577205071208,0.0
704,1.502101088639453,0.0
705,-0.6616453215490674,0.0
706,0.3146090334458012,0.0
707,-0.1312657623146737,0.0
708,0.04131073721394719,0.0
709,-0.0592611938959218,0.0
710,0.03872400394992965,0.0
711,0.0597083952147174,0.0
712,-0.09020747588682125,0.0
713,0.01816008337887222,0.0
714,-0.18281766398571428,0.0
715,0.012441903498174096,0.0
716,-0.09308104852710739,0.0
717,0.9460287972738999,0.0
718,6.467411039221672,0.0
719,1.3067231579450764,0.0
720,-1.7366864120578682,0.0
721,1.206935341983634,0.0
722,-0.6563865751960314,0.0
723,0.19487487725027317,0.0
724,-0.17577778685705786,0.0
725,-0.02961762185972501,0.0
726,-0.1102371864308378,0.0
727,-0.0648527282859345,0.0
728,-0.02124450838414374,0.0
729,-0.09362668507029649,0.0
730,-0.07385476456440666,0.0
731,-0.06897047217072684,0.0
732,-0.05734436563323454,0.0
733,0.11281982185214622,0.0
734,2.587695082698506,0.0
735,6.740578677821614,0.0
736,-2.086777861035763,0.0
737,0.26563194189963635,0.0
738,-0.007037903026575976,0.0
739,-0.04589639234869327,0.0
740,-0.041874496816717885,0.0
741,-0.19439907324760153,0.0
742,0.05556101912792828,0.0
743,0.0019311958909050322,0.0
744,0.0188171708380307,0.0
745,-0.14041497274479062,0.0
746,-0.06921185508566272,0.0
747,0.016008672681552094,0.0
748,-0.007381984906557129,0.0
749,0.0884802600671598,0.0
750,0.32585541296088294,0.0
751,4.798703244839939,0.0
752,4.6364718690987745,0.0
753,-3.0915467174570193,0.0
754,1.5331632639919146,0.0
755,-0.800063534443176,0.0
756,0.25985211771824596,0.0
757,-0.1395209119063329,0.0
758,-0.00433693508134501,0.0
759,-0.04956081215672966,0.0
760,-0.06721584944928535,0.0
761,0.00527635671364543,0.0
762,-0.061352693188062676,0.0
763,-0.029801878097025603,0.0
764,-0.06742574147089342,0.0
765,-0.09106429332220395,0.0
766,0.009950100423663504,0.0
767,1.0764531237499995,0.0
768,6.59708085754433,0.0
769,1.178001048460341,0.0
770,-1.727783477590867,0.0
771,1.0865655621408912,0.0
772,-0.5075772854446254,0.0
773,0.22360193951245533,0.0
774,-0.0315029320723063,0.0
775,-0.040727945223807446,0.0
776,0.016501719238880806,0.0
777,-0.032904139254863796,0.0
778,-0.04453527387382561,0.0
779,-0.06833092796519696,0.0
780,-0.038616030203391605,0.0
781,0.004585090491559312,0.0
782,-0.04877467359841113,0.0
783,-0.036726928909344966,0.0
784,2.6744592851264026,0.0
785,6.833304847807859,0.0
786,-1.9673045926816757,0.0
787,0.3817170584919843,0.0
788,0.010848673922094938,0.0
789,-0.11143104419243358,0.0
790,0.0699381586165902,0.0
791,-0.016004148300047448,0.0
792,0.0026536050869680142,0.0
793,-0.012058094384430028,0.0
794,-0.006379091602095273,0.0
795,-0.08242101428154927,0.0
796,0.1125112685185659,0.0
797,0.00877084097107633,0.0
798,-0.03951580150685788,0.0
799,0.04395601125762888,0.0
800,0.30045228933917656,0.0
801,4.8171558842422195,0.0
802,4.724280241515786,0.0
803,-2.976264015256214,0.0
804,1.4800523776416845,0.0
805,-0.7423816457980443,0.0
806,0.403181455336256,0.0
807,-0.06303179659932921,0.0
808,0.0648620037559715,0.0
809,-0.04607297882485832,0.0
810,-0.04370326438445768,0.0
811,-0.08334281850689101,0.0
812,0.05077929330127351,0.0
813,0.033273714352930264,0.0
814,0.0077652418851070154,0.0
815,-0.02484005422775734,0.0
816,0.028091331145485884,0.0
817,1.2150477962161266,0.0
818,6.602405789251439,0.0
819,1.210462497903526,0.0
820,-1.7434018380100098,0.0
821,1.1640071502483686,0.0
822,-0.533041277794743,0.0
823,0.37699523360169607,0.0
824,-0.07211093189562455,0.0
825,0.06321030424915895,0.0
826,0.08959064798919719,0.0
827,0.06636484070321821,0.0
828,0.0991131361422242,0.0
829,-0.01385531619917086,0.0
830,0.0768723921536699,0.0
831,0.01906242494816693,0.0
832,0.0909520529174293,0.0
833,0.08967099190516915,0.0
834,2.7728801369920357,0.0
835,6.889441853335507,0.0
836,-2.0623826853995957,0.0
837,0.49342501950241713,0.0
838,0.1310264621014568,0.0
839,0.018886040764130974,0.0
840,-0.00502621082298875,0.0
841,0.055349024965946375,0.0
842,-0.02959002877870885,0.0
843,-0.0516615483147693,0.0
844,0.04019344055908607,0.0
845,-0.08493056237544937,0.0
846,0.11173090227066429,0.0
847,-0.06361581586333177,0.0
848,0.0446042996068762,0.0
849,-0.042900896703838357,0.0
850,0.3630003171490793,0.0
851,4.85552702379052,0.0
852,4.626106477496148,0.0
853,-2.991815436652285,0.0
854,1.5816599345600098,0.0
855,-0.7683886844140653,0.0
856,0.273000845802052,0.0
857,-0.11471039885720216,0.0
858,0.04846629188003212,0.0
859,0.06961363829300951,0.0
860,0.1400534949509954,0.0
861,0.08741104992261864,0.0
862,0.010165554982146871,0.0
863,0.09582799944199247,0.0
864,0.10707355483932694,0.0
865,0.06844984221935163,0.0
866,0.07010586768165991,0.0
867,1.1810034682383754,0.0
868,6.623813464771343,0.0
869,1.168898113868147,0.0
870,-1.7074003749083722,0.0
871,1.1787773982445702,0.0
872,-0.6395254249747998,0.0
873,0.26955284536672536,0.0
874,-0.03504261478350003,0.0
875,0.015596033880528697,0.0
876,0.003911928153952922,0.0
877,0.02120540601225443,0.0
878,0.05087787760505878,0.0
879,0.06690526541475848,0.0
880,0.034578716912477436,0.0
881,-0.06504725656648984,0.0
882,0.016875380774332746,0.0
883,0.0035536663583883715,0.0
884,2.7365453209761745,0.0
885,6.809497397445551,0.0
886,-1.9795897715359114,0.0
887,0.42185664664182326,0.0
888,0.08679027029771813,0.0
889,-0.014131686383708791,0.0
890,0.05763042483019634,0.0
891,0.019178106790680778,0.0
892,0.023710080696779916,0.0
893,0.01701095655478228,0.0
894,-0.016081445277522546,0.0
895,-0.07835816906255409,0.0
896,0.0693889526602432,0.0
897,-0.03457170446800026,0.0
898,0.10706782794554037,0.0
899,0.07084576458936118,0.0
900,0.3678996250077456,0.0
901,4.805998344643861,0.0
902,4.686089681654161,0.0
903,-3.02977624005074,0.0
904,1.726612138283759,0.0
905,-0.7178835669587318,0.0
906,0.3766334826901856,0.0
907,-0.05145948854222061,0.0
908,0.14380763393657137,0.0
909,-0.0553187360586323,0.0
910,0.17146848225901357,0.0
911,-0.056112349080629426,0.0
912,0.10027908700152843,0.0
913,-0.017662721524227404,0.0
914,0.03243039537789974,0.0
915,0.08783325346122249,0.0
916,-0.015877253664736787,0.0
917,1.1881640427796087,0.0
918,6.625442338292277,0.0
919,1.065918597626467,0.0
920,-1.7590036093588861,0.0
921,1.1620156479619386,0.0
922,-0.5750119217984435,0.0
923,0.2046292685409522,0.0
924,-0.044687484890603375,0.0
925,0.08799884040945838,0.0
926,0.04657073403162092,0.0
927,-0.007447277851171545,0.0
928,0.044076210261023534,0.0
929,-0.021944480661849987,0.0
930,0.02814170913172759,0.0
931,0.07353509606821981,0.0
932,0.10676083583902476,0.0
933,0.18964850032662586,0.0
934,2.6565389621560476,0.0
935,6.809058775140772,0.0
936,-2.071391547267268,0.0
937,0.47747286992976695,0.0
938,-0.04881432950457111,0.0
939,-0.12150212547454425,0.0
940,0.018514981544987603,0.0
941,-0.07762667398062342,0.0
942,0.025696376680760365,0.0
943,-0.003997848823278468,0.0
944,-0.04637989310624191,0.0
945,0.02448950601127627,0.0
946,0.011882151443794151,0.0
947,0.093463557600274,0.0
948,0.12845932620402417,0.0
949,0.014963783970243744,0.0
950,0.3781778517710846,0.0
951,4.94743570342381,0.0
952,4.674979096980721,0.0
953,-3.014196642738375,0.0
954,1.659248290772024,0.0
955,-0.7544925343908561,0.0
956,0.25582065539519516,0.0
957,-0.1415025040292564,0.0
958,0.004897734021072329,0.0
959,-0.03802754568590341,0.0
960,-0.07285756654313108,0.0
961,-0.05808030328487141,0.0
962,-0.03660152575325864,0.0
963,-0.008651290834057558,0.0
964,0.04616120967320076,0.0
965,-0.05316107532029202,0.0
966,0.00959526428032515,0.0
967,1.1618008419637746,0.0
968,6.621724293479611,0.0
969,1.1059163596446775,0.0
970,-1.6607093325678794,0.0
971,1.1922958374353174,0.0
972,-0.43909488723607615,0.0
973,0.2509603045417395,0.0
974,0.09327244568781845,0.0
975,0.09498434203594452,0.0
976,0.03783966105645492,0.0
977,0.052808627800509225,0.0
978,0.0704211115093497,0.0
979,0.042562902762604174,0.0
980,0.0035128189149327,0.0
981,0.024458915982424674,0.0
982,0.08214634290570708,0.0
983,0.11278488790808958,0.0
984,2.757565925573655,0.0
985,6.806711524582274,0.0
986,-2.13080886107963,0.0
987,0.5009777528771877,0.0
988,0.02782766298105018,0.0
989,0.07013152717464655,0.0
990,-0.06155450809182678,0.0
991,0.054463661789620546,0.0
992,0.04980247015545286,0.0
993,0.05416848235940422,0.0
994,0.011822004711838825,0.0
995,0.013703842186824087,0.0
996,-0.009535256668065768,0.0
997,0.042060144215924834,0.0
998,-0.10630272390695256,0.0
999,0.01157312016193525,0.0
1000,0.31512309725129156,0.0
1001,4.879235388685535,0.0
1002,4.632236499465626,0.0
1003,-2.9901726308343846,0.0
1004,1.6631873237341517,0.0
1005,-0.7356636354233478,0.0
1006,0.325069590350498,0.0
1007,-0.07848037873380147,0.0
1008,0.015567147465021282,0.0
1009,0.0472687351397085,0.0
1010,0.015126072805441305,0.0
1011,0.008290248537766248,0.0
1012,0.006366465296651191,0.0
1013,0.11046797027291186,0.0
1014,0.06741030556434327,0.0
1015,0.07211785059581319,0.0
1016,0.06212019345451451,0.0
1017,1.0528666016119084,0.0
1018,6.666535189188308,0.0
1019,1.104327118511426,0.0
1020,-1.6598711113159446,0.0
1021,1.1926389479349875,0.0
1022,-0.5607212917055886,0.0
1023,0.3106163493211153,0.0
1024,-0.12752732945959794,0.0
1025,0.07875979620382131,0.0
1026,0.00037228975442044066,0.0
1027,0.08512593008791769,0.0
1028,0.05782639401632679,0.0
1029,0.09392219111567318,0.0
1030,0.06120454919944961,0.0
1031,0.13785932309763732,0.0
1032,-0.05296506917598763,0.0
1033,0.10103883087647969,0.0
1034,2.7903009620362798,0.0
1035,6.735863710284943,0.0
1036,-2.090815039327829,0.0
1037,0.4926459349925252,0.0
1038,0.06632240173717072,0.0
1039,-0.048510607180598686,0.0
1040,0.017898189683938366,0.0
1041,0.010536075314635839,0.0
1042,0.08851860829096304,0.0
1043,-0.01565990735630869,0.0
1044,0.0761173823991632,0.0
1045,-0.009453461824871962,0.0
1046,-0.07314779627143987,0.0
1047,0.01160365980631932,0.0
1048,-0.020922207445820303,0.0
1049,-0.05297164886420054,0.0
1050,0.2565720060687446,0.0
1051,4.773793337805134,0.0
1052,4.558898164168247,0.0
1053,-2.960298666319465,0.0
1054,1.5071276411485437,0.0
1055,-0.8459931063365259,0.0
1056,0.2801495920200317,0.0
1057,-0.09248526162105082,0.0
1058,0.016511973974510485,0.0
1059,0.015429203330236535,0.0
1060,0.119191290838608,0.0
1061,0.053970725126382055,0.0
1062,0.14772562105967318,0.0
1063,0.17239243601624862,0.0
1064,0.10806383137052115,0.0
1065,0.05850893397029298,0.0
1066,0.03435416103977791,0.0
1067,1.2998309389034959,0.0
1068,6.663976637255679,0.0
1069,1.2373590147681237,0.0
1070,-1.6274692571118747,0.0
1071,1.2120699864184579,0.0
1072,-0.5154436210059308,0.0
1073,0.29450007641048664,0.0
1074,0.02985722805926621,0.0
1075,0.0050674836110631005,0.0
1076,0.06836191817375836,0.0
1077,0.06242837592060548,0.0
1078,0.0878080126810053,0.0
1079,0.043343764791059294,0.0
1080,0.0607462029237434,0.0
1081,-0.05903726718770927,0.0
1082,-0.051348627856526205,0.0
1083,0.11123316163088079,0.0
1084,2.7325811412777647,0.0
1085,6.831805586953637,0.0
1086,-2.034642372635436,0.0
1087,0.4769283499054807,0.0
1088,0.002336661175708018,0.0
1089,-0.08406964784785076,0.0
1090,-0.00580683271866007,0.0
1091,0.03198934716420665,0.0
1092,-0.02116082674953906,0.0
1093,0.05038609744591755,0.0
1094,0.05427775435729179,0.0
1095,0.03701727592327756,0.0
1096,0.04282466297011732,0.0
1097,-0.007003079945931138,0.0
1098,0.045735074567589296,0.0
1099,0.02549662299376565,0.0
1100,0.3584341782420136,0.0
1101,4.828206249408251,0.0
1102,4.601726228161338,0.0
1103,-2.9647827868320804,0.0
1104,1.553333882829838,0.0
1105,-0.7860875548386679,0.0
1106,0.31157688403562006,0.0
1107,-0.13233803393271237,0.0
1108,0.01412877673059261,0.0
1109,0.06133686407381753,0.0
1110,0.053022022686365855,0.0
1111,0.06568931081790652,0.0
1112,0.010958060578338067,0.0
1113,0.06427248789118087,0.0
1114,0.08131307035350659,0.0
1115,0.08807153000015303,0.0
1116,0.0868461312432243,0.0
1117,1.118458547857665,0.0
1118,6.640990823394737,0.0
1119,1.062040988302846,0.0
1120,-1.6571182092522563,0.0
1121,1.0923560017684049,0.0
1122,-0.5458061955861647,0.0
1123,0.2562000203775922,0.0
1124,-0.03043564714397763,0.0
1125,-0.018884143119932847,0.0
1126,-0.054923449791579856,0.0
1127,-0.1031823685795287,0.0
1128,-0.04155529146266038,0.0
1129,0.00253854344953499,0.0
1130,-0.03290514332288211,0.0
1131,-0.13609963324318264,0.0
1132,0.05217076358917755,0.0
1133,-0.022301572029221797,0.0
1134,2.7015672210550017,0.0
1135,6.6979637815210635,0.0
1136,-2.0837367036887446,0.0
1137,0.46499127599740403,0.0
1138,-0.053897857968309607,0.0
1139,0.05428834567025988,0.0
1140,0.024498894637764432,0.0
1141,0.020491100345950735,0.0
1142,-0.03185752868197061,0.0
1143,-0.08652353953611058,0.0
1144,0.01794346299260019,0.0
1145,0.03414079551450062,0.0
1146,0.024698984287893563,0.0
1147,-0.030398921871679363,0.0
1148,-0.015514251933471262,0.0
1149,-0.020804919120747056,0.0
1150,0.381981290985531,0.0
1151,4.844703938182205,0.0
1152,4.456611607817651,0.0
1153,-3.0886213631400774,0.0
1154,1.6138442709892487,0.0
1155,-0.7425001949217875,0.0
1156,0.2370508441828761,0.0
1157,-0.12863477134008292,0.0
1158,0.014734667538894358,0.0
1159,-0.05773090024492089,0.0
1160,-0.05275075346689368,0.0
1161,-0.02992012073863605,0.0
1162,-0.05731577998042395,0.0
1163,0.001791909016190408,0.0
1164,-0.039192041211450215,0.0
1165,0.08592105684497556,0.0
1166,-0.017732950856728817,0.0
1167,1.1779360309634634,0.0
1168,6.646029828715826,0.0
1169,1.0279072945228442,0.0
1170,-1.7732821021756524,0.0
1171,1.1559541744984985,0.0
1172,-0.5924697745713436,0.0
1173,0.28410467225531744,0.0
1174,-0.07891124071017482,0.0
1175,0.0418782162288645,0.0
1176,0.05158715225850856,0.0
1177,0.10686193928512372,0.0
1178,0.0019139166520575346,0.0
1179,0.10080392407880677,0.0
1180,0.11456656401389262,0.0
1181,0.15000747336053927,0.0
1182,0.08679567937695516,0.0
1183,0.08361829351542728,0.0
1184,2.838355245586797,0.0
1185,6.756598193990277,0.0
1186,-2.214753339909274,0.0
1187,0.4929420815073617,0.0
1188,-0.11266733389052144,0.0
1189,-0.0675737003211668,0.0
1190,-0.09339119413285751,0.0
1191,-0.08637666743860943,0.0
1192,-0.10756846303600885,0.0
1193,-0.12022576950628663,0.0
1194,-0.04926885144429607,0.0
1195,-0.0674600941483497,0.0
1196,0.007857306693464808,0.0
1197,-0.1449672546018479,0.0
1198,-0.08897483517456162,0.0
1199,-0.14144849250396332,0.0
1200,0.3196525865448701,0.0
1201,4.891981226215536,0.0
1202,4.507684990092209,0.0
1203,-2.9721613843672072,0.0
1204,1.603851494175001,0.0
1205,-0.7886953760808382,0.0
1206,0.2339016177201499,0.0
1207,-0.18628190936521882,0.0
1208,0.05672559723936065,0.0
1209,-0.11992807808484995,0.0
1210,-0.03832135687974626,0.0
1211,-0.06805624387267419,0.0
1212,-0.11388192999270816,0.0
1213,-0.08343873306775582,0.0
1214,-0.05581258230684963,0.0
1215,-0.042145420953559755,0.0
1216,-0.1078566870359197,0.0
1217,1.1982285427040047,0.0
1218,6.490642603514287,0.0
1219,0.8951165796976666,0.0
1220,-1.6528502288990004,0.0
1221,1.1350264411918827,0.0
1222,-0.5551247072021183,0.0
1223,0.19027805289345281,0.0
1224,-0.09630651857465991,0.0
1225,-0.008653201442283528,0.0
1226,-0.042885973527391555,0.0
1227,-0.06984085068714102,0.0
1228,-0.03514757471868648,0.0
1229,0.0018451586920513671,0.0
1230,-0.007585158043129807,0.0
1231,-0.09304445426360451,0.0
1232,-0.1620632443637769,0.0
1233,0.02081869531749099,0.0
1234,2.732807674938098,0.0
1235,6.57905286369589,0.0
1236,-2.28572138293792,0.0
1237,0.411522893471599,0.0
1238,-0.11633140796336652,0.0
1239,-0.14328494620361862,0.0
1240,-0.08003531447669855,0.0
1241,0.02558557826040729,0.0
1242,0.0065766641698816325,0.0
1243,-0.06200151242010733,0.0
1244,-0.09151971032081926,0.0
1245,-0.10022449054120423,0.0
1246,-0.09604800315869812,0.0
1247,-0.15706778072978128,0.0
1248,-0.036301255634724416,0.0
1249,0.030243167930646547,0.0
1250,0.29488448461426403,0.0
1251,4.950235943465959,0.0
1252,4.448575517833591,0.0
1253,-2.948405684674777,0.0
1254,1.5313966603080151,0.0
1255,-0.779993436177477,0.0
1256,0.21619688414714014,0.0
1257,-0.2105396761667174,0.0
1258,0.03275267637130536,0.0
1259,0.005624663839709061,0.0
1260,-0.05810126261525858,0.0
1261,-0.0478349332659405,0.0
1262,-0.10838767529180252,0.0
1263,-0.030791741937669,0.0
1264,0.010711607698888334,0.0
1265,-0.0408188992929287,0.0
1266,-0.12124334960592119,0.0
1267,1.251767463641989,0.0
1268,6.581575088828608,0.0
1269,0.9455618629803437,0.0
1270,-1.7058673059615275,0.0
1271,0.9347059655147772,0.0
1272,-0.6091160532237231,0.0
1273,0.18808742366039166,0.0
1274,-0.13990864824350838,0.0
1275,-0.035477632758909236,0.0
1276,-0.0685888796164314,0.0
1277,-0.056613545026816384,0.0
1278,-0.02261085638078606,0.0
1279,-0.03188110162279413,0.0
1280,-0.08714271033183066,0.0
1281,0.05876221722705684,0.0
1282,-0.029269111201154448,0.0
1283,0.03184184546763525,0.0
1284,2.7829888025892555,0.0
1285,6.716057563617466,0.0
1286,-2.114483362775836,0.0
1287,0.46421953194062754,0.0
1288,-0.010602187269528454,0.0
1289,-0.047159634399300605,0.0
1290,0.024746658606550197,0.0
1291,-0.07788354588034298,0.0
1292,-0.02418740154058207,0.0
1293,-0.04603503636973309,0.0
1294,-0.07557152340873041,0.0
1295,0.0176760805606773,0.0
1296,0.008697009622000956,0.0
1297,0.13374284562463096,0.0
1298,-0.11187450346628533,0.0
1299,-0.08102976639883958,0.0
1300,0.31127303263812767,0.0
1301,4.89722431325744,0.0
1302,4.40354326845562,0.0
1303,-2.9516690957112304,0.0
1304,1.555948691127184,0.0
1305,-0.7758167140304589,0.0
1306,0.16531007381323126,0.0
1307,-0.21086580304187325,0.0
1308,-0.01945838955919307,0.0
1309,-0.015336923920011528,0.0
1310,-0.05507046696465604,0.0
1311,-0.02977623153851748,0.0
1312,-0.10504053665033808,0.0
1313,-0.033153402507334,0.0
1314,-0.019638371936617605,0.0
1315,-0.015423037229796162,0.0
1316,-0.09041342358192081,0.0
1317,1.088931513327006,0.0
1318,6.518569116889136,0.0
1319,0.9279118736488637,0.0
1320,-1.6404957509590057,0.0
1321,0.9887693057341143,0.0
1322,-0.5592821724903326,0.0
1323,0.2501233565653977,0.0
1324,-0.13697492719368418,0.0
1325,-0.03725674231244658,0.0
1326,-0.04873420827032035,0.0
1327,-0.10481028058245273,0.0
1328,-0.02453825681683927,0.0
1329,-0.036075336812699955,0.0
1330,0.010344826808923416,0.0
1331,-0.1021509173091161,0.0
1332,-0.08052146073217421,0.0
1333,-0.004726213089430074,0.0
1334,2.7188133191765127,0.0
1335,6.680485661473049,0.0
1336,-2.1890211666140877,0.0
1337,0.5386872537422611,0.0
1338,-0.014549732362024857,0.0
1339,0.05533894103496769,0.0
1340,0.0016344104083263564,0.0
1341,-0.0020577818483321873,0.0
1342,-0.021491018923792155,0.0
1343,0.052104230578951756,0.0
1344,0.1102369328363544,0.0
1345,-0.006181993503036337,0.0
1346,0.013610866713893338,0.0
1347,-0.0006939079878054179,0.0
1348,0.033769205523072506,0.0
1349,-0.028582566082456087,0.0
1350,0.4164995965627026,0.0
1351,4.853549691398627,0.0
1352,4.423900970124566,0.0
1353,-3.0301279164555157,0.0
1354,1.5443106304477023,0.0
1355,-0.8867050232783315,0.0
1356,0.24391376248951308,0.0
1357,-0.16615237402221258,0.0
1358,0.013283731220077786,0.0
1359,0.01866194525295739,0.0
1360,-0.0189900687156239,0.0
1361,-0.13041995670874967,0.0
1362,-0.05538590693756427,0.0
1363,-0.016272368149473325,0.0
1364,-0.07115957923801138,0.0
1365,-0.05013553118405073,0.0
1366,0.053760836180685306,0.0
1367,1.0679215458568487,0.0
1368,6.652568858648314,0.0
1369,0.8111406785493558,0.0
1370,-1.603466627186894,0.0
1371,1.053815233629598,0.0
1372,-0.6294815434708501,0.0
1373,0.23836255428352252,0.0
1374,-0.17362891874768363,0.0
1375,-0.0455066315782839,0.0
1376,-0.08763748830948159,0.0
1377,-0.023026014033951565,0.0
1378,-0.0568971537443036,0.0
1379,0.11492508086602857,0.0
1380,-0.032847275921249516,0.0
1381,-0.05575019251259261,0.0
1382,0.048828878581321615,0.0
1383,-0.02336355356921905,0.0
1384,2.8256483871827376,0.0
1385,6.725876276766735,0.0
1386,-2.269839614734289,0.0
1387,0.5249309501993442,0.0
1388,-0.0003663114780125265,0.0
1389,-0.02961592118575379,0.0
1390,0.05210932698376842,0.0
1391,-0.057165768236470474,0.0
1392,0.027521620412759545,0.0
1393,-0.052271733553851354,0.0
1394,0.0407887947025204,0.0
1395,0.02880498738407338,0.0
1396,0.06060887339246949,0.0
1397,-0.07377435709452153,0.0
1398,0.02864472545502833,0.0
1399,-0.11735422844338086,0.0
1400,0.29566473836184126,0.0
1401,4.85883760114092,0.0
1402,4.461478662532075,0.0
1403,-2.9961297074086035,0.0
1404,1.548728651706877,0.0
1405,-0.8259948171243254,0.0
1406,0.3370086883056265,0.0
1407,-0.24206138128024468,0.0
1408,-0.03465933726532064,0.0
1409,0.00032808804813915654,0.0
1410,0.006743251249954077,0.0
1411,-0.004394848493866409,0.0
1412,-0.023158744542227896,0.0
1413,0.037952781019944086,0.0
1414,0.03914725194217358,0.0
1415,-0.019387036808986333,0.0
1416,0.008040464873013405,0.0
1417,1.1566645022151205,0.0
1418,6.60898925994846,0.0
1419,0.86049756189287,0.0
1420,-1.578978907191269,0.0
1421,1.1131193956576484,0.0
1422,-0.5414522326798894,0.0
1423,0.23856927271074035,0.0
1424,-0.12350167803595702,0.0
1425,-0.030460949418147525,0.0
1426,0.047261189729818284,0.0
1427,-0.007228043514287203,0.0
1428,-0.007773545767480277,0.0
1429,0.00351291925977704,0.0
1430,0.05300044768788874,0.0
1431,-0.03147520567588748,0.0
1432,-0.016202632658259396,0.0
1433,0.032135287117207,0.0
1434,2.8052768097538263,0.0
1435,6.701443222531314,0.0
1436,-2.2978163435529573,0.0
1437,0.5939870788654567,0.0
1438,-0.13062324213195214,0.0
1439,0.006548339668612881,0.0
1440,4.801810666266171e-05,0.0
1441,-0.003049711170081699,0.0
1442,-0.09089989623665552,0.0
1443,0.0014278356042687831,0.0
1444,-0.10399896289457101,0.0
1445,0.03989595530910588,0.0
1446,-0.02278550546216531,0.0
1447,-0.15383935885852879,0.0
1448,-0.029387917835406258,0.0
1449,-0.10098912528641127,0.0
1450,0.3166421563927793,0.0
1451,4.9766813183224015,0.0
1452,4.4269816447716295,0.0
1453,-3.0800062749087647,0.0
1454,1.5984427139092745,0.0
1455,-0.8644685697426422,0.0
1456,0.2669229637018772,0.0
1457,-0.09899750211019998,0.0
1458,0.020983822379809197,0.0
1459,0.012922962260278927,0.0
1460,0.0014529136852367425,0.0
1461,0.0658152668332834,0.0
1462,-0.0030961156398689044,0.0
1463,-0.04689977797636544,0.0
1464,-0.029095773107080336,0.0
1465,-0.06996899248901679,0.0
1466,-0.1117534029625031,0.0
1467,1.1873343395358804,0.0
1468,6.637706822939434,0.0
1469,0.7830549480268266,0.0
1470,-1.6525285987969038,0.0
1471,1.0369763963821992,0.0
1472,-0.6046384490466202,0.0
1473,0.16369351271969634,0.0
1474,-0.06383407614505397,0.0
1475,-0.008908859218886591,0.0
1476,-0.060615232733939685,0.0
1477,0.03747152514834095,0.0
1478,0.022743522445001354,0.0
1479,0.020129931408227855,0.0
1480,-0.06041609338517827,0.0
1481,-0.1152096774808033,0.0
1482,-0.04274697739315533,0.0
1483,0.10127885735334136,0.0
1484,2.7252659342288013,0.0
1485,6.654128404409036,0.0
1486,-2.2734639444763816,0.0
1487,0.6207855790986044,0.0
1488,-0.09536198825454677,0.0
1489,-0.08711242655145782,0.0
1490,-0.06677627380350598,0.0
1491,-0.016958789871334503,0.0
1492,0.020486871206214514,0.0
1493,-0.07692078618776768,0.0
1494,-0.07212139215643885,0.0
1495,0.0824494670852814,0.0
1496,-0.0337419520218642,0.0
1497,0.026753551604675838,0.0
1498,-0.07348875734697184,0.0
1499,-0.03284976110602867,0.0
1500,0.37448450713320247,0.0
1501,4.978989876697747,0.0
1502,4.481679564994193,0.0
1503,-2.9196692435668457,0.0
1504,1.5426539973055693,0.0
1505,-0.7380287719102823,0.0
1506,0.31775945617265117,0.0
1507,-0.13806635322845073,0.0
1508,0.0956021393494651,0.0
1509,-0.015657630621181636,0.0
1510,0.048787113497209905,0.0
1511,0.05199598058486746,0.0
1512,0.05129158938540403,0.0
1513,-0.02558986597690128,0.0
1514,-0.10058311765140428,0.0
1515,0.047494575746326005,0.0
1516,0.07898334437911037,0.0
1517,1.2582758222814225,0.0
1518,6.661465804396739,0.0
1519,0.8119667118455228,0.0
1520,-1.543418947181984,0.0
1521,1.1258898967054847,0.0
1522,-0.5264924339356485,0.0
1523,0.24458360762334724,0.0
1524,-0.0830231861060148,0.0
1525,0.04547202852385236,0.0
1526,0.06697439813722435,0.0
1527,0.06541330087624785,0.0
1528,0.07172639306238592,0.0
1529,0.08937209511419578,0.0
1530,0.13124417450224268,0.0
1531,0.09806182193017336,0.0
1532,0.08039349708321267,0.0
1533,0.09571944227874203,0.0
1534,2.9309645828766824,0.0
1535,6.867231400664703,0.0
1536,-2.1814559724354807,0.0
1537,0.5724644538266483,0.0
1538,-0.0983008955270653,0.0
1539,-0.005870691819584269,0.0
1540,0.0095587261495007,0.0
1541,-0.026228267077099878,0.0
1542,0.019372274141566195,0.0
1543,0.004340280331061798,0.0
1544,0.06218537629383914,0.0
1545,-0.006253389506386625,0.0
1546,0.011737300911942222,0.0
1547,0.09085400731180077,0.0
1548,0.05962551061289133,0.0
1549,0.03286885652541302,0.0
1550,0.44370866668992204,0.0
1551,5.095162567669448,0.0
1552,4.502892393675386,0.0
1553,-2.878956138023807,0.0
1554,1.697671078070147,0.0
1555,-0.7519943209674839,0.0
1556,0.3097458420489728,0.0
1557,-0.008270803992428147,0.0
1558,0.06061319591856838,0.0
1559,-0.029501850131826744,0.0
1560,0.047884800052631134,0.0
1561,0.05135461336661727,0.0
1562,0.037064302251256516,0.0
1563,0.026805941216209345,0.0
1564,0.0745086576371878,0.0
1565,0.012086956368302423,0.0
1566,0.05251403745071498,0.0
1567,1.237490855228971,0.0
1568,6.627822885943572,0.0
1569,0.7699149406629372,0.0
1570,-1.5106240891411304,0.0
1571,1.055891663777899,0.0
1572,-0.5844874693396639,0.0
1573,0.18748302278080384,0.0
1574,-0.0417010491805737,0.0
1575,0.10927721799132976,0.0
1576,0.005954467241889258,0.0
1577,-0.017628378251239085,0.0
1578,0.04870278071783017,0.0
1579,0.05813837945995841,0.0
1580,-0.051290461308051816,0.0
1581,0.05264003548095745,0.0
1582,0.12607632979301497,0.0
1583,0.11390519334572236,0.0
1584,2.924920975792238,0.0
1585,6.695671745705741,0.0
1586,-2.2981434229081366,0.0
1587,0.6104893958249422,0.0
1588,-0.08800699822061954,0.0
1589,-0.013188203139903293,0.0
1590,-0.08873373306584721,0.0
1591,0.013504722958487925,0.0
1592,0.05370152973735688,0.0
1593,0.05753387628437209,0.0
1594,0.06745848027797612,0.0
1595,0.06683197833815598,0.0
1596,0.07589712037761157,0.0
1597,-0.0717351429892265,0.0
1598,0.10869947384560463,0.0
1599,-0.03869800125773759,0.0
1600,0.39992394514490764,0.0
1601,5.140086463786328,0.0
1602,4.461027425425358,0.0
1603,-2.8470525422367836,0.0
1604,1.7076569432340567,0.0
1605,-0.6787366662964469,0.0
1606,0.3873368983000911,0.0
1607,0.007827857642470792,0.0
1608,0.08510771393656419,0.0
1609,0.011498748702104267,0.0
1610,-0.04839546243189343,0.0
1611,0.04994973887061539,0.0
1612,0.0652359448819305,0.0
1613,-0.051348974920407936,0.0
1614,-0.059873613568932046,0.0
1615,0.06534413007667393,0.0
1616,-0.035750873959768906,0.0
1617,1.2268673763183382,0.0
1618,6.6757555697637025,0.0
1619,0.7549407294495097,0.0
1620,-1.5127533945651357,0.0
1621,1.085447198345478,0.0
1622,-0.41249855835066296,0.0
1623,0.27571665558399994,0.0
1624,-0.021484647703622576,0.0
1625,0.09810399502771945,0.0
1626,0.011192457357608473,0.0
1627,0.0658309743171564,0.0
1628,0.08316045397228308,0.0
1629,0.15332813678128043,0.0
1630,0.05154002056299498,0.0
1631,0.05905446954512532,0.0
1632,0.04499978406125339,0.0
1633,0.1841416750870147,0.0
1634,2.9587471086275836,0.0
1635,6.702710782614209,0.0
1636,-2.1975587264496586,0.0
1637,0.7346743292290211,0.0
1638,-0.05390053099985768,0.0
1639,0.09986750101201075,0.0
1640,0.06080547653813772,0.0
1641,0.05785880910465517,0.0
1642,0.07296875301623423,0.0
1643,0.054297021003038015,0.0
1644,-0.015894106292439335,0.0
1645,0.03371104561987925,0.0
1646,-0.02219951850771474,0.0
1647,-0.010330531040164355,0.0
1648,0.041857355767481265,0.0
1649,0.05808852875529971,0.0
1650,0.368435171235591,0.0
1651,4.93474553266268,0.0
1652,4.387010694237019,0.0
1653,-2.8650288654378793,0.0
1654,1.7134839770223815,0.0
1655,-0.7929429634440621,0.0
1656,0.31193427715511324,0.0
1657,-0.05806765676213334,0.0
1658,0.02406768332569854,0.0
1659,0.009260261769238496,0.0
1660,0.08824367229264855,0.0
1661,-0.10987820855473192,0.0
1662,-0.025401877423026825,0.0
1663,0.03269521199742624,0.0
1664,0.006814227185748841,0.0
1665,-0.0882197860785263,0.0
1666,0.04681581803033081,0.0
1667,1.2375101470911898,0.0
1668,6.769191861596169,0.0
1669,0.7424585350354325,0.0
1670,-1.448595608931176,0.0
1671,1.0859415132739203,0.0
1672,-0.6188551995367411,0.0
1673,0.1912785056821882,0.0
1674,-0.020097084177218318,0.0
1675,0.009341235438362452,0.0
1676,0.10151079502011771,0.0
1677,0.04971669881965841,0.0
1678,-0.009380894253438757,0.0
1679,-0.005809669498536126,0.0
1680,0.0028508885741310077,0.0
1681,0.03217530672819337,0.0
1682,0.007285304550694715,0.0
1683,-0.010482714492830988,0.0
1684,3.0014982398682126,0.0
1685,6.563630645344515,0.0
1686,-2.2351751155125554,0.0
1687,0.5163766867822928,0.0
1688,-0.21075606771765085,0.0
1689,0.006425538867262749,0.0
1690,-0.13461218565145677,0.0
1691,-0.16601782459942946,0.0
1692,0.010920226461411914,0.0
1693,-0.08025019078764892,0.0
1694,-0.1316638416454909,0.0
1695,-0.10043580151273146,0.0
1696,-0.043589474482641694,0.0
1697,-0.03158656599719915,0.0
1698,-0.06716008352940367,0.0
1699,-0.06984774777614472,0.0
1700,0.3089542789620701,0.0
1701,5.0256382137861255,0.0
1702,4.2317722513798,0.0
1703,-3.0371743358756733,0.0
1704,1.5528707957750159,0.0
1705,-0.7736800859036255,0.0
1706,0.46698168355825703,0.0
1707,-0.1218827363223753,0.0
1708,0.018342561105832298,0.0
1709,0.03782273354976709,0.0
1710,-0.07889505406009788,0.0
1711,-0.07777957635861393,0.0
1712,-0.12815951686152904,0.0
1713,-0.02565246036578624,0.0
1714,0.002272789858669407,0.0
1715,-0.061208073917120034,0.0
1716,-0.08624852437184768,0.0
1717,1.2432415896508628,0.0
1718,6.669347690853988,0.0
1719,0.6030828286367432,0.0
1720,-1.49012929135355,0.0
1721,1.0588520801152925,0.0
1722,-0.5578970788166279,0.0
1723,0.17308796469074825,0.0
1724,-0.11833216818236636,0.0
1725,-0.08440282124018814,0.0
1726,-0.062113290187744,0.0
1727,-0.06046553981347749,0.0
1728,-0.08079561950764533,0.0
1729,0.023016517680040677,0.0
1730,0.04840014169277494,0.0
1731,-0.06301593035046749,0.0
1732,-0.008039525776393771,0.0
1733,0.10911860593440334,0.0
1734,2.9511271208760985,0.0
1735,6.6749280854756785,0.0
1736,-2.3421518730138837,0.0
1737,0.5299817225862871,0.0
1738,-0.09170664321274591,0.0
1739,-0.05314318630666566,0.0
1740,-0.01275356783751003,0.0
1741,-0.06215573244654499,0.0
1742,-0.06251389581761535,0.0
1743,-0.014386900877675803,0.0
1744,-0.017822415050523226,0.0
1745,0.0011875712016324088,0.0
1746,-0.03308534617714739,0.0
1747,0.058024735927465466,0.0
1748,0.044486872090642865,0.0
1749,-0.004456383710644517,0.0
1750,0.4452497537885783,0.0
1751,5.08070819834594,0.0
1752,4.333111678080166,0.0
1753,-2.8356705769638793,0.0
1754,1.647163382708672,0.0
1755,-0.6233061378236469,0.0
1756,0.3530716055149532,0.0
1757,-0.061257866755967866,0.0
1758,0.0970110445109,0.0
1759,0.023703310424635998,0.0
1760,0.01839303266940025,0.0
1761,0.07427721445167719,0.0
1762,-0.003433879379400708,0.0
1763,-0.02600032471517815,0.0
1764,-0.011468722525603908,0.0
1765,0.04156047395423697,0.0
1766,0.04330677810531742,0.0
1767,1.3068008775650446,0.0
1768,6.649832627451276,0.0
1769,0.6393554831303997,0.0
1770,-1.4391971267202925,0.0
1771,0.9346157036316904,0.0
1772,-0.5561221774016156,0.0
1773,0.2600534025803144,0.0
1774,-0.0778628798249096,0.0
1775,-0.029380916188561694,0.0
1776,0.010201827404210773,0.0
1777,-0.06503911671212988,0.0
1778,0.04795903011504699,0.0
1779,-0.03552267326002259,0.0
1780,0.07389269881805735,0.0
1781,-0.03572859795422105,0.0
1782,0.11497482241546775,0.0
1783,0.06797480515031513,0.0
1784,2.949318623390531,0.0
1785,6.696382078510523,0.0
1786,-2.220507505666127,0.0
1787,0.5846152987035071,0.0
1788,-0.1120639266475462,0.0
1789,-0.009513219289619578,0.0
1790,0.008891555660190164,0.0
1791,0.000648840479424968,0.0
1792,-0.03011520226054288,0.0
1793,-0.02657844842264407,0.0
1794,0.016290456844204257,0.0
1795,0.019349162709019315,0.0
1796,-0.054813646206536275,0.0
1797,0.023823257825932004,0.0
1798,0.0780002160491752,0.0
1799,-0.0014605342171413165,0.0
1800,0.3996980179717988,0.0
1801,5.09768168398452,0.0
1802,4.206508912518379,0.0
1803,-2.802228768163985,0.0
1804,1.6297508413312194,0.0
1805,-0.7604013995326241,0.0
1806,0.360956795947447,0.0
1807,-0.11219402499158646,0.0
1808,0.10781802191727802,0.0
1809,0.00459639977704767,0.0
1810,-0.033254618789967876,0.0
1811,0.018699195634252597,0.0
1812,0.048920836445303095,0.0
1813,0.08272230416122148,0.0
1814,-0.027965694054559218,0.0
1815,0.03208384622447556,0.0
1816,0.019689111656517187,0.0
1817,1.2338012290815286,0.0
1818,6.783633756920057,0.0
1819,0.6380230000113176,0.0
1820,-1.471589777847588,0.0
1821,0.9794595709301386,0.0
1822,-0.46307776232344205,0.0
1823,0.20019709857326207,0.0
1824,-0.010780593797992018,0.0
1825,0.07893417929573729,0.0
1826,0.11176759965543792,0.0
1827,0.01237755696998151,0.0
1828,0.03413527936559519,0.0
1829,0.027781521260738934,0.0
1830,0.044690122161897404,0.0
1831,0.0069828963724282295,0.0
1832,0.06549795217641813,0.0
1833,0.006820877653270677,0.0
1834,3.0499713929942986,0.0
1835,6.660758430696211,0.0
1836,-2.3234865791470587,0.0
1837,0.7495086647453691,0.0
1838,-0.12159299666494927,0.0
1839,0.025083036512769826,0.0
1840,0.04911045588572817,0.0
1841,0.019202049232987527,0.0
1842,-0.0319595071705663,0.0
1843,-0.003545376072851084,0.0
1844,0.015071240783362853,0.0
1845,0.042018568225182185,0.0
1846,-0.04981749548220343,0.0
1847,-0.03880504794976518,0.0
1848,0.013411004786600506,0.0
1849,0.014907427938682013,0.0
1850,0.3924302251855411,0.0
1851,5.0985263273631585,0.0
1852,4.277370254653744,0.0
1853,-3.051062272729941,0.0
1854,1.657226583899602,0.0
1855,-0.7850757860862161,0.0
1856,0.27106925796889214,0.0
1857,-0.1735897818091361,0.0
1858,0.07518899738649433,0.0
1859,-0.027665294691867237,0.0
1860,-0.08327765543112392,0.0
1861,-0.078805084772254,0.0
1862,-0.02209346840869375,0.0
1863,-0.0685416656363978,0.0
1864,0.006375006271214553,0.0
1865,-0.019246418614555345,0.0
1866,-0.005615830995858653,0.0
1867,1.1654465933642078,0.0
1868,6.695929034404615,0.0
1869,0.6234946574191784,0.0
1870,-1.4915190257340298,0.0
1871,1.0400232403339595,0.0
1872,-0.551182034304828,0.0
1873,0.23686824409457155,0.0
1874,-0.15734546555796153,0.0
1875,0.000768733714947992,0.0
1876,-0.07919121227423091,0.0
1877,0.018946317039982407,0.0
1878,-0.008143636245239467,0.0
1879,0.008386173425543725,0.0
1880,0.02063178082128612,0.0
1881,-0.017006758562896948,0.0
1882,-0.02808852149603882,0.0
1883,0.0458894754603524,0.0
1884,2.9662710891893163,0.0
1885,6.502621066415115,0.0
1886,-2.2040008994243903,0.0
1887,0.5931724391744774,0.0
1888,-0.22390387416591417,0.0
1889,0.012113884280382244,0.0
1890,-0.06377138026618953,0.0
1891,-0.05534001480861527,0.0
1892,0.005982433491767775,0.0
1893,-0.1135925678875588,0.0
1894,-0.026996344576063244,0.0
1895,-0.051747088656929376,0.0
1896,-0.04352496892922367,0.0
1897,-0.0101342663074371,0.0
1898,-0.07429681177508085,0.0
1899,-0.06824060875410114,0.0
1900,0.3676316674635995,0.0
1901,5.015618025723666,0.0
1902,3.9977153946654527,0.0
1903,-2.8969763312738532,0.0
1904,1.5476026993849172,0.0
1905,-0.8736811179314534,0.0
1906,0.2680662393489587,0.0
1907,-0.1181266519754045,0.0
1908,-0.04789273875413893,0.0
1909,0.002449604353461164,0.0
1910,-0.05509308833035466,0.0
1911,0.004951779364518599,0.0
1912,-0.049392874884542776,0.0
1913,-0.016384828384226544,0.0
1914,-0.09183040411403992,0.0
1915,0.057706582706689276,0.0
1916,-0.030240644149593023,0.0
1917,1.2101257472211413,0.0
1918,6.698781180397346,0.0
1919,0.5945008896741275,0.0
1920,-1.4900362448100406,0.0
1921,0.9438851236790701,0.0
1922,-0.6017673975546997,0.0
1923,0.2117880384935488,0.0
1924,-0.07141061571140767,0.0
1925,-0.11540397108724311,0.0
1926,-0.0584824289365108,0.0
1927,-0.07702269048228771,0.0
1928,-0.09285493346748375,0.0
1929,-0.10035985066908053,0.0
1930,0.023126755098630172,0.0
1931,0.017772873475044075,0.0
1932,-0.01763257977275822,0.0
1933,0.01914869172549061,0.0
1934,2.9953342674491195,0.0
1935,6.592600598975984,0.0
1936,-2.3516473968794056,0.0
1937,0.6192796291081644,0.0
1938,-0.1263428484026272,0.0
1939,0.003912824355900898,0.0
1940,-0.07795895389994581,0.0
1941,-0.09301032146351156,0.0
1942,-0.004317387614078114,0.0
1943,-0.11978446454363648,0.0
1944,-0.051984294744257524,0.0
1945,-0.09377493049000307,0.0
1946,-0.011445099074201789,0.0
1947,0.049124446721590095,0.0
1948,-0.03910802453217413,0.0
1949,-0.07791740486499903,0.0
1950,0.39064662552752805,0.0
1951,5.139032473686364,0.0
1952,4.2029929167138365,0.0
1953,-2.8816883093872074,0.0
1954,1.6728845593357304,0.0
1955,-0.8659843848162072,0.0
1956,0.3597854171903208,0.0
1957,-0.19540723966604384,0.0
1958,0.15367183042479376,0.0
1959,-0.0917116570196927,0.0
1960,-0.12319885150693365,0.0
1961,0.048783235901021536,0.0
1962,-0.052895997899647176,0.0
1963,-0.08366372665693891,0.0
1964,-0.029001200945791495,0.0
1965,-0.015302461389177296,0.0
1966,-0.03926244886312141,0.0
1967,1.2576122305780992,0.0
1968,6.791884914210953,0.0
1969,0.5440323160165781,0.0
1970,-1.441780518959453,0.0
1971,1.009771529982003,0.0
1972,-0.5546308926516886,0.0
1973,0.15614989311774854,0.0
1974,0.026649473429136802,0.0
1975,0.058570760612838266,0.0
1976,0.0761904106524427,0.0
1977,-0.014478857368835533,0.0
1978,0.009960307688780298,0.0
1979,0.05211086486761442,0.0
1980,0.04997796229472271,0.0
1981,-0.05900169460278374,0.0
1982,0.1170093756536783,0.0
1983,0.13172638033092415,0.0
1984,3.025854969227013,0.0
1985,6.624558101336899,0.0
1986,-2.3667338341453026,0.0
1987,0.7631153018308966,0.0
1988,-0.18250386955235776,0.0
1989,0.005459329052822648,0.0
1990,0.07027295854050178,0.0
1991,0.06800185133839613,0.0
1992,0.012754809706320753,0.0
1993,-0.013695208256306655,0.0
1994,0.017715263779942675,0.0
1995,-0.07319906335485973,0.0
1996,-0.01666654233992297,0.0
1997,0.049543363409077626,0.0
1998,0.01866081019447325,0.0
1999,0.04803211378820521,0.0
2000,0.37824205399311744,0.0
2001,5.1604139340569635,0.0
2002,4.1194129179893535,0.0
2003,-2.9550979408099987,0.0
2004,1.6522075736481552,0.0
2005,-0.7634917287144217,0.0
2006,0.35926711942602957,0.0
2007,-0.05319549578016656,0.0
2008,0.04311257555123511,0.0
2009,0.11149631160284905,0.0
2010,0.015305933843242189,0.0
2011,0.1073915988730429,0.0
2012,0.04804430096008857,0.0
2013,0.09612477549244858,0.0
2014,0.05542868081414727,0.0
2015,0.07230958387627547,0.0
2016,0.0772044487131999,0.0
2017,1.3793011476502264,0.0
2018,6.867111914319642,0.0
2019,0.6911870924488229,0.0
2020,-1.249824246291381,0.0
2021,1.0733510083525766,0.0
2022,-0.4246973237441138,0.0
2023,0.2480538516308047,0.0
2024,-0.06313395479135783,0.0
2025,0.04474864010183765,0.0
2026,0.051968271203851425,0.0
2027,0.08821623011143184,0.0
2028,-0.0006341354376418334,0.0
2029,0.040772106164752284,0.0
2030,0.033331075673748635,0.0
2031,0.03243470359426454,0.0
2032,-0.047240760242020716,0.0
2033,0.11961113082745412,0.0
2034,3.06571145474647,0.0
2035,6.494546231701906,0.0
2036,-2.4428043564961817,0.0
2037,0.7403684058991765,0.0
2038,-0.18858799510159083,0.0
2039,-0.021014602081905837,0.0
2040,-0.009065291357670528,0.0
2041,-0.04213786696631631,0.0
2042,-0.03482561724446531,0.0
2043,-0.04663700820495367,0.0
2044,-0.015142357539963076,0.0
2045,0.04034449090398148,0.0
2046,0.002812176182388451,0.0
2047,-0.01988271093934877,0.0
2048,0.024622041109727322,0.0
2049,-0.12684120173654712,0.0
2050,0.3942940152279353,0.0
2051,5.058055323272428,0.0
2052,4.032709616055501,0.0
2053,-2.8284627106056868,0.0
2054,1.6437386572703083,0.0
2055,-0.8469451301613057,0.0
2056,0.40458878648367663,0.0
2057,-0.12707457767971325,0.0
2058,0.03161388243175819,0.0
2059,0.09901704671065753,0.0
2060,0.10843929789010737,0.0
2061,0.07616160436988767,0.0
2062,0.13689219900552813,0.0
2063,0.1634156412130231,0.0
2064,0.14715583931373696,0.0
2065,0.12404741363041445,0.0
2066,0.04646187661327476,0.0
2067,1.3357727779657012,0.0
2068,6.789820715913549,0.0
2069,0.5205790881640964,0.0
2070,-1.365634294738215,0.0
2071,1.0680546456035032,0.0
2072,-0.5093747286989797,0.0
2073,0.2466206863193679,0.0
2074,-0.015094865118030258,0.0
2075,-0.024869604853892176,0.0
2076,0.008523377998504467,0.0
2077,-0.0990787767939959,0.0
2078,-0.044170170263782546,0.0
2079,-0.032588820099015675,0.0
2080,0.023392578515536135,0.0
2081,0.02460128329362161,0.0
2082,-0.01581994619772899,0.0
2083,0.05589873897094406,0.0
2084,2.9720262277217917,0.0
2085,6.501072057992221,0.0
2086,-2.4105609493470546,0.0
2087,0.5793277886263151,0.0
2088,-0.2078186814725751,0.0
2089,0.013139462573683262,0.0
2090,0.04531168657716092,0.0
2091,0.0012212517048515482,0.0
2092,0.02506485801825173,0.0
2093,0.055513867329466414,0.0
2094,0.11471281364033467,0.0
2095,0.09855907789097612,0.0
2096,-0.013994745016246667,0.0
2097,-0.04902516612078506,0.0
2098,0.01914892357272639,0.0
2099,-0.005855409110126197,0.0
2100,0.41823876055580683,0.0
2101,5.159952720414812,0.0
2102,4.153423101114345,0.0
2103,-2.751556880726625,0.0
2104,1.5885292289775355,0.0
2105,-0.8044770162911195,0.0
2106,0.2657195989903476,0.0
2107,-0.08020740089386552,0.0
2108,-0.09677504302166037,0.0
2109,-0.008806854207605887,0.0
2110,0.08561185621197234,0.0
2111,-0.02534069086794386,0.0
2112,-0.015914292562518362,0.0
2113,0.028629512367018228,0.0
2114,0.07714744730931279,0.0
2115,0.009897699765711246,0.0
2116,0.07923135714006971,0.0
2117,1.343515018684754,0.0
2118,6.693315752147278,0.0
2119,0.49984379040459614,0.0
2120,-1.3673722544541207,0.0
2121,1.0086212525233673,0.0
2122,-0.43627624610598903,0.0
2123,0.23277970219994842,0.0
2124,-0.07277799986586275,0.0
2125,0.008616002119037767,0.0
2126,0.004213157372558028,0.0
2127,-0.15068922294349701,0.0
2128,-0.12326592351216983,0.0
2129,-0.06618543528204596,0.0
2130,-0.014186418087413916,0.0
2131,0.015199024552414217,0.0
2132,0.019281008047117965,0.0
2133,-0.022418100010699618,0.0
2134,2.95653263353517,0.0
2135,6.504960868076198,0.0
2136,-2.4864611543410797,0.0
2137,0.7539399160793777,0.0
2138,-0.16662587812386412,0.0
2139,0.09952474131659504,0.0
2140,0.075803800059265,0.0
2141,-0.011939479637799403,0.0
2142,0.027613252184584262,0.0
2143,-0.03319651311352316,0.0
2144,0.03850003839740346,0.0
2145,0.07043261895074396,0.0
2146,-0.017199402077442416,0.0
2147,0.10977122836054923,0.0
2148,0.05523722016234865,0.0
2149,0.011136976133268119,0.0
2150,0.3950622552831638,0.0
2151,5.212526113375379,0.0
2152,4.150935409115458,0.0
2153,-2.7698507529824314,0.0
2154,1.6256259637935084,0.0
2155,-0.7505248653724854,0.0
2156,0.36018698615009953,0.0
2157,-0.13144107541417108,0.0
2158,-0.08546675743774759,0.0
2159,0.01701385263014521,0.0
2160,0.016180515531016244,0.0
2161,-0.0032151103796093684,0.0
2162,-0.01790235078420631,0.0
2163,-0.05053984384023231,0.0
2164,-0.02205715568301469,0.0
2165,-0.04612636594665282,0.0
2166,-0.003679213612251604,0.0
2167,1.283442408505113,0.0
2168,6.761592092884932,0.0
2169,0.5489203967326418,0.0
2170,-1.4976474440334282,0.0
2171,0.9878815323850861,0.0
2172,-0.44946429344690697,0.0
2173,0.20053899682733736,0.0
2174,-0.06840824252970998,0.0
2175,0.10260096948383161,0.0
2176,0.018394793881109178,0.0
2177,-0.033156315571858025,0.0
2178,-0.008417915173116642,0.0
2179,-0.05989890842648492,0.0
2180,0.039897123178975744,0.0
2181,-0.02254746477305008,0.0
2182,0.05893510455338066,0.0
2183,0.033347726010884884,0.0
2184,3.039225277680241,0.0
2185,6.464802661691883,0.0
2186,-2.4338299040745066,0.0
2187,0.6882977038354187,0.0
2188,-0.18582092649964932,0.0
2189,0.01756811101499997,0.0
2190,-0.11002792002296305,0.0
2191,-0.09244980510137914,0.0
2192,0.008671274125209929,0.0
2193,0.02800560101943294,0.0
2194,0.01745524191517762,0.0
2195,-0.01110340798912211,0.0
2196,-0.07344790128623921,0.0
2197,0.020944278796422182,0.0
2198,0.025091125435643038,0.0
2199,-0.02661476777261018,0.0
2200,0.433946389391317,0.0
2201,5.2319643037632,0.0
2202,4.1937975798116405,0.0
2203,-2.9053388234383677,0.0
2204,1.5694274116934648,0.0
2205,-0.7260833843905381,0.0
2206,0.3700534554915497,0.0
2207,-0.14577962655537186,0.0
2208,0.003993264591879046,0.0
2209,-0.0048829526186070634,0.0
2210,0.015267226471978843,0.0
2211,0.019523264979384423,0.0
2212,0.003378836741159246,0.0
2213,0.11530767985387588,0.0
2214,-0.0613644636585466,0.0
2215,-0.05196419052427868,0.0
2216,0.0014746205595028853,0.0
2217,1.3208315128987764,0.0
2218,6.771007368901716,0.0
2219,0.4433126050802651,0.0
2220,-1.429950879939591,0.0
2221,1.0145922946421273,0.0
2222,-0.5170611084537575,0.0
2223,0.14994293995997665,0.0
2224,-0.07617871843978163,0.0
2225,-0.004471617301275991,0.0
2226,0.01625434649714167,0.0
2227,0.030596953092376186,0.0
2228,0.1087280780984014,0.0
2229,-0.04872080125438199,0.0
2230,-0.03396892272152737,0.0
2231,0.013397577784609233,0.0
2232,-0.06871968684915801,0.0
2233,0.03270195251419607,0.0
2234,3.0394106641157306,0.0
2235,6.583818761916829,0.0
2236,-2.4018198116724068,0.0
2237,0.7425645992275466,0.0
2238,-0.11275173442794371,0.0
2239,0.10393798928939113,0.0
2240,0.011977126514541352,0.0
2241,-0.019580148799752596,0.0
2242,-0.006090301894988062,0.0
2243,-0.09129968955597648,0.0
2244,-0.03320071555496793,0.0
2245,0.0011997082863104015,0.0
2246,0.03999418624208607,0.0
2247,-0.041344021755781155,0.0
2248,-0.0917576875250105,0.0
2249,0.015603952894945615,0.0
2250,0.4245249270505732,0.0
2251,5.147053251489885,0.0
2252,4.023669666018678,0.0
2253,-2.9075656831896124,0.0
2254,1.5059131125378902,0.0
2255,-0.7756151440744474,0.0
2256,0.28982759431537086,0.0
2257,-0.17433556765381883,0.0
2258,0.04251625423965888,0.0
2259,-0.039958339696357606,0.0
2260,0.004763842123434808,0.0
2261,-0.05322607798642874,0.0
2262,0.010762145761198515,0.0
2263,-0.026852870893243844,0.0
2264,-0.023774114086467495,0.0
2265,-0.044679574995646607,0.0
2266,0.023006638024672905,0.0
2267,1.4304244115826312,0.0
2268,6.800970010052035,0.0
2269,0.3657728967505388,0.0
2270,-1.3795847547560047,0.0
2271,0.9470170195545745,0.0
2272,-0.6916823918834492,0.0
2273,0.13073538425487669,0.0
2274,-0.12513987783390923,0.0
2275,0.0166886491528753,0.0
2276,0.005597586051096205,0.0
2277,0.03184669146374681,0.0
2278,-0.06454578420822944,0.0
2279,-0.042930315767047436,0.0
2280,0.032312063891660796,0.0
2281,-0.05696959299346927,0.0
2282,-0.04693386355768682,0.0
2283,0.10511177158866092,0.0
2284,3.102584965168646,0.0
2285,6.492271422247564,0.0
2286,-2.4884839102013285,0.0
2287,0.6548763925159606,0.0
2288,-0.16980644249103177,0.0
2289,0.07400044197764852,0.0
2290,-0.029874490027467858,0.0
2291,0.0557504499835647,0.0
2292,-0.011322788039669214,0.0
2293,-0.038459334552496866,0.0
2294,0.05985695311734925,0.0
2295,-0.010149150346218072,0.0
2296,-0.05706743617561092,0.0
2297,-0.014142817475218014,0.0
2298,-0.015623496066654294,0.0
2299,0.11631366466564866,0.0
2300,0.4003770120464621,0.0
2301,5.229002159031237,0.0
2302,3.9847191289450983,0.0
2303,-2.9253658531199793,0.0
2304,1.5489235904350331,0.0
2305,-0.7980023044156397,0.0
2306,0.3024187309212647,0.0
2307,-0.22424375097426413,0.0
2308,0.022518302874126574,0.0
2309,-0.13028659892019256,0.0
2310,0.01156606131713464,0.0
2311,-0.08701362640065394,0.0
2312,-0.026610408274555727,0.0
2313,-0.034047961504642114,0.0
2314,-0.053188180793439996,0.0
2315,-0.06977536007860233,0.0
2316,-0.04290961767636561,0.0
2317,1.3064434929897544,0.0
2318,6.806540781519409,0.0
2319,0.4558238824792524,0.0
2320,-1.291935932336232,0.0
2321,0.8880125445414688,0.0
2322,-0.4978282784643321,0.0
2323,0.17314674803989735,0.0
2324,-0.08554306306881854,0.0
2325,0.005650803708817912,0.0
2326,0.014342115467529813,0.0
2327,-0.04384521273441548,0.0
2328,0.03411299842341571,0.0
2329,0.014482064668751737,0.0
2330,-0.03141877856771923,0.0
2331,-0.002171375965551014,0.0
2332,0.02920556742478861,0.0
2333,0.1146834356965821,0.0
2334,3.089278667704757,0.0
2335,6.532352389257065,0.0
2336,-2.4534330304437817,0.0
2337,0.6884200316656247,0.0
2338,-0.2509821682493293,0.0
2339,-0.008970299134522353,0.0
2340,-0.06598710076983919,0.0
2341,0.049417786835860254,0.0
2342,-0.020382151036171237,0.0
2343,-0.036573429021552716,0.0
2344,0.039289565654784975,0.0
2345,-0.0369219695783502,0.0
2346,0.013371163394992969,0.0
2347,-0.071434072250083,0.0
2348,0.12858604966604453,0.0
2349,-0.06821859185089874,0.0
2350,0.5647100721838888,0.0
2351,5.376176103375802,0.0
2352,4.156025262632527,0.0
2353,-2.8176476963830908,0.0
2354,1.6481288982158513,0.0
2355,-0.686634243819506,0.0
2356,0.3415802617202371,0.0
2357,-0.17134755728332957,0.0
2358,0.07745821661199917,0.0
2359,0.03222526045370512,0.0
2360,0.06303122733325955,0.0
2361,-0.05471249228596249,0.0
2362,-0.04596808135447201,0.0
2363,-0.0880715888663034,0.0
2364,-0.06958157162388821,0.0
2365,-0.01376214833740868,0.0
2366,-0.020893424599006276,0.0
2367,1.274654367308271,0.0
2368,6.763767601186116,0.0
2369,0.35024374582459983,0.0
2370,-1.388308069695117,0.0
2371,0.8757674835323268,0.0
2372,-0.5095695320535892,0.0
2373,0.09366042931243479,0.0
2374,-0.04808105989325726,0.0
2375,-0.03364323614912296,0.0
2376,0.025221004670047793,0.0
2377,-0.03911476898404655,0.0
2378,-0.03530303556967701,0.0
2379,-0.02948661569615607,0.0
2380,-0.045401262242938535,0.0
2381,-0.08807245046081855,0.0
2382,-0.052066739633874384,0.0
2383,0.02747493840172252,0.0
2384,3.0562082514402626,0.0
2385,6.438025892781597,0.0
2386,-2.5723344831448594,0.0
2387,0.7893567965620687,0.0
2388,-0.30255631078626455,0.0
2389,-0.03862528198801071,0.0
2390,-0.13050402439888953,0.0
2391,0.04268024866768461,0.0
2392,-0.10558768305790532,0.0
2393,-0.14937441116949263,0.0
2394,0.015692147098910675,0.0
2395,-0.0762502620514539,0.0
2396,-0.0642774669414511,0.0
2397,0.032763996766778276,0.0
2398,0.006171935486593762,0.0
2399,-0.0970974278756786,0.0
2400,0.434406879551107,0.0
2401,5.17066282572392,0.0
2402,3.9052066388219746,0.0
2403,-2.9095223565855814,0.0
2404,1.6459808124129647,0.0
2405,-0.8606705948688185,0.0
2406,0.28191467789866087,0.0
2407,-0.11156461693494164,0.0
2408,0.00944935789387924,0.0
2409,-0.009752234891520741,0.0
2410,-0.07133877396030101,0.0
2411,-0.12394384110970072,0.0
2412,0.042694613266378585,0.0
2413,0.014214002588344125,0.0
2414,0.10025286261505396,0.0
2415,0.0222519784865996,0.0
2416,-0.04155746883163058,0.0
2417,1.3865398188487215,0.0
2418,6.890244203162171,0.0
2419,0.3153093303752717,0.0
2420,-1.3451484514636147,0.0
2421,0.9140595095944627,0.0
2422,-0.557630235990492,0.0
2423,0.2787105189539504,0.0
2424,-0.09766068512176926,0.0
2425,0.03572384553422729,0.0
2426,0.012083111914712827,0.0
2427,-0.05620486377250141,0.0
2428,-0.043453094769837136,0.0
2429,0.022696519155907452,0.0
2430,-0.08326026200655177,0.0
2431,-0.039770153185870676,0.0
2432,-0.04912879598540289,0.0
2433,0.09584688145029979,0.0
2434,3.0208117968806323,0.0
2435,6.404025453303013,0.0
2436,-2.6208043892103006,0.0
2437,0.6821941411775048,0.0
2438,-0.2468253889290949,0.0
2439,0.01785638478658576,0.0
2440,-0.1133712000398952,0.0
2441,0.002899325344046501,0.0
2442,0.012039832398688631,0.0
2443,-0.03739753175227299,0.0
2444,0.005843592421288669,0.0
2445,0.050833647167223064,0.0
2446,0.011680846362689673,0.0
2447,0.07093355275929401,0.0
2448,0.08310810610787432,0.0
2449,0.0690886251263606,0.0
2450,0.39785930835495814,0.0
2451,5.264424863316693,0.0
2452,3.9545954049029253,0.0
2453,-2.806311652053728,0.0
2454,1.5347532864089923,0.0
2455,-0.8783551545867091,0.0
2456,0.40352571220227973,0.0
2457,-0.10659828381603156,0.0
2458,-0.010625045630177653,0.0
2459,0.05883183624448954,0.0
2460,0.02789095636125014,0.0
2461,-0.058227275804355196,0.0
2462,-0.021212129060627555,0.0
2463,-0.04623213660974196,0.0
2464,0.011405364940504845,0.0
2465,0.03778896625149304,0.0
2466,0.050225920664991895,0.0
2467,1.3952127533150076,0.0
2468,6.772182538580687,0.0
2469,0.3200710607148597,0.0
2470,-1.2973694152121813,0.0
2471,0.9341560142124958,0.0
2472,-0.4899142832632158,0.0
2473,0.21240105519245592,0.0
2474,-0.16482380923507406,0.0
2475,-0.03358306925133316,0.0
2476,-0.02795418644731915,0.0
2477,0.011628337480955115,0.0
2478,-0.052603976039658475,0.0
2479,-0.0727381886033986,0.0
2480,-0.01822035449765866,0.0
2481,-0.0073441327561926326,0.0
2482,-0.06499410631770355,0.0
2483,0.05639823599409076,0.0
2484,3.1490482752629503,0.0
2485,6.497331093481448,0.0
2486,-2.5062210177456485,0.0
2487,0.7997612543685989,0.0
2488,-0.21041518156755257,0.0
2489,0.09505150560462967,0.0
2490,0.02038202592916836,0.0
2491,0.06767043223823903,0.0
2492,0.06136572559384834,0.0
2493,0.04698030265376939,0.0
2494,0.07426775233561159,0.0
2495,0.0335515858039849,0.0
2496,0.09035154970716328,0.0
2497,0.021527143523585597,0.0
2498,-0.04454765210198236,0.0
2499,0.02133323292603332,0.0
2500,0.5234445032460333,0.0
2501,5.224466479714861,0.0
2502,3.9736138379008548,0.0
2503,-2.8899747969058893,0.0
2504,1.596895874767507,0.0
2505,-0.8432530173929282,0.0
2506,0.2216153611448102,0.0
2507,-0.034697861150623,0.0
2508,-0.010969351133027092,0.0
2509,0.08245586087810196,0.0
2510,-0.04501862811840135,0.0
2511,-0.034213025676159026,0.0
2512,0.0644249150528404,0.0
2513,-0.04992173411266796,0.0
2514,0.0006884374474580412,0.0
2515,0.011850154577501232,0.0
2516,-0.040734799502624604,0.0
2517,1.4153223181502566,0.0
2518,6.858585798731144,0.0
2519,0.3555377516160694,0.0
2520,-1.253442278329224,0.0
2521,1.0204286239095368,0.0
2522,-0.5414499536522944,0.0
2523,0.17576476604453597,0.0
2524,-0.132447793784906,0.0
2525,0.08113117068646819,0.0
2526,0.026207326910446152,0.0
2527,-0.06203659833726525,0.0
2528,-0.08597737125962593,0.0
2529,-0.06361353071306576,0.0
2530,0.04364258517499983,0.0
2531,0.05680835242986593,0.0
2532,-0.08424097915420103,0.0
2533,0.10460374414844487,0.0
2534,3.0813369592206636,0.0
2535,6.487594348991662,0.0
2536,-2.499264268242154,0.0
2537,0.8080812900598341,0.0
2538,-0.1958883688168259,0.0
2539,0.1572034177153822,0.0
2540,-0.003236209038221822,0.0
2541,-0.03914045127134942,0.0
2542,0.14548169910800043,0.0
2543,0.06997828079441354,0.0
2544,-0.0009667992565295935,0.0
2545,0.07396479079633342,0.0
2546,0.09154279271742004,0.0
2547,0.06268844943048789,0.0
2548,0.04625621104838187,0.0
2549,0.015543167827748682,0.0
2550,0.47490365598196066,0.0
2551,5.224320486531164,0.0
2552,3.9898288435301237,0.0
2553,-2.8888638587868223,0.0
2554,1.573839569327137,0.0
2555,-0.8136350278228089,0.0
2556,0.4273878388661038,0.0
2557,-0.07012524598151448,0.0
2558,-0.02492820974347583,0.0
2559,0.0023213871279427548,0.0
2560,-0.013972256925984618,0.0
2561,0.048457274138826154,0.0
2562,-0.01255567458757205,0.0
2563,0.08093822597682443,0.0
2564,0.13830331264608978,0.0
2565,-0.0341019563872499,0.0
2566,0.002188191314503124,0.0
2567,1.404892827137038,0.0
2568,6.811901247865522,0.0
2569,0.26974117795553476,0.0
2570,-1.2105577517840365,0.0
2571,0.8402055579120701,0.0
2572,-0.4883160254445365,0.0
2573,0.06691082145393622,0.0
2574,-0.00964322396447688,0.0
2575,-0.007186909131744617,0.0
2576,0.003024264983733052,0.0
2577,-0.009283747107174549,0.0
2578,-0.02012051267550121,0.0
2579,-0.05110330182015468,0.0
2580,-0.0523732653985203,0.0
2581,-0.041623368274561076,0.0
2582,-0.09187258888701627,0.0
2583,0.010653963868581237,0.0
2584,3.035214360814744,0.0
2585,6.390931521254434,0.0
2586,-2.596033409940901,0.0
2587,0.7127998655961494,0.0
2588,-0.2325612258534812,0.0
2589,0.030945137934119973,0.0
2590,-0.033683433623410385,0.0
2591,-0.025717190842875916,0.0
2592,0.0003977157744050157,0.0
2593,0.030236037509719697,0.0
2594,0.01734298727208868,0.0
2595,-0.0560091478319685,0.0
2596,0.03315295826400076,0.0
2597,0.050388583524084415,0.0
2598,0.049941684149482454,0.0
2599,-0.04075390218880961,0.0
2600,0.46200979597085584,0.0
2601,5.308920956822356,0.0
2602,3.9615610940471644,0.0
2603,-2.81176278646806,0.0
2604,1.6409069138002488,0.0
2605,-0.7094747035924296,0.0
2606,0.3299904901826537,0.0
2607,-0.06309853173164431,0.0
2608,0.06421603891230135,0.0
2609,0.003101593606676512,0.0
2610,-0.10129253283878753,0.0
2611,-0.023067425803628663,0.0
2612,0.1275124030919731,0.0
2613,-0.018629722577257736,0.0
2614,0.05633358773179965,0.0
2615,0.009891656984316625,0.0
2616,-0.05821340466943019,0.0
2617,1.2930386624567984,0.0
2618,6.853127924988941,0.0
2619,0.2218447940892708,0.0
2620,-1.3602614936027135,0.0
2621,0.8170397516601351,0.0
2622,-0.600638336191709,0.0
2623,0.12296456192990528,0.0
2624,-0.07860328628013494,0.0
2625,-0.05405717371151142,0.0
2626,-0.05407874263660588,0.0
2627,-0.014501525084100318,0.0
2628,-0.020661850114014686,0.0
2629,0.01492798243621853,0.0
2630,0.03512242178854475,0.0
2631,-0.015017920721916694,0.0
2632,-0.03938043800749022,0.0
2633,0.18964453156134475,0.0
2634,3.2005002852107984,0.0
2635,6.4953361828380185,0.0
2636,-2.4814144036214634,0.0
2637,0.8854737567395244,0.0
2638,-0.23944322470377508,0.0
2639,0.025915060773489193,0.0
2640,-0.06985423042111852,0.0
2641,-0.03481988570767818,0.0
2642,-0.06133049490017465,0.0
2643,-0.017301610496030694,0.0
2644,0.011673712359950687,0.0
2645,-0.04769868252554092,0.0
2646,-0.0641740617177071,0.0
2647,-0.0051497995770641725,0.0
2648,-0.027203972941450168,0.0
2649,-0.06591309358833373,0.0
2650,0.45190149016785564,0.0
2651,5.3121335525528695,0.0
2652,3.924268268581039,0.0
2653,-2.805653623997094,0.0
2654,1.5459578265288885,0.0
2655,-0.753961450466158,0.0
2656,0.2808583710091555,0.0
2657,-0.15380293515400548,0.0
2658,-0.014435748493233216,0.0
2659,-0.03876112655367954,0.0
2660,-0.11554408651705969,0.0
2661,-0.11035003051548298,0.0
2662,-0.00711578724595633,0.0
2663,0.0004513190821509999,0.0
2664,0.009199897115425702,0.0
2665,0.0034886183782910467,0.0
2666,-0.01062164739381157,0.0
2667,1.4110632975927286,0.0
2668,6.874890889127925,0.0
2669,0.2882333706561345,0.0
2670,-1.282804711901685,0.0
2671,1.0470323344649413,0.0
2672,-0.44981709953376575,0.0
2673,0.21518548416224592,0.0
2674,-0.037848833547433486,0.0
2675,0.00594278318077208,0.0
2676,-0.019361000891991453,0.0
2677,0.0937789809431216,0.0
2678,-0.016030199830215468,0.0
2679,-0.023629537988151362,0.0
2680,-0.03895390997986246,0.0
2681,0.03336134462007577,0.0
2682,-0.07772816593432279,0.0
2683,0.045167720712565085,0.0
2684,3.174429248990309,0.0
2685,6.350700613040603,0.0
2686,-2.5462779619327454,0.0
2687,0.9376213056198603,0.0
2688,-0.2988725133624447,0.0
2689,0.06804048271571653,0.0
2690,-0.04924673831861869,0.0
2691,0.04179682697997963,0.0
2692,-0.058096561597316805,0.0
2693,0.024966391011172165,0.0
2694,0.06227384998690691,0.0
2695,-0.0020513783007574666,0.0
2696,-0.10690591974046283,0.0
2697,-0.06193827711274312,0.0
2698,-0.007044743546999348,0.0
2699,0.05043248751223346,0.0
2700,0.5547608479021735,0.0
2701,5.351621354138726,0.0
2702,3.95416036078502,0.0
2703,-2.889318232283272,0.0
2704,1.6155630995530477,0.0
2705,-0.8363470095559845,0.0
2706,0.387415100307643,0.0
2707,-0.10748739387491207,0.0
2708,-0.02422913843694805,0.0
2709,0.03102472449577659,0.0
2710,0.08845351294556805,0.0
2711,-0.0006311064566675703,0.0
2712,-0.029352496246513544,0.0
2713,0.02340671883315416,0.0
2714,-0.11510787226312562,0.0
2715,0.06648381683362871,0.0
2716,0.06823575042991853,0.0
2717,1.4624497770393867,0.0
2718,6.835907198260485,0.0
2719,0.17328724015568053,0.0
2720,-1.241948634782826,0.0
2721,0.9151239740760228,0.0
2722,-0.40772625298747184,0.0
2723,0.17107146575828858,0.0
2724,-0.12874164278848113,0.0
2725,0.01143217589516106,0.0
2726,-0.011513166911208648,0.0
2727,0.03938555014393783,0.0
2728,0.04122586995178511,0.0
2729,0.0216528220040592,0.0
2730,-0.050552767548139005,0.0
2731,0.05831503224935238,0.0
2732,-0.0806537295934235,0.0
2733,0.08808889747294406,0.0
2734,3.238661401241959,0.0
2735,6.315302900062849,0.0
2736,-2.6036475055884427,0.0
2737,0.8873218357636299,0.0
2738,-0.18050316051919907,0.0
2739,0.045580822011836455,0.0
2740,0.049464080756270776,0.0
2741,-0.019146980450719088,0.0
2742,0.032332978047234395,0.0
2743,0.04084258586201065,0.0
2744,-0.027583270813149798,0.0
2745,-0.07555892871316595,0.0
2746,-0.0007265374642851652,0.0
2747,0.002164929517597756,0.0
2748,-0.0003469009073067131,0.0
2749,-0.1015875224714082,0.0
2750,0.47578257397513,0.0
2751,5.251367043017685,0.0
2752,3.7609733214524637,0.0
2753,-2.937283246042484,0.0
2754,1.4952768751243057,0.0
2755,-0.9143166036586735,0.0
2756,0.3807086842308879,0.0
2757,-0.19391199497834463,0.0
2758,-0.03606294123290683,0.0
2759,0.09045404040530641,0.0
2760,-0.05119362716858142,0.0
2761,-0.0784182047584919,0.0
2762,0.07983268208418018,0.0
2763,-0.010780209298141235,0.0
2764,0.027777157596776576,0.0
2765,0.07520540323565192,0.0
2766,-0.05961313942472295,0.0
2767,1.4601042212345603,0.0
2768,6.874736640858548,0.0
2769,0.30562503283240994,0.0
2770,-1.151836323894969,0.0
2771,0.9846468920666643,0.0
2772,-0.4406306908554809,0.0
2773,0.1939100595415969,0.0
2774,-0.08974779368000665,0.0
2775,0.010445583994568531,0.0
2776,0.04409267512154937,0.0
2777,-0.030653155525013808,0.0
2778,-0.061219849683687724,0.0
2779,-0.010466851174703095,0.0
2780,0.04631709477088854,0.0
2781,0.11890473156158689,0.0
2782,0.03542287349898451,0.0
2783,0.0950388884660878,0.0
2784,3.2569194204239937,0.0
2785,6.546146988051939,0.0
2786,-2.62127287437016,0.0
2787,0.831390482110186,0.0
2788,-0.22583788724840062,0.0
2789,-0.02101768527336846,0.0
2790,-0.012297270004147685,0.0
2791,0.09044948560357512,0.0
2792,-0.018893542605314027,0.0
2793,-0.01753072581998674,0.0
2794,-0.02886052953353237,0.0
2795,0.0694689517877259,0.0
2796,-0.015214035744277224,0.0
2797,-0.061910405350316555,0.0
2798,-0.08491979888740293,0.0
2799,0.015646450235513695,0.0
2800,0.40696702238107013,0.0
2801,5.401112564477678,0.0
2802,3.744224387749778,0.0
2803,-2.8015606957579893,0.0
2804,1.6850718031125929,0.0
2805,-0.7891551172866991,0.0
2806,0.38316147027093417,0.0
2807,-0.15025372379971508,0.0
2808,0.07888037056297831,0.0
2809,0.029763539790740534,0.0
2810,-0.018201291935245813,0.0
2811,-0.01585573712805131,0.0
2812,0.025594376169258963,0.0
2813,0.018065116214316335,0.0
2814,0.013878476766155633,0.0
2815,-0.05251541841197717,0.0
2816,-0.03439291630363012,0.0
2817,1.5182261535780535,0.0
2818,6.858377066251892,0.0
2819,0.23054517228357066,0.0
2820,-1.1927571199961617,0.0
2821,0.9262792874121006,0.0
2822,-0.4012840873441938,0.0
2823,0.17735969600562865,0.0
2824,0.016034198300202585,0.0
2825,0.0600159189918727,0.0
2826,0.03025408243069356,0.0
2827,0.0017675000413067252,0.0
2828,-0.027446997652172567,0.0
2829,0.0005684380029062326,0.0
2830,-0.018374249589230018,0.0
2831,0.06635690747429207,0.0
2832,-0.08079788899582657,0.0
2833,0.019218559178348624,0.0
2834,3.169453944291584,0.0
2835,6.460650433356302,0.0
2836,-2.6299007865115027,0.0
2837,0.8983115717781069,0.0
2838,-0.30717708043145225,0.0
2839,0.0959229578826989,0.0
2840,-0.056190110029627496,0.0
2841,0.002867383105014762,0.0
2842,-0.08520976273539149,0.0
2843,0.029448504790454005,0.0
2844,-0.025512383225598158,0.0
2845,0.027204318824328343,0.0
2846,0.00018970798340910058,0.0
2847,-0.05866920446611421,0.0
2848,-0.011158458581472942,0.0
2849,-0.04450767315791007,0.0
2850,0.5262794946490851,0.0
2851,5.414426774200741,0.0
2852,3.6747854209873685,0.0
2853,-2.8701859589084107,0.0
2854,1.5925817592599247,0.0
2855,-0.8559301821278336,0.0
2856,0.3257643517371424,0.0
2857,-0.07575266946570482,0.0
2858,0.08757483420333034,0.0
2859,-0.08008874783746031,0.0
2860,-0.05846663179399827,0.0
2861,-0.11318416794529773,0.0
2862,0.0619795730217971,0.0
2863,0.013001824527229365,0.0
2864,0.008548425658581098,0.0
2865,0.03260076362750049,0.0
2866,0.02583602754391959,0.0
2867,1.4676740945532234,0.0
2868,6.854953448542275,0.0
2869,0.1622737355436149,0.0
2870,-1.1683195430596938,0.0
2871,0.9130660146040898,0.0
2872,-0.5033763632329962,0.0
2873,0.18212767240755984,0.0
2874,0.02016913267345414,0.0
2875,0.13744811331648096,0.0
2876,0.03803918139953992,0.0
2877,-0.030963024651633225,0.0
2878,0.011695912068405399,0.0
2879,-0.02539644554354449,0.0
2880,0.021844281646225323,0.0
2881,0.02495226119422626,0.0
2882,0.033774344564471426,0.0
2883,0.14045230304446388,0.0
2884,3.2887796953910793,0.0
2885,6.398219765438093,0.0
2886,-2.5547994823523696,0.0
2887,0.9185953708583549,0.0
2888,-0.22975096195908154,0.0
2889,0.04128248982406915,0.0
2890,0.005526198231478527,0.0
2891,0.039717091090326465,0.0
2892,-0.016412868691460816,0.0
2893,0.018661246362172257,0.0
2894,-0.0011904980732495426,0.0
2895,-0.06255033478655056,0.0
2896,0.09938150723784026,0.0
2897,0.01545600841294302,0.0
2898,0.09550028964973924,0.0
2899,-0.027360365585335555,0.0
2900,0.49647535263089065,0.0
2901,5.349169578294387,0.0
2902,3.8203587402943815,0.0
2903,-2.8608966512998757,0.0
2904,1.6195585317074852,0.0
2905,-0.7807203604168337,0.0
2906,0.3755671427503298,0.0
2907,-0.20168834106768152,0.0
2908,-0.021991781182642032,0.0
2909,0.048194995587059405,0.0
2910,-0.04472168393161828,0.0
2911,-0.06765646893818356,0.0
2912,0.042662165013405424,0.0
2913,-0.012689600291714363,0.0
2914,-0.036720451003122184,0.0
2915,-0.07606299365290753,0.0
2916,-0.08983387175310703,0.0
2917,1.308197088834265,0.0
2918,6.825451248104474,0.0
2919,0.16421566331490314,0.0
2920,-1.2331510035817226,0.0
2921,0.8654134700258854,0.0
2922,-0.48100424132973923,0.0
2923,0.05017127367824442,0.0
2924,-0.09957419351097892,0.0
2925,0.016319521916094357,0.0
2926,0.012868075653250176,0.0
2927,0.010739203856885694,0.0
2928,-0.05134353932916485,0.0
2929,0.03415190928089989,0.0
2930,-0.0211388810412161,0.0
2931,0.056183043486495894,0.0
2932,-0.02404318803193079,0.0
2933,0.07380077887176174,0.0
2934,3.204627543648078,0.0
2935,6.419385856635425,0.0
2936,-2.5530691398682985,0.0
2937,0.8591845723068375,0.0
2938,-0.2742903261015012,0.0
2939,-0.019932247242222423,0.0
2940,0.03036325714748772,0.0
2941,0.033259400746916724,0.0
2942,0.005729363070580397,0.0
2943,-0.0020179507051390506,0.0
2944,0.06607401662917786,0.0
2945,-0.034829780375715685,0.0
2946,-0.03072159428976362,0.0
2947,-0.09095009687010976,0.0
2948,-0.03661444012652984,0.0
2949,-0.06525223850073344,0.0
2950,0.48311667651627843,0.0
2951,5.442808132743486,0.0
2952,3.7508027719501187,0.0
2953,-2.8266614964568078,0.0
2954,1.596332690109749,0.0
2955,-0.8387204595989155,0.0
2956,0.43774383920165316,0.0
2957,-0.16624490438436013,0.0
2958,0.042382527317613085,0.0
2959,-0.0038881686026523716,0.0
2960,0.04671306089327744,0.0
2961,0.010495771480363075,0.0
2962,0.07085803143110442,0.0
2963,-0.035424097338474715,0.0
2964,0.005199027268247518,0.0
2965,0.009226903113972416,0.0
2966,-0.025504644140076173,0.0
2967,1.4272181443941967,0.0
2968,6.758544944460274,0.0
2969,0.09192790983484186,0.0
2970,-1.0993269044302352,0.0
2971,0.9380792683603997,0.0
2972,-0.4493727910406265,0.0
2973,0.1734065089494805,0.0
2974,-0.15987955916367302,0.0
2975,0.08379098771196655,0.0
2976,-0.06274047174251426,0.0
2977,-0.05442500838893541,0.0
2978,-0.023557489728816477,0.0
2979,-0.0455641080949863,0.0
2980,-0.06962123700176649,0.0
2981,0.004259832424244291,0.0
2982,0.04704313168287093,0.0
2983,-0.050404275458090356,0.0
2984,3.312935220643668,0.0
2985,6.373570304135198,0.0
2986,-2.7529901482383514,0.0
2987,0.8081455116517137,0.0
2988,-0.2771184097302474,0.0
2989,0.0537971892595322,0.0
2990,0.02386222908944788,0.0
2991,-0.027842430232704118,0.0
2992,-0.03169259183437491,0.0
2993,0.00973949157170289,0.0
2994,0.008755380250297661,0.0
2995,0.021875122029950497,0.0
2996,0.021080613097936452,0.0
2997,-0.11067393266082902,0.0
2998,0.04610276937996223,0.0
2999,-0.04424706888902703,0.0
3000,0.4352011901444013,0.0
3001,5.281603323222682,0.0
3002,3.73606127903924,0.0
3003,-2.7457874517917245,0.0
3004,1.6002888714386119,0.0
3005,-0.786332374205096,0.0
3006,0.33236776309856536,0.0
3007,-0.23392495153309684,0.0
3008,0.013433095098900717,0.0
3009,-0.04286909305492491,0.0
3010,-0.011173342171047672,0.0
3011,-0.0793796966019151,0.0
3012,-0.013233105786534742,0.0
3013,-0.08967304575853913,0.0
3014,-0.028151859874910708,0.0
3015,0.021886905063818053,0.0
3016,-0.06966315477292148,0.0
3017,1.4055307892879867,0.0
3018,6.7981599613074675,0.0
3019,-0.06049692093237396,0.0
3020,-1.1878661405031583,0.0
3021,0.8353565879511144,0.0
3022,-0.4435082892656049,0.0
3023,0.06210147403132983,0.0
3024,-0.031640697271707485,0.0
3025,-0.031830551724582115,0.0
3026,-0.06053858783680083,0.0
3027,-0.01563298118238415,0.0
3028,0.012274958000040113,0.0
3029,-0.047299669071470436,0.0
3030,0.03436694661556654,0.0
3031,-0.03280165817465204,0.0
3032,0.013256186274421123,0.0
3033,0.18603300796643096,0.0
3034,3.2051619162435436,0.0
3035,6.488222612522923,0.0
3036,-2.638458657227355,0.0
3037,1.0214611177795618,0.0
3038,-0.28586590044594345,0.0
3039,0.023340985367732325,0.0
3040,-0.07569356826832664,0.0
3041,-0.005344130130880895,0.0
3042,-0.10595754155626405,0.0
3043,-0.03460391374190773,0.0
3044,-0.01820662418800659,0.0
3045,-0.06772485013960551,0.0
3046,0.06673506938735649,0.0
3047,0.013213550045753072,0.0
3048,-0.07012004182285403,0.0
3049,-0.010783729587747086,0.0
3050,0.39253797098534304,0.0
3051,5.395819229440125,0.0
3052,3.7986130582302615,0.0
3053,-2.8134242081498053,0.0
3054,1.6032617106030655,0.0
3055,-0.8089463523426351,0.0
3056,0.2945563349681776,0.0
3057,-0.14478023443786364,0.0
3058,-0.017542038704660444,0.0
3059,-0.05859933908606782,0.0
3060,-0.03326752405478955,0.0
3061,-0.015721602869837054,0.0
3062,-0.005500193985888899,0.0
3063,-0.026167850276568753,0.0
3064,-0.10242894828295707,0.0
3065,0.03131787271354343,0.0
3066,-0.019600853751819677,0.0
3067,1.4350430911007228,0.0
3068,6.895313801402775,0.0
3069,0.05775203486717976,0.0
3070,-1.1585273750806997,0.0
3071,0.715222168544171,0.0
3072,-0.54422926407694,0.0
3073,0.2239754739971277,0.0
3074,-0.06310471976699492,0.0
3075,-0.12972114081307562,0.0
3076,0.062290123080075165,0.0
3077,-0.016169829306587877,0.0
3078,0.05628399134664669,0.0
3079,-0.08677885475617193,0.0
3080,-0.11193106165610402,0.0
3081,-0.010231358476345265,0.0
3082,-0.05129076214106667,0.0
3083,0.04182794007189486,0.0
3084,3.305361161640264,0.0
3085,6.286976572579235,0.0
3086,-2.7030433496025608,0.0
3087,0.8551007973807468,0.0
3088,-0.3835365662830912,0.0
3089,-0.018310286317891222,0.0
3090,-0.14424706435326098,0.0
3091,-0.061309920653751744,0.0
3092,-0.17434386326621631,0.0
3093,-0.06981222232066962,0.0
3094,-0.008358207789096031,0.0
3095,-0.10399489415488727,0.0
3096,-0.010501342803466748,0.0
3097,-0.04475768974040159,0.0
3098,-0.12124666410305679,0.0
3099,-0.06644505447720792,0.0
3100,0.5103386716079866,0.0
3101,5.4316175724558935,0.0
3102,3.611492810960628,0.0
3103,-2.8545809657724557,0.0
3104,1.542021858593295,0.0
3105,-0.766779795616606,0.0
3106,0.30319238507927315,0.0
3107,-0.14575040454761093,0.0
3108,0.05116292885799738,0.0
3109,0.008402204736809912,0.0
3110,-0.05370703798840107,0.0
3111,0.05521825556543305,0.0
3112,-0.04416009042993168,0.0
3113,-0.056524841989238975,0.0
3114,-0.048393422200207384,0.0
3115,-0.04060076724601987,0.0
3116,-0.09293926141361633,0.0
3117,1.5751008966305609,0.0
3118,6.895991896862676,0.0
3119,0.08560656247691228,0.0
3120,-1.1451402595107005,0.0
3121,0.8335947246290325,0.0
3122,-0.46435797376428095,0.0
3123,0.14037068238627443,0.0
3124,-0.043892345169262596,0.0
3125,0.041967645493246206,0.0
3126,0.018708888289295327,0.0
3127,0.014303187909575465,0.0
3128,-0.037731394854849346,0.0
3129,0.023483045262065252,0.0
3130,0.01744412850569392,0.0
3131,-0.06868183985471256,0.0
3132,0.007567128383821051,0.0
3133,0.11463890263873815,0.0
3134,3.218353581779692,0.0
3135,6.3859423043242005,0.0
3136,-2.6748148981606166,0.0
3137,0.9294062923447441,0.0
3138,-0.2510824367488562,0.0
3139,0.08618250529650369,0.0
3140,-0.19274355987656291,0.0
3141,-0.014063368798879193,0.0
3142,-0.004296771443426436,0.0
3143,-0.00037720380554673826,0.0
3144,-0.0026098569670918274,0.0
3145,-0.04544807844087401,0.0
3146,-0.04418606444383467,0.0
3147,0.030133327223779455,0.0
3148,-0.054991371181186716,0.0
3149,-0.02683188423478903,0.0
3150,0.4584627090552398,0.0
3151,5.3444156037055714,0.0
3152,3.607067936024624,0.0
3153,-2.8171402048481387,0.0
3154,1.5285806331084384,0.0
3155,-0.8402992297219155,0.0
3156,0.27984106676939613,0.0
3157,-0.11861950736795548,0.0
3158,-0.01994073205550022,0.0
3159,-0.051512923434266084,0.0
3160,0.04389002450664077,0.0
3161,-0.04439941460374632,0.0
3162,0.04108585914096183,0.0
3163,0.009507130883345972,0.0
3164,0.05251055346351867,0.0
3165,-0.004900329073031479,0.0
3166,-0.01481239388577479,0.0
3167,1.4477212584792036,0.0
3168,6.882780535889965,0.0
3169,0.05846345440207702,0.0
3170,-1.1875167411548058,0.0
3171,0.8034498027899402,0.0
3172,-0.49206732482057397,0.0
3173,0.18787374987062175,0.0
3174,-0.2097023829010478,0.0
3175,-0.012819393956910662,0.0
3176,-0.022424799359779892,0.0
3177,-0.02535865188475703,0.0
3178,0.04702473239156396,0.0
3179,0.008250686840294775,0.0
3180,-0.015479394120201353,0.0
3181,0.001762426435014652,0.0
3182,-0.055582704639121495,0.0
3183,0.015436945871478404,0.0
3184,3.2978695943916696,0.0
3185,6.357679624282237,0.0
3186,-2.604667107499156,0.0
3187,0.9090684703770519,0.0
3188,-0.2947169062625564,0.0
3189,-0.028719200011276057,0.0
3190,-0.09580317765191924,0.0
3191,-0.011706931673012518,0.0
3192,-0.08132364472427565,0.0
3193,-0.14587345879299524,0.0
3194,0.01765386351286717,0.0
3195,-0.03973334830586067,0.0
3196,-0.01688900055396654,0.0
3197,0.02798577653648715,0.0
3198,-0.05803539416208821,0.0
3199,-0.031288029119037615,0.0
3200,0.4524710816893694,0.0
3201,5.475639137061927,0.0
3202,3.6282943958370697,0.0
3203,-2.795052619156002,0.0
3204,1.58172837962548,0.0
3205,-0.8804344285678449,0.0
3206,0.293851758184286,0.0
3207,-0.17773940210944444,0.0
3208,0.032933890319791256,0.0
3209,0.01320970238698388,0.0
3210,0.01592305063086053,0.0
3211,-0.04850890509988511,0.0
3212,-0.07601690602921249,0.0
3213,0.005377583760951306,0.0
3214,-0.02876013557521056,0.0
3215,-0.043346682630357236,0.0
3216,0.10268284633884792,0.0
3217,1.52315589607761,0.0
3218,6.840075448971555,0.0
3219,0.04743103411838427,0.0
3220,-1.1225691913239852,0.0
3221,0.8516477698452936,0.0
3222,-0.41695132298431914,0.0
3223,0.15043274354043024,0.0
3224,-0.04723109806975975,0.0
3225,0.07194845121096902,0.0
3226,0.043591825175031323,0.0
3227,0.02176908460000347,0.0
3228,-0.014009384638418075,0.0
3229,0.1079461502606013,0.0
3230,0.10188600021542393,0.0
3231,0.045587524985248484,0.0
3232,-0.03835780168095219,0.0
3233,0.13535951004815086,0.0
3234,3.375172465856836,0.0
3235,6.292766050654189,0.0
3236,-2.6582266388492295,0.0
3237,0.9422329754407351,0.0
3238,-0.2759517500698031,0.0
3239,0.11354215774205292,0.0
3240,-0.059348723569798714,0.0
3241,-0.045100457403580124,0.0
3242,-0.02792557410350429,0.0
3243,-0.11131063925640096,0.0
3244,-0.12146627583138536,0.0
3245,-0.07044082545532482,0.0
3246,-0.012368858430964573,0.0
3247,-0.010031697417321316,0.0
3248,-0.005924839034973879,0.0
3249,-0.04376288920478107,0.0
3250,0.4876638718376411,0.0
3251,5.485973448731609,0.0
3252,3.657887204647463,0.0
3253,-2.7491864084734527,0.0
3254,1.619857436422058,0.0
3255,-0.842071317945319,0.0
3256,0.3022070351488255,0.0
3257,-0.12173330206120747,0.0
3258,0.0308942194294089,0.0
3259,0.022796626182785946,0.0
3260,0.025787276728646606,0.0
3261,0.019647680326590013,0.0
3262,-0.0163838129630773,0.0
3263,0.009726338448184225,0.0
3264,0.03729993996643902,0.0
3265,0.07715608014538718,0.0
3266,0.030850997377750725,0.0
3267,1.5733138124448756,0.0
3268,6.848295135862411,0.0
3269,-0.006848585276758929,0.0
3270,-1.0417585783835326,0.0
3271,0.9129411319464587,0.0
3272,-0.394217728603199,0.0
3273,0.027582258039080904,0.0
3274,-0.10900601235045071,0.0
3275,-0.03114086823893939,0.0
3276,-0.009455751263857993,0.0
3277,-0.025735963986439254,0.0
3278,-0.12042998644755974,0.0
3279,-0.012640692290452643,0.0
3280,-0.04006327641924981,0.0
3281,-0.1393175293311133,0.0
3282,0.02834201324028294,0.0
3283,0.07675419904686888,0.0
3284,3.391702393827524,0.0
3285,6.377294803593725,0.0
3286,-2.69688900662674,0.0
3287,0.9809533235181651,0.0
3288,-0.2695107964359037,0.0
3289,0.07096286528844153,0.0
3290,-0.06916198397877006,0.0
3291,0.019094446447195573,0.0
3292,-0.0969776199842382,0.0
3293,0.006646751034497184,0.0
3294,-0.03566400627458294,0.0
3295,-0.029741087631791868,0.0
3296,-0.08137861665351258,0.0
3297,-0.007149749992904478,0.0
3298,-0.07610747728325844,0.0
3299,-0.03321009198382993,0.0
3300,0.4432946869279906,0.0
3301,5.434981466536864,0.0
3302,3.6043239734864656,0.0
3303,-2.807350691157402,0.0
3304,1.545860214201744,0.0
3305,-0.8412509784561477,0.0
3306,0.36817707802061883,0.0
3307,-0.17130249291913038,0.0
3308,0.1145587421443961,0.0
3309,-0.017322984584368425,0.0
3310,0.0661783463028101,0.0
3311,0.0001057248766283738,0.0
3312,0.05192509825198839,0.0
3313,-0.10071850247017727,0.0
3314,-0.07565221717682961,0.0
3315,0.0007791316226693767,0.0
3316,-0.00519890233142486,0.0
3317,1.5230447049174103,0.0
3318,6.82342501348635,0.0
3319,-0.12668243729390669,0.0
3320,-1.1036891294243425,0.0
3321,0.6980980310118549,0.0
3322,-0.49298768164172846,0.0
3323,0.17256504533720443,0.0
3324,-0.07839719499615697,0.0
3325,0.0183767039640367,0.0
3326,0.04262375577916294,0.0
3327,-0.06278782561556935,0.0
3328,0.016669562820380783,0.0
3329,-0.039545720869891214,0.0
3330,0.05210471034416725,0.0
3331,0.03006022594655689,0.0
3332,-0.0256363271809244,0.0
3333,0.10724220460037984,0.0
3334,3.461978751490941,0.0
3335,6.4003968613550795,0.0
3336,-2.6909704254643056,0.0
3337,1.040749342985457,0.0
3338,-0.2833118576978743,0.0
3339,0.07419839184954177,0.0
3340,-0.03845022879443424,0.0
3341,0.03587976943752766,0.0
3342,-0.11360077007457907,0.0
3343,0.031252003763850164,0.0
3344,0.030197723322391914,0.0
3345,-0.035225147612447896,0.0
3346,-0.014456861068182978,0.0
3347,0.05813863264926678,0.0
3348,0.05437144877190831,0.0
3349,-0.004557227091649751,0.0
3350,0.4001063787436349,0.0
3351,5.4633498348058405,0.0
3352,3.561232091929732,0.0
3353,-2.7752089450457893,0.0
3354,1.5904106915742604,0.0
3355,-0.8525244900141649,0.0
3356,0.30007450683777426,0.0
3357,-0.1673479559009932,0.0
3358,-0.015062257571967549,0.0
3359,-0.10348610539731455,0.0
3360,-0.09767673122469052,0.0
3361,-0.018700694011104066,0.0
3362,-0.03606941320253203,0.0
3363,0.028205685384384366,0.0
3364,0.010971720250286834,0.0
3365,-0.015104053745120643,0.0
3366,0.006696373137584848,0.0
3367,1.5394879973092486,0.0
3368,6.8373350476959525,0.0
3369,-0.08696509645608205,0.0
3370,-0.935612272001979,0.0
3371,0.7394326943296804,0.0
3372,-0.41158882103740374,0.0
3373,0.12079836352620194,0.0
3374,-0.08219832767103916,0.0
3375,-0.03364279708652787,0.0
3376,-0.016222770948682325,0.0
3377,0.0339095964157245,0.0
3378,-0.012083556683684635,0.0
3379,-0.0005218508563395105,0.0
3380,-0.04674219672989894,0.0
3381,0.03563556471209004,0.0
3382,-0.01945540310069661,0.0
3383,0.08269549409678945,0.0
3384,3.410263162400816,0.0
3385,6.248507455636166,0.0
3386,-2.6984245593611624,0.0
3387,0.9364160105730411,0.0
3388,-0.43797382173527927,0.0
3389,0.14564912299101362,0.0
3390,-0.02275481655016344,0.0
3391,0.028437874944896246,0.0
3392,0.07386182169002788,0.0
3393,0.003863961491047576,0.0
3394,-0.0062048485955160946,0.0
3395,-0.011503280770962958,0.0
3396,-0.06106887725662652,0.0
3397,-0.04130777874395989,0.0
3398,-0.02948608376499108,0.0
3399,-0.023714394818257153,0.0
3400,0.5918541301754319,0.0
3401,5.444627551771556,0.0
3402,3.5899876561116657,0.0
3403,-2.7263021281397446,0.0
3404,1.4982200633586422,0.0
3405,-0.7697000998955587,0.0
3406,0.23543608657626405,0.0
3407,-0.0944270644204717,0.0
3408,-0.018068525916635433,0.0
3409,-0.050420867479728834,0.0
3410,-0.09041539826644512,0.0
3411,-0.08859747552588615,0.0
3412,-0.0701504039550082,0.0
3413,-0.0031062704167276675,0.0
3414,-0.03790094544863181,0.0
3415,0.0011960304809713815,0.0
3416,0.027076103618116222,0.0
3417,1.5712159000102266,0.0
3418,6.761193548953853,0.0
3419,-0.14266631294288395,0.0
3420,-1.0264070429870331,0.0
3421,0.8677459430518636,0.0
3422,-0.4197999437289247,0.0
3423,0.10738484424570428,0.0
3424,-0.07581808515608235,0.0
3425,-0.043294606474420405,0.0
3426,-0.06573451026720396,0.0
3427,-0.11658813694281096,0.0
3428,-0.026325349106881432,0.0
3429,-0.17280054311315024,0.0
3430,0.08187536647619434,0.0
3431,-0.0055532601920507685,0.0
3432,-0.043726708534420955,0.0
3433,0.05494404644721965,0.0
3434,3.370349597260505,0.0
3435,6.195753786296937,0.0
3436,-2.78783718856959,0.0
3437,0.9652135578178936,0.0
3438,-0.3427289503993025,0.0
3439,0.06528801828154245,0.0
3440,-0.13001504160402738,0.0
3441,-0.04585144885004867,0.0
3442,-0.07518358747527229,0.0
3443,-0.009762850882378042,0.0
3444,-0.047951066490112194,0.0
3445,-0.03559327337061397,0.0
3446,-0.043114385285539895,0.0
3447,0.019577361068681368,0.0
3448,-0.061182261373473525,0.0
3449,0.034055226303925545,0.0
3450,0.4932479027236798,0.0
3451,5.451613981439081,0.0
3452,3.567472583832398,0.0
3453,-2.8294204557258995,0.0
3454,1.5362125658751096,0.0
3455,-0.8373133042741493,0.0
3456,0.22268644233062337,0.0
3457,-0.1677967620596882,0.0
3458,-0.036670032965646734,0.0
3459,-0.0611141198013712,0.0
3460,-0.027116918545297075,0.0
3461,-0.031085655365755666,0.0
3462,0.020075083415966068,0.0
3463,-0.12673141949334749,0.0
3464,-0.06079745032188762,0.0
3465,0.0026169725723473383,0.0
3466,-0.042245616803681614,0.0
3467,1.4771821310936641,0.0
3468,6.8300896509337194,0.0
3469,-0.1345822152421968,0.0
3470,-1.0922058415149836,0.0
3471,0.7369820875029514,0.0
3472,-0.5136776488940368,0.0
3473,0.11417619755305101,0.0
3474,-0.11010222171088685,0.0
3475,-0.0020630323106398396,0.0
3476,-0.06678380824503277,0.0
3477,0.060666546122941305,0.0
3478,0.02919686808974503,0.0
3479,-0.05576563880499068,0.0
3480,0.0384808668989781,0.0
3481,-0.07972126074054842,0.0
3482,-0.061407067829332466,0.0
3483,0.06067841881496506,0.0
3484,3.3520951622825073,0.0
3485,6.1945790508841405,0.0
3486,-2.6758413392630636,0.0
3487,1.0877625423882795,0.0
3488,-0.36551375901081673,0.0
3489,-0.0036044456705544015,0.0
3490,-0.1054942432958779,0.0
3491,-0.11473608552177114,0.0
3492,-0.05666012773274347,0.0
3493,-0.0795277174595313,0.0
3494,0.06928534773109772,0.0
3495,-0.03621869305920199,0.0
3496,-0.03017961099664152,0.0
3497,-0.04405994133227961,0.0
3498,-0.046554086590455304,0.0
3499,-0.03696065343580887,0.0
3500,0.4674747561116991,0.0
3501,5.432040630187839,0.0
3502,3.5345260455727154,0.0
3503,-2.7813053079863583,0.0
3504,1.4668882858675902,0.0
3505,-0.8365064595807971,0.0
3506,0.26617902684968375,0.0
3507,-0.19572939166321596,0.0
3508,-0.027342528497587778,0.0
3509,-0.010183873844947788,0.0
3510,-0.017324272662983545,0.0
3511,-0.14269086832849984,0.0
3512,-0.08276186082094819,0.0
3513,-0.050699356532411616,0.0
3514,-0.08557982607117867,0.0
3515,0.011238438710808846,0.0
3516,0.02508320890366092,0.0
3517,1.5534785419311357,0.0
3518,6.810984803282507,0.0
3519,-0.2174813919901083,0.0
3520,-1.0120083786835596,0.0
3521,0.680470322466613,0.0
3522,-0.40933828234990055,0.0
3523,0.09208221507691715,0.0
3524,-0.17910581342463128,0.0
3525,0.024320299135304348,0.0
3526,-0.06293065969763569,0.0
3527,-0.06058548059439277,0.0
3528,-0.007949550384110705,0.0
3529,0.04396326489144408,0.0
3530,-0.1765716780397794,0.0
3531,-0.022266965264959988,0.0
3532,-0.09896654337298019,0.0
3533,0.0529597198674153,0.0
3534,3.4211862623870655,0.0
3535,6.185482033153354,0.0
3536,-2.6766751398201034,0.0
3537,0.980258095177179,0.0
3538,-0.381017872268324,0.0
3539,0.08166514947266387,0.0
3540,-0.18848354642121262,0.0
3541,-0.10994172475868313,0.0
3542,-0.004671254780915179,0.0
3543,-0.037894858095743424,0.0
3544,-0.130683779031967,0.0
3545,-0.10519981160704206,0.0
3546,-0.0976738433922711,0.0
3547,0.036881553912386955,0.0
3548,-0.04840276261393807,0.0
3549,-0.07577523108286581,0.0
3550,0.5060188866149843,0.0
3551,5.545366687640411,0.0
3552,3.444645710955541,0.0
3553,-2.8250345348595203,0.0
3554,1.5231335234312993,0.0
3555,-0.8199402121510895,0.0
3556,0.2719285143900728,0.0
3557,-0.07560769089258318,0.0
3558,0.05767783712674326,0.0
3559,-0.004277790574713877,0.0
3560,-0.05929364441521509,0.0
3561,-0.0385357669532428,0.0
3562,-0.09453987118602117,0.0
3563,0.01531052699533856,0.0
3564,-0.08576027912752643,0.0
3565,-0.011900938322231852,0.0
3566,0.003007556234970482,0.0
3567,1.5209337071847189,0.0
3568,6.849319675041464,0.0
3569,-0.16046288732729272,0.0
3570,-1.0221804160259798,0.0
3571,0.7345772958157767,0.0
3572,-0.39892482540008367,0.0
3573,0.0699700511208094,0.0
3574,-0.11251060359695605,0.0
3575,0.06377199817130176,0.0
3576,-0.04153969113354809,0.0
3577,-0.03798844951350346,0.0
3578,-0.15388902669687615,0.0
3579,0.025467181138737957,0.0
3580,-0.07061802625093302,0.0
3581,0.009382246304509269,0.0
3582,-0.0010875855870558643,0.0
3583,0.09491383014952147,0.0
3584,3.4045909221313537,0.0
3585,6.15703569985357,0.0
3586,-2.712533849785723,0.0
3587,0.9431536710008485,0.0
3588,-0.3339382047652326,0.0
3589,0.14084627681039424,0.0
3590,-0.04599761467847302,0.0
3591,0.016417076118158444,0.0
3592,-0.015310395858426992,0.0
3593,0.01602823092239007,0.0
3594,0.03493106824662229,0.0
3595,0.022501987298897193,0.0
3596,0.01630231693860703,0.0
3597,0.019217334646508172,0.0
3598,0.0038450996671477167,0.0
3599,0.006845237977214804,0.0
3600,0.5412877175609858,0.0
3601,5.524652044234464,0.0
3602,3.56418744218116,0.0
3603,-2.787324338140588,0.0
3604,1.6111275962852682,0.0
3605,-0.800488801190696,0.0
3606,0.3430354587440894,0.0
3607,-0.07710237235576521,0.0
3608,0.003206486314124013,0.0
3609,-0.009492954003010076,0.0
3610,0.09231876628706986,0.0
3611,-0.03318213341774376,0.0
3612,0.02043748886035793,0.0
3613,-0.0532735840079024,0.0
3614,0.09418491860110051,0.0
3615,-0.09885282499709336,0.0
3616,-0.05400346067501341,0.0
3617,1.5836890345141892,0.0
3618,6.9204466894341925,0.0
3619,-0.21740431102472502,0.0
3620,-1.0310099797478793,0.0
3621,0.7471944454828514,0.0
3622,-0.35042307349065727,0.0
3623,0.1501602133375883,0.0
3624,-0.040639403591432734,0.0
3625,-0.05430644553158531,0.0
3626,-0.09275757763996319,0.0
3627,0.052115247345227565,0.0
3628,-0.0078066061256862485,0.0
3629,-0.033737330915682484,0.0
3630,-0.052991898107180795,0.0
3631,-0.009564480063475773,0.0
3632,0.028977380182133368,0.0
3633,0.12239180519494179,0.0
3634,3.5844147949360115,0.0
3635,6.247281286951998,0.0
3636,-2.637345145006824,0.0
3637,1.0183062135704677,0.0
3638,-0.3034466835608084,0.0
3639,0.06222511765608085,0.0
3640,-0.04606346204639589,0.0
3641,0.023722114050327234,0.0
3642,0.09424318913035488,0.0
3643,0.05213122047227706,0.0
3644,0.01286121955079312,0.0
3645,0.07668461097189644,0.0
3646,0.0075551531222421905,0.0
3647,0.04117054565494689,0.0
3648,0.04024412315940073,0.0
3649,-0.028158999470489755,0.0
3650,0.6604614419935341,0.0
3651,5.691447099456307,0.0
3652,3.504711142111534,0.0
3653,-2.649841613368422,0.0
3654,1.6231193876081476,0.0
3655,-0.7734521450009988,0.0
3656,0.3847921339857263,0.0
3657,-0.10584639907210501,0.0
3658,0.03226833379239316,0.0
3659,0.06264197875413291,0.0
3660,0.07761836083485348,0.0
3661,-0.07566005766048733,0.0
3662,0.10622071042420386,0.0
3663,0.0264861058108711,0.0
3664,0.058573787763878005,0.0
3665,-0.022076379700586554,0.0
3666,0.02907418398251358,0.0
3667,1.6438317524438515,0.0
3668,6.78311970870557,0.0
3669,-0.23077748005099602,0.0
3670,-0.945715754013205,0.0
3671,0.8161275513057661,0.0
3672,-0.3389637631130988,0.0
3673,0.16227165413241174,0.0
3674,0.006646634275247702,0.0
3675,-0.013062110683798978,0.0
3676,-0.006599837652507139,0.0
3677,0.07820975442544734,0.0
3678,-0.05705840474538341,0.0
3679,0.0029935150577195223,0.0
3680,-0.03640851571833002,0.0
3681,0.0523558309197621,0.0
3682,0.016419881727959336,0.0
3683,0.051526763140450085,0.0
3684,3.497477708293326,0.0
3685,6.273735623768636,0.0
3686,-2.6930489872561707,0.0
3687,1.0195024000101656,0.0
3688,-0.3142073046167549,0.0
3689,0.2729146513703635,0.0
3690,-0.028295379255660023,0.0
3691,0.095811089402247,0.0
3692,0.017055731235991134,0.0
3693,0.09798795969074398,0.0
3694,0.03383814053354838,0.0
3695,0.13376955696121112,0.0
3696,0.09190218480164589,0.0
3697,0.021139902974130306,0.0
3698,0.10635245511143158,0.0
3699,0.11508296765983447,0.0
3700,0.5459812941096635,0.0
3701,5.751208368705418,0.0
3702,3.416157113364968,0.0
3703,-2.6679499547734684,0.0
3704,1.6657079827081274,0.0
3705,-0.6948427966539114,0.0
3706,0.39368058109552295,0.0
3707,-0.0593263101225277,0.0
3708,0.09490325878602054,0.0
3709,0.059409881959242045,0.0
3710,-0.009635318308664004,0.0
3711,0.02849507378352852,0.0
3712,0.004943417602441231,0.0
3713,0.06679684267190927,0.0
3714,0.057140461648406256,0.0
3715,0.005340964124693835,0.0
3716,0.02149915402257156,0.0
3717,1.67665047906822,0.0
3718,7.036022760503704,0.0
3719,-0.16592213533139602,0.0
3720,-0.8200571558632188,0.0
3721,0.8158946117846738,0.0
3722,-0.29479100846651907,0.0
3723,0.20660235536475371,0.0
3724,0.05693393189187334,0.0
3725,0.0624926549818175,0.0
3726,0.05278955746260519,0.0
3727,0.06040938077138144,0.0
3728,-0.0020861379895734666,0.0
3729,-0.03344044829921851,0.0
3730,0.007807219356067853,0.0
3731,0.02750249630530842,0.0
3732,0.1264507688348437,0.0
3733,0.10589666769599729,0.0
3734,3.5442902823967364,0.0
3735,6.253283145843046,0.0
3736,-2.634455597939248,0.0
3737,1.027086627767365,0.0
3738,-0.2981571119466888,0.0
3739,0.16541145093449644,0.0
3740,-0.03665240962106513,0.0
3741,0.14222434844280188,0.0
3742,0.16389157151533057,0.0
3743,-0.008141906195448453,0.0
3744,0.15097621718745038,0.0
3745,0.12918808700980017,0.0
3746,0.11718737821326347,0.0
3747,0.14999601968563764,0.0
3748,0.10078246416092629,0.0
3749,0.09376224304621997,0.0
3750,0.5733961274186239,0.0
3751,5.709071711253035,0.0
3752,3.476590609467718,0.0
3753,-2.6827355754568694,0.0
3754,1.4243358926540726,0.0
3755,-0.6399429845768791,0.0
3756,0.3339899381113188,0.0
3757,-0.1044385601033562,0.0
3758,0.07887230808566376,0.0
3759,0.013239852779443593,0.0
3760,0.04644747138788784,0.0
3761,0.08803720801620399,0.0
3762,0.060234270796769934,0.0
3763,0.01035947701831108,0.0
3764,0.08020216771019607,0.0
3765,0.05429165301803499,0.0
3766,-0.011172034114177054,0.0
3767,1.57810813606884,0.0
3768,6.940640048368988,0.0
3769,-0.24696638507717278,0.0
3770,-0.7450653849844573,0.0
3771,0.8019434674384981,0.0
3772,-0.35145661869993533,0.0
3773,0.24490102843786993,0.0
3774,-0.03650064880808124,0.0
3775,-0.0001726934596728985,0.0
3776,0.04609468380958792,0.0
3777,0.08928903824275788,0.0
3778,-0.02211278601927344,0.0
3779,0.07195353345656572,0.0
3780,-0.03415533777577068,0.0
3781,0.039311934378210095,0.0
3782,0.05190583117033393,0.0
3783,0.18722992785541542,0.0
3784,3.524905389063849,0.0
3785,6.1870997929218845,0.0
3786,-2.740857202270055,0.0
3787,1.0097842380829711,0.0
3788,-0.33453481369035565,0.0
3789,0.00023116762147633307,0.0
3790,-0.02661432428330565,0.0
3791,0.13824912873222042,0.0
3792,0.05883670705497232,0.0
3793,-0.024380497162558693,0.0
3794,0.006887693033653242,0.0
3795,0.05501484732576857,0.0
3796,-0.02110347648415803,0.0
3797,0.00836557972532543,0.0
3798,0.0022880965556979858,0.0
3799,-0.02960233042521515,0.0
3800,0.5298045249187001,0.0
3801,5.715283617226351,0.0
3802,3.400777307280598,0.0
3803,-2.6843653257223274,0.0
3804,1.475040370300348,0.0
3805,-0.7460698638207772,0.0
3806,0.30715564010223606,0.0
3807,-0.1498591037431789,0.0
3808,0.10985554814675086,0.0
3809,0.039434550086150766,0.0
3810,0.03994135861570307,0.0
3811,0.0420856161542628,0.0
3812,0.010650462588317686,0.0
3813,-0.01880284651202307,0.0
3814,0.005671049207708735,0.0
3815,-0.00812818299418815,0.0
3816,0.033913507969321716,0.0
3817,1.599186752037913,0.0
3818,6.887436441790565,0.0
3819,-0.2842870974851957,0.0
3820,-0.8318414371328308,0.0
3821,0.7338070840845321,0.0
3822,-0.3925707028794211,0.0
3823,0.1424974639586619,0.0
3824,-0.05291891268992869,0.0
3825,-0.0638217672925438,0.0
3826,-0.06759758298597635,0.0
3827,0.011290554222491249,0.0
3828,-0.06407812139638272,0.0
3829,-0.029276389714612584,0.0
3830,-0.007343135664340896,0.0
3831,-0.012626206893653279,0.0
3832,-0.015323578337020714,0.0
3833,0.04049986748310142,0.0
3834,3.5842129750182252,0.0
3835,6.2324527597276305,0.0
3836,-2.735050372780731,0.0
3837,1.0418768734058916,0.0
3838,-0.4320598604219238,0.0
3839,0.17067268995719584,0.0
3840,-0.055705453602492384,0.0
3841,0.05723736153830239,0.0
3842,-0.08736285493404246,0.0
3843,-0.02640969773400977,0.0
3844,-0.0537285578065476,0.0
3845,-0.09579289128948935,0.0
3846,-0.02517286962711638,0.0
3847,0.05519105792172445,0.0
3848,-0.07756956565580164,0.0
3849,-0.05020617911016254,0.0
3850,0.5515589190168824,0.0
3851,5.592162339795876,0.0
3852,3.3260643476120078,0.0
3853,-2.788603191690907,0.0
3854,1.5689711773135828,0.0
3855,-0.7107367412704855,0.0
3856,0.34464221252133365,0.0
3857,-0.09226579256068751,0.0
3858,-0.0536828924495817,0.0
3859,-0.14172531221578508,0.0
3860,-0.06663854735001107,0.0
3861,-0.12783209306124146,0.0
3862,-0.030834166527979986,0.0
3863,-0.1067337084696483,0.0
3864,-0.10545457316798523,0.0
3865,-0.012859541372579254,0.0
3866,-0.07372628097022235,0.0
3867,1.6015651499747887,0.0
3868,6.888741399449089,0.0
3869,-0.3791688495321153,0.0
3870,-1.0416863752362342,0.0
3871,0.7263844460421354,0.0
3872,-0.5076744844653385,0.0
3873,0.0660626433598565,0.0
3874,-0.06895901403840718,0.0
3875,-0.08479286424845396,0.0
3876,-0.13270884473140582,0.0
3877,-0.07230804617426907,0.0
3878,0.020958877134438787,0.0
3879,-0.05486231570352862,0.0
3880,-0.050502630325349906,0.0
3881,-0.06214253027286254,0.0
3882,-0.008157620571076364,0.0
3883,-0.05827778925998392,0.0
3884,3.4449903309880914,0.0
3885,6.1480949459076815,0.0
3886,-2.7982463153651023,0.0
3887,0.9868695730344322,0.0
3888,-0.4451930329208739,0.0
3889,0.1038481072047659,0.0
3890,0.00957218348545115,0.0
3891,0.04867731460464646,0.0
3892,-0.06313529799674625,0.0
3893,-0.0860301970425613,0.0
3894,0.005385498759003765,0.0
3895,-0.01444821797583935,0.0
3896,-0.09964786134308581,0.0
3897,-0.07404590304814884,0.0
3898,0.002824795948722203,0.0
3899,-0.07948136802727708,0.0
3900,0.5098260518295884,0.0
3901,5.65368646788406,0.0
3902,3.4371262113831325,0.0
3903,-2.642080520810673,0.0
3904,1.549596920824348,0.0
3905,-0.8050293841568746,0.0
3906,0.3075876853678045,0.0
3907,-0.18759264995800798,0.0
3908,0.003534854224773936,0.0
3909,-0.06564326215561747,0.0
3910,-0.01866918327186616,0.0
3911,-0.0274858403249853,0.0
3912,-0.04764663228353133,0.0
3913,0.015762656574746195,0.0
3914,-0.059976588362888314,0.0
3915,-0.01648092423639298,0.0
3916,-0.022837465510691532,0.0
3917,1.611859866549465,0.0
3918,6.80363497837048,0.0
3919,-0.2502581097060017,0.0
3920,-0.9053155321707937,0.0
3921,0.5608946980412466,0.0
3922,-0.48102684739972623,0.0
3923,0.045160278290315437,0.0
3924,-0.07144792181403894,0.0
3925,-0.004107342750024001,0.0
3926,-0.13517062318335332,0.0
3927,0.045911326387947864,0.0
3928,-0.07813735156811577,0.0
3929,-0.033025171559586154,0.0
3930,-0.00029923394355947305,0.0
3931,-0.027742635171105937,0.0
3932,0.007032984781042126,0.0
3933,0.04244499185402915,0.0
3934,3.5425438281874375,0.0
3935,6.193506191592873,0.0
3936,-2.849505247767491,0.0
3937,1.0833662827215078,0.0
3938,-0.3569345711246811,0.0
3939,0.12456385267069084,0.0
3940,-0.12525267221029884,0.0
3941,-0.027709411489156524,0.0
3942,0.014427579699656315,0.0
3943,-0.13852391922383028,0.0
3944,0.0013750759207504827,0.0
3945,-0.00037981931210420705,0.0
3946,-0.04718700102260148,0.0
3947,0.025739133859385116,0.0
3948,0.07553073826449323,0.0
3949,-0.0343649736862201,0.0
3950,0.5770977679878105,0.0
3951,5.535052227242913,0.0
3952,3.2896243121525774,0.0
3953,-2.7044628012067067,0.0
3954,1.6220544086058652,0.0
3955,-0.8835577468486168,0.0
3956,0.4191217899043868,0.0
3957,-0.15909078966090937,0.0
3958,-0.002315063327011698,0.0
3959,-0.068213779127951,0.0
3960,-0.009145530990777199,0.0
3961,-0.0017585239254314863,0.0
3962,-0.08059850604839464,0.0
3963,0.06377583967522701,0.0
3964,0.08588174681728489,0.0
3965,0.011524898392493654,0.0
3966,-0.02691557019328578,0.0
3967,1.6541019995132165,0.0
3968,6.949018924108816,0.0
3969,-0.34571837212248113,0.0
3970,-0.8736789992439298,0.0
3971,0.6802705640429628,0.0
3972,-0.3930427096805099,0.0
3973,0.1049026225301726,0.0
3974,-0.1166357518751437,0.0
3975,0.026440314860593186,0.0
3976,-0.024819595955293035,0.0
3977,-0.026143630267530648,0.0
3978,0.032623031368025295,0.0
3979,0.024943690908430592,0.0
3980,0.029922841846783843,0.0
3981,-0.020676076226397007,0.0
3982,0.004769474398263515,0.0
3983,0.04090486356139336,0.0
3984,3.5293288888814756,0.0
3985,6.110869791551749,0.0
3986,-2.8269022502805994,0.0
3987,1.076358425097989,0.0
3988,-0.4525550750571766,0.0
3989,0.13682735516935918,0.0
3990,-0.04252154533245386,0.0
3991,0.05230347875068604,0.0
3992,-0.11687525190350745,0.0
3993,-0.07490993474904772,0.0
3994,-0.05479699062000748,0.0
3995,-0.05622758682770507,0.0
3996,0.0066624514743795216,0.0
3997,-0.015637722367689164,0.0
3998,-0.045054826494639794,0.0
3999,0.027578719597100922,0.0
4000,0.5466948150858922,0.0
4001,5.579613291399959,0.0
4002,3.304987689224462,0.0
4003,-2.666971371618747,0.0
4004,1.509496271367788,0.0
4005,-0.8305212855898708,0.0
4006,0.27769091200569285,0.0
4007,-0.07776469136248497,0.0
4008,0.08991374756012879,0.0
4009,-0.07509600577310878,0.0
4010,0.04501978142866789,0.0
4011,0.03472931557399703,0.0
4012,-0.01574068970771592,0.0
4013,-0.001647417537826686,0.0
4014,0.012087156070679375,0.0
4015,-0.05654009186293321,0.0
4016,-0.010160884052084509,0.0
4017,1.7377996890906133,0.0
4018,6.929454089422957,0.0
4019,-0.2743462879218228,0.0
4020,-0.8159371876333472,0.0
4021,0.7267404856458202,0.0
4022,-0.32159563308187533,0.0
4023,0.1628396184307441,0.0
4024,0.12203264723116888,0.0
4025,0.02873010934414951,0.0
4026,0.11252604117907525,0.0
4027,-0.004249433058894234,0.0
4028,0.013207936797264267,0.0
4029,-0.1585784775805815,0.0
4030,0.0014174426047608504,0.0
4031,-0.0856857639159421,0.0
4032,-0.14469749961561196,0.0
4033,0.09317447384097596,0.0
4034,3.429133318716997,0.0
4035,6.06056697882092,0.0
4036,-2.8231753819557057,0.0
4037,1.022155812915667,0.0
4038,-0.45742577197555834,0.0
4039,0.10530656125636856,0.0
4040,-0.025083922455146016,0.0
4041,-0.060698594162107086,0.0
4042,-0.0006009193957013659,0.0
4043,0.05247058732130607,0.0
4044,0.0707163067415766,0.0
4045,-0.02798132972894178,0.0
4046,0.08862758032222347,0.0
4047,0.17557833135933132,0.0
4048,-0.03493664747452059,0.0
4049,-0.019679705058309484,0.0
4050,0.5372095792577201,0.0
4051,5.73653164236859,0.0
4052,3.2309273133977454,0.0
4053,-2.6476294408830703,0.0
4054,1.6516239051004273,0.0
4055,-0.7332831335145994,0.0
4056,0.32511776729762243,0.0
4057,-0.08821723006814186,0.0
4058,-0.0856304994570223,0.0
4059,0.08021231997311794,0.0
4060,0.04965184740880777,0.0
4061,0.031017439479364126,0.0
4062,0.1266489235966268,0.0
4063,0.005132106557456793,0.0
4064,-0.02390252186362134,0.0
4065,-0.00709751223972694,0.0
4066,0.05713227599523442,0.0
4067,1.7449885134245682,0.0
4068,7.0208088540510545,0.0
4069,-0.30724771670588197,0.0
4070,-0.7176144520747574,0.0
4071,0.7400643326430149,0.0
4072,-0.33412436913891547,0.0
4073,0.12996171873012846,0.0
4074,-0.017640821880548677,0.0
4075,-0.01359827206533109,0.0
4076,0.03481583280332198,0.0
4077,0.09180273764195182,0.0
4078,0.015165798269538818,0.0
4079,-0.09915017778576923,0.0
4080,0.010357547326276213,0.0
4081,0.015757735666114374,0.0
4082,-0.003231780032682912,0.0
4083,0.10820630084263097,0.0
4084,3.6602768121526763,0.0
4085,6.137868202686142,0.0
4086,-2.7066107113121225,0.0
4087,1.2354163012938872,0.0
4088,-0.37665669433023213,0.0
4089,0.11584553183742935,0.0
4090,-0.03151774513782336,0.0
4091,0.09686343335804677,0.0
4092,0.07542152214467168,0.0
4093,0.0002733460386973169,0.0
4094,-0.0065058055943738105,0.0
4095,0.05971275324343969,0.0
4096,0.06083715998618208,0.0
4097,-0.0860047820664439,0.0
4098,0.11693008808526671,0.0
4099,-0.030605868359293565,0.0
4100,0.5981918857802304,0.0
4101,5.739533663120422,0.0
4102,3.3808622382265465,0.0
4103,-2.571451202981941,0.0
4104,1.5538440012969796,0.0
4105,-0.8419197563316706,0.0
4106,0.3545713173938976,0.0
4107,-0.14144248908716056,0.0
4108,0.0353798520863356,0.0
4109,-0.004881769127235496,0.0
4110,0.11409443430135371,0.0
4111,-0.03625428286232276,0.0
4112,0.012338837062982342,0.0
4113,0.03729390950479527,0.0
4114,0.028009437887718387,0.0
4115,-0.035653463369851764,0.0
4116,0.06031398767000445,0.0
4117,1.726246891613783,0.0
4118,6.975886579534892,0.0
4119,-0.2614396852340557,0.0
4120,-0.7561298373837985,0.0
4121,0.6875787432583644,0.0
4122,-0.3064563877341862,0.0
4123,0.17381869262414157,0.0
4124,-0.0066266925877808015,0.0
4125,0.11427970176633741,0.0
4126,-0.04906938332442088,0.0
4127,-0.08930170563557918,0.0
4128,-0.06039704876746656,0.0
4129,0.10381736313715167,0.0
4130,-0.012506313344724851,0.0
4131,0.04533995884762533,0.0
4132,0.09562125521552989,0.0
4133,0.22894990012908123,0.0
4134,3.6086282616431316,0.0
4135,6.190657641257831,0.0
4136,-2.7644830922453187,0.0
4137,1.2137653629311294,0.0
4138,-0.4240772881187186,0.0
4139,0.2506345713596688,0.0
4140,-0.04596268341673044,0.0
4141,0.16418506870171462,0.0
4142,0.07964120968474893,0.0
4143,0.08937445687973529,0.0
4144,-0.03451171168383718,0.0
