timestamp,value-0,is_anomaly
0,0.3446775343017389,0
1,4.606872360442575,0
2,5.052390447089482,0
3,-2.9667659167151954,0
4,1.4935155007046534,0
5,-0.7317687833087005,0
6,0.32611257133201343,0
7,-0.10339195993237225,0
8,0.07567271455470709,0
9,-0.010657744204236671,0
10,-0.018055929815068462,0
11,-0.05740762990173684,0
12,-0.06521257527345387,0
13,-0.05188078714834973,0
14,0.08900282298853666,0
15,0.013332889512498662,0
16,0.005449905610940973,0
17,1.0202695015422576,0
18,6.490738811851565,0
19,1.6662931956012015,0
20,-1.9494191333699258,0
21,1.3675471623610722,0
22,-0.5986660519042502,0
23,0.3648859674867433,0
24,-0.07490084680251968,0
25,0.03442390966363049,0
26,0.07105983557234162,0
27,-0.001973075565183696,0
28,0.03959706864960097,0
29,-0.04726980017503295,0
30,-0.0012247167463385264,0
31,-0.019713549380004032,0
32,-0.037390029269673546,0
33,-0.06941983608021993,0
34,2.4957292840694754,0
35,6.83013541421471,0
36,-1.8059253275971918,0
37,0.11015983843959229,0
38,0.19971094477032691,0
39,-0.15874066930280661,0
40,0.006654724357517849,0
41,0.026165768446209832,0
42,0.02140352961881948,0
43,-0.0670251540509635,0
44,-0.13899948766963133,0
45,-0.05331848806286845,0
46,-0.019731082304905893,0
47,-0.03276606869869144,0
48,-0.009858340037724558,0
49,-0.051634255157767636,0
50,0.21683636085902466,0
51,4.677269807147576,0
52,4.898615667257869,0
53,-3.0029744276808548,0
54,1.5916928514887108,0
55,-0.6483547972141819,0
56,0.2979938562127137,0
57,-0.1303870671280366,0
58,0.11579573109374594,0
59,-0.012660420025491753,0
60,0.10043866251123267,0
61,0.05240225643672697,0
62,0.01842869140145481,0
63,0.03039543000501625,0
64,0.022489157572906412,0
65,0.012146162090737645,0
66,0.0028459695944145005,0
67,1.0190074156840416,0
68,6.451254335284319,0
69,1.5640838139598654,0
70,-1.9529365345747822,0
71,1.2440048966979953,0
72,-0.6278807774558001,0
73,0.24498492876787362,0
74,-0.18876573504857458,0
75,-0.01347898662159322,0
76,0.06330445671419614,0
77,-0.048392131537569265,0
78,-0.09934802896767155,0
79,-0.01709478849043634,0
80,-0.05617131149604895,0
81,-0.0005524074247651011,0
82,-0.013359723309291988,0
83,-0.03523159371954328,0
84,2.4303164799129724,0
85,6.9235386867025195,0
86,-1.7661574192589657,0
87,0.17950113076165877,0
88,0.16514986594238718,0
89,-0.09301459915244452,0
90,0.10105177027508605,0
91,0.032017371555352066,0
92,0.03063713051699182,0
93,0.01855393741597136,0
94,-0.04823460245708536,0
95,0.01108229672844575,0
96,0.09386932409682276,0
97,0.021123844913706932,0
98,0.0013886428171077311,0
99,0.05352157968899984,0
100,0.27715420687560527,0
101,4.61944092085794,0
102,4.888978944101757,0
103,-2.972844743667898,0
104,1.5652630540096844,0
105,-0.6984083279737535,0
106,0.21091225308988665,0
107,-0.1740208439202236,0
108,-0.007117694404812178,0
109,0.025254704872263292,0
110,-0.02611713416241678,0
111,-0.16716779079305938,0
112,-0.0026478603395507236,0
113,-0.0027980476272885255,0
114,0.03448855791206492,0
115,-0.063025671254878,0
116,0.029405353087767292,0
117,1.0509989073421848,0
118,6.467247261200644,0
119,1.560107604347711,0
120,-1.8527287998251438,0
121,1.2929648750103284,0
122,-0.596462612349317,0
123,0.26805717206414553,0
124,-0.041639730831241555,0
125,0.08089985030252926,0
126,0.0245355798029518,0
127,0.09398226792681796,0
128,0.008709984435790775,0
129,0.1523325824215555,0
130,0.005578135909900216,0
131,-0.0081217900162971,0
132,-0.016139264039079976,0
133,0.10510910689428653,0
134,2.561309574229554,0
135,6.913481369647315,0
136,-1.810379778281821,0
137,0.30447770485772274,0
138,0.21443429404905404,0
139,-0.03816259305761352,0
140,0.10821829923147414,0
141,0.04254781255304081,0
142,0.04915989885044817,0
143,-0.0036424218495285307,0
144,0.13588113929974552,0
145,0.08459398900362096,0
146,-0.03504110448424256,0
147,0.04172055153599277,0
148,0.09512705748670872,0
149,-0.06091569508251418,0
150,0.279329221744943,0
151,4.700422642640212,0
152,5.008459230992266,0
153,-2.9266307590079075,0
154,1.6071723269770635,0
155,-0.6997380023890712,0
156,0.3281732670433662,0
157,0.02140892091035694,0
158,0.06326858343142211,0
159,0.1616969184721551,0
160,0.1588703319940572,0
161,0.09191498502711117,0
162,0.17514983021914135,0
163,0.0201876487176251,0
164,0.07078725697150991,0
165,0.10462122355714033,0
166,0.07701366035507112,0
167,1.0384322879242929,0
168,6.499221838971124,0
169,1.4789441289502587,0
170,-1.8259562204832838,0
171,1.1484817585280038,0
172,-0.5898597072674192,0
173,0.30184235146445165,0
174,-0.0706742122835477,0
175,0.034406107549274464,0
176,0.003886627429537251,0
177,-0.006458850263662693,0
178,0.05829436709384564,0
179,0.0136629811909149,0
180,0.0485933882600872,0
181,0.008291745778576994,0
182,0.006333876025429602,0
183,0.045762383168304,0
184,2.605204106095799,0
185,6.923992329023046,0
186,-1.7532962078405407,0
187,0.263420261022141,0
188,0.24774949062371515,0
189,0.03668244546328679,0
190,0.06372413104481114,0
191,0.06779500311648409,0
192,0.073101103358426,0
193,0.04775758706072018,0
194,0.09006119153729616,0
195,0.07819048548765828,0
196,0.10764933857448734,0
197,-0.008592464437290795,0
198,-0.026838029740636246,0
199,0.08764160889887647,0
200,0.3852527804161026,0
201,4.635031606209277,0
202,4.897030417182442,0
203,-2.9633453923601043,0
204,1.5788666566224847,0
205,-0.6221048097957789,0
206,0.296903276257504,0
207,-0.06608130273671212,0
208,0.03475241947102946,0
209,0.010051297027072276,0
210,0.03244899191115063,0
211,0.04715916336165995,0
212,0.018142283207388404,0
213,0.026125856209014014,0
214,0.06490642725040335,0
215,0.08766082765437501,0
216,-0.03562870531390919,0
217,1.1323223521232277,0
218,6.464774741593808,0
219,1.4832868938487789,0
220,-1.8902620828735124,0
221,1.2507713890626093,0
222,-0.5829182842656505,0
223,0.1871170429487774,0
224,-0.16868153968505223,0
225,0.0020309030839691777,0
226,-0.09083227641076838,0
227,-0.03151599908305512,0
228,0.05424009541143593,0
229,-0.06539084262496836,0
230,0.004419544998192854,0
231,0.03481167525936932,0
232,-0.05066564839640028,0
233,0.038772709594723134,0
234,2.569831176257643,0
235,6.849257891290438,0
236,-1.8734461932136095,0
237,0.2003695374651745,0
238,0.21075699407753484,0
239,-0.03278087727805136,0
240,0.028696788772038653,0
241,-0.0055339471837170424,0
242,0.02350836031956868,0
243,0.12296685343369929,0
244,0.11448790576133976,0
245,0.043319687998009865,0
246,0.12074869549190967,0
247,0.033246325556519116,0
248,0.0867445884364803,0
249,0.058342087959975,0
250,0.2571832694590637,0
251,4.703292289522574,0
252,4.840619469602651,0
253,-3.0196035548252373,0
254,1.5578919654105823,0
255,-0.5793563881745248,0
256,0.3155458420027495,0
257,-0.09616992104157326,0
258,0.09079654425293518,0
259,0.07419395678456016,0
260,0.026982798760010918,0
261,0.07880425267991877,0
262,-0.12725712699701835,0
263,0.10063533752368195,0
264,0.007320456045567934,0
265,0.012750030214862977,0
266,0.020510736457652744,0
267,1.0795435269872689,0
268,6.4692330881012685,0
269,1.4380806268655149,0
270,-1.807941461955579,0
271,1.3098789851258241,0
272,-0.5982474237644914,0
273,0.2854721101852741,0
274,-0.09312176875783026,0
275,-0.003985146250139723,0
276,0.0253107568050077,0
277,0.07839677460390428,0
278,-0.027708608206592614,0
279,0.05642301235543396,0
280,0.07139206739006916,0
281,0.03807660167108048,0
282,-0.05508013319913245,0
283,0.06565523211430514,0
284,2.558423230259542,0
285,6.88749636634383,0
286,-1.9268276239998556,0
287,0.3657436910185633,0
288,0.13331949149405853,0
289,-0.01747095120668008,0
290,0.16300694536994587,0
291,-0.008601491745915658,0
292,0.07929183771477227,0
293,-0.0015558136057342714,0
294,-0.006728017819849136,0
295,-0.08621965670767937,0
296,0.016231714221710505,0
297,-0.005928006288706308,0
298,0.0798022532141669,0
299,0.13075066554421894,0
300,0.39145803202888724,0
301,4.7641867625929875,0
302,4.8828242226344,0
303,-2.9483686908657507,0
304,1.6186465904627145,0
305,-0.66301412171482,0
306,0.41121084709097494,0
307,0.016355848966411624,0
308,0.10575575185467072,0
309,0.05273709039259139,0
310,0.06323722496030913,0
311,0.08964906880124662,0
312,0.016128873296406367,0
313,-0.012506421089034304,0
314,-0.0003775188909370848,0
315,0.10109469051546503,0
316,-0.03859777810653943,0
317,0.960695440378707,0
318,6.366550950207963,0
319,1.3992172837994763,0
320,-2.0062186510364097,0
321,1.2330799576764238,0
322,-0.6261056783318718,0
323,0.27902551838335654,0
324,-0.20971142449456837,0
325,0.060377675899798894,0
326,0.06758430103240973,0
327,0.061477922724602646,0
328,0.014048392402875295,0
329,0.04178672182603652,0
330,0.06935648694580494,0
331,0.11392437031526909,0
332,0.1008346509746531,0
333,0.10403579872101423,0
334,2.6649625914881314,0
335,6.817124538364759,0
336,-1.7929183791313934,0
337,0.29910860401725,0
338,0.17943556590012041,0
339,-0.05647194958771825,0
340,-0.013971067256434974,0
341,-0.0065148547875080905,0
342,-0.01710130001461159,0
343,-0.0866482149300765,0
344,0.031955412177505624,0
345,0.09909066660202816,0
346,0.12270433343558236,0
347,-0.03302630536440822,0
348,-0.019736830594205772,0
349,0.10011333365804057,0
350,0.3121378376466423,0
351,4.761288022622232,0
352,4.817613260195956,0
353,-3.0263671282448805,0
354,1.6832446597072008,0
355,-0.6744654860945635,0
356,0.33024178393118725,0
357,-0.07652934650130175,0
358,0.10003515403142954,0
359,0.04785352326098929,0
360,-0.027921947191646545,0
361,0.014201899188569803,0
362,0.08567549555037905,0
363,0.07878211325551385,0
364,0.12303291056314221,0
365,-0.034039458147940224,0
366,-0.0561455898753621,0
367,1.0198282978904474,0
368,6.511629382646702,0
369,1.3772507031898222,0
370,-1.8782141499596836,0
371,1.2597260166279118,0
372,-0.6004839792364647,0
373,0.30673621544505736,0
374,0.02142354201671326,0
375,0.06514783036758946,0
376,0.03179082639995127,0
377,0.035813756960702804,0
378,-0.009252300347292328,0
379,0.014932379020820175,0
380,0.01637870849547853,0
381,0.05870697479229558,0
382,0.015991492748173103,0
383,0.05616797654677193,0
384,2.67504687851187,0
385,6.83653356795736,0
386,-1.8544236339322473,0
387,0.21011600401030006,0
388,0.09737746681256437,0
389,-0.08333859925820533,0
390,-0.03880675216542449,0
391,-0.005173715104105758,0
392,0.07237083276083471,0
393,0.10731751648976783,0
394,0.08706733111410564,0
395,-0.022984142261657965,0
396,-0.004095395250815981,0
397,0.01842544506149933,0
398,-0.04500206120146727,0
399,0.005902825904351163,0
400,0.2808416670653302,0
401,4.655183499219684,0
402,4.9172116554979635,0
403,-3.001247781986924,0
404,1.4970699964651883,0
405,-0.6598535840222496,0
406,0.2756378382538541,0
407,-0.07495446800065275,0
408,0.09689374259625172,0
409,0.0373773563998043,0
410,0.09210445374776789,0
411,0.08742623381387124,0
412,0.1267989000123782,0
413,0.016865750864070463,0
414,0.049167334370899,0
415,0.055111194938247864,0
416,-0.048422738290181185,0
417,1.07440674389019,0
418,6.559064372848462,0
419,1.4439945114039536,0
420,-1.815216270477147,0
421,1.308820051855869,0
422,-0.5587445575701461,0
423,0.3310544449487973,0
424,-0.08321405571783613,0
425,0.08719012722354566,0
426,0.08376306675485637,0
427,0.06986636351026174,0
428,0.04247072013042619,0
429,0.08226980691337002,0
430,0.06181662033579058,0
431,0.1239690768141554,0
432,-0.00607602615460965,0
433,0.08093669223256425,0
434,2.6572721603437284,0
435,6.969746404445568,0
436,-1.795786367494558,0
437,0.3344376294887568,0
438,0.04704324532472605,0
439,0.09000764268763511,0
440,0.03540705717974876,0
441,0.11921040893297921,0
442,0.09647031488736038,0
443,-0.037025953186844845,0
444,-0.04628607923179373,0
445,0.03848105676389075,0
446,0.03613351676163624,0
447,-0.028169291545765647,0
448,0.004396593475030866,0
449,-0.012522880987095513,0
450,0.3618800700764975,0
451,4.735167695562963,0
452,4.8555013270744505,0
453,-2.917894829794221,0
454,1.6082775782894088,0
455,-0.641189409814332,0
456,0.38964721837364785,0
457,-0.14754100765371647,0
458,-0.01579359338359823,0
459,0.033338756863135546,0
460,-0.05373337826441561,0
461,-0.14641535286267704,0
462,-0.012768301518838527,0
463,-0.001993227492617166,0
464,-0.06100629706856753,0
465,0.03462588192577249,0
466,0.045597333773942206,0
467,1.07291668387149,0
468,6.487498868049621,0
469,1.281619285334099,0
470,-1.784525661034447,0
471,1.2654760245237908,0
472,-0.5438960349894543,0
473,0.305222283217593,0
474,-0.09340151445846182,0
475,0.09909717907405399,0
476,0.04859362605647301,0
477,0.033923575681468365,0
478,0.04914082351609666,0
479,0.026975721399240413,0
480,0.0020554369319931345,0
481,0.03620662634256362,0
482,0.04106738196824443,0
483,0.10755917540019683,0
484,2.5818828535475853,0
485,6.886689812807497,0
486,-1.8822159943411214,0
487,0.3213639053430152,0
488,0.24215156805358568,0
489,0.019465328206842464,0
490,0.04574980393800179,0
491,-0.02659852235820588,0
492,-0.012270173268945462,0
493,0.07795818134291821,0
494,0.08294799718369761,0
495,0.0033765955126763315,0
496,0.0178759057731477,0
497,0.022325639662992162,0
498,0.059206752122910045,0
499,0.08316633530742418,0
500,0.3804275680009958,0
501,4.705876852413311,0
502,4.879552845662266,0
503,-3.064986653087347,0
504,1.5955426247774598,0
505,-0.7253182564166962,0
506,0.2605383524194752,0
507,-0.08168739626860315,0
508,0.00010354795400963762,0
509,-0.029045941178654066,0
510,-0.005472801395112262,0
511,-0.08981345945679514,0
512,-0.003852200847827541,0
513,0.01320030888210383,0
514,-0.04762673243830669,0
515,-0.03702870270550037,0
516,0.04566836215790742,0
517,1.0302460269217537,0
518,6.563947509488965,0
519,1.319242902286353,0
520,-1.738093997758564,0
521,1.1633426827480124,0
522,-0.6967344387169632,0
523,0.15920182950749984,0
524,-0.17237382991357628,0
525,-0.010357757825793422,0
526,-0.02566886424749267,0
527,-0.004747253553981825,0
528,-0.04627437466752359,0
529,0.028516875152301568,0
530,0.06678752944076324,0
531,0.05420280844212997,0
532,-0.008193701540551717,0
533,0.038238659316976516,0
534,2.6390534640364063,0
535,6.904855619475007,0
536,-1.973955675471361,0
537,0.39271378573033494,0
538,0.14153344560480613,0
539,-0.09254142840193502,0
540,0.01007672602571967,0
541,0.01102858176488217,0
542,0.005940124896553833,0
543,0.1433813233105275,0
544,0.09783281965940838,0
545,0.15492493205276978,0
546,0.08591549742209242,0
547,0.024936642601387216,0
548,0.08594595429846116,0
549,0.056790607294292486,0
550,0.3029657409367485,0
551,4.804664454432278,0
552,4.799365368429026,0
553,-2.9569498398090603,0
554,1.5360075182021742,0
555,-0.716194261943468,0
556,0.25930627901951625,0
557,-0.09312879696654625,0
558,-0.019986468705278242,0
559,-0.03295258748839865,0
560,-0.025484451031421575,0
561,0.028461885180633854,0
562,-0.08155783876445663,0
563,-0.10766496413252886,0
564,0.030659037264821387,0
565,0.037862858737766084,0
566,-0.030554596525283646,0
567,1.1174126872327654,0
568,6.61448401516589,0
569,1.4093607949724662,0
570,-1.8824148278532018,0
571,1.1967794647611436,0
572,-0.5498461186835754,0
573,0.2804999583959237,0
574,0.027684288161273038,0
575,0.09131780156208058,0
576,-0.10527312997959054,0
577,0.01977397684481455,0
578,0.03665391142344698,0
579,0.03235490476847732,0
580,0.09823307899887719,0
581,-0.07199793478790867,0
582,-0.015106170938791784,0
583,0.11377707944835795,0
584,2.6281423074779693,0
585,6.795206378302562,0
586,-2.0649440203008527,0
587,0.290422756304113,0
588,0.10472607350986587,0
589,-0.1421515050870325,0
590,-0.025303174726727433,0
591,-0.048977269721346486,0
592,-0.022711865351340784,0
593,0.035340888968528564,0
594,0.06507476678578972,0
595,0.024506736160696062,0
596,-0.05405874116702136,0
597,-0.021486360408966503,0
598,0.04131809005670953,0
599,0.01667359790935148,0
600,0.24101477344148917,0
601,4.743999163012736,0
602,4.772659737061977,0
603,-3.04246474180615,0
604,1.5622655788605218,0
605,-0.6434919782329028,0
606,0.25562669063902904,0
607,-0.1341062637843324,0
608,-0.02089979344760122,0
609,0.012861097348507648,0
610,0.019851236929663417,0
611,0.028177843145537496,0
612,-0.020790157355494353,0
613,0.026235440074294042,0
614,-0.009533261215624596,0
615,0.08867660577380118,0
616,-0.00279170691115372,0
617,1.0267531900281133,0
618,6.587178955146773,0
619,1.3696477960354672,0
620,-1.782551008392239,0
621,1.1964889889369241,0
622,-0.5240952901426679,0
623,0.34160761272065093,0
624,-0.06709964083908063,0
625,0.07989072437299637,0
626,0.01914219741905572,0
627,0.0667798144276344,0
628,0.09066370408327487,0
629,0.1227413596936946,0
630,-0.005938735065263975,0
631,0.2361364020207551,0
632,0.033111633148350215,0
633,0.16006864582845634,0
634,2.699372453277256,0
635,6.762344286892527,0
636,-1.9374857476322485,0
637,0.33996829565901665,0
638,0.10610000639565902,0
639,0.047080386230902195,0
640,-0.02609537668514761,0
641,0.05488368427718765,0
642,0.021995664582308116,0
643,-0.018489621356283112,0
644,0.09633195611670117,0
645,0.0938520331006666,0
646,0.10014624651048001,0
647,0.05719505236688351,0
648,0.04052395454605976,0
649,0.09171010239887961,0
650,0.30567106717242526,0
651,4.832657445079708,0
652,4.785514325651644,0
653,-2.9391182596762997,0
654,1.5881251579365296,0
655,-0.7149138709417598,0
656,0.3079927665122791,0
657,-0.11430752696018137,0
658,0.040364114940067884,0
659,0.05228125253137633,0
660,0.09685192859555669,0
661,0.02259968884153371,0
662,0.01703994038167269,0
663,0.06921375464267764,0
664,0.0072150312903497965,0
665,0.1696614617721703,0
666,-0.06626402104186176,0
667,1.0742666919630737,0
668,6.680677889236123,0
669,1.3488933298262227,0
670,-1.7615520730865892,0
671,1.1419902875009105,0
672,-0.5322697686799459,0
673,0.3160986215443295,0
674,-0.05762861865201396,0
675,0.10382906236420462,0
676,-0.006737462445658218,0
677,0.004092518085876649,0
678,0.014265196741204392,0
679,-0.002621981146655822,0
680,-0.06072449049704384,0
681,0.05345360381635258,0
682,0.06288282938925253,0
683,-0.009771040030651768,0
684,2.666375758824032,0
685,6.829795038722894,0
686,-1.8821180449673576,0
687,0.3611845949480664,0
688,0.2286846768201361,0
689,-0.038146127933697,0
690,0.0674551876501026,0
691,0.04765441245205525,0
692,0.03496695751773769,0
693,0.1335796787821682,0
694,0.06793779903187058,0
695,0.11730888559524914,0
696,0.1027685413798755,0
697,0.09774021315041176,0
698,0.01887767836801283,0
699,0.03954579980202685,0
700,0.3647372831689255,0
701,4.780684539978693,0
702,4.8438251332857405,0
703,-2.938302433502108,0
704,1.5608393578573,0
705,-0.7410534587764734,0
706,0.2872453185548656,0
707,-0.07760500627268373,0
708,0.05070091906361926,0
709,0.07964638931091207,0
710,-0.12742586128348576,0
711,0.027758949206089494,0
712,-0.026626110132147832,0
713,0.015288630343529695,0
714,-0.041359800696045425,0
715,0.007526434484773773,0
716,0.124453181789107,0
717,1.1906831570085556,0
718,6.610339267928106,0
719,1.2665215859039152,0
720,-1.7191177464651668,0
721,1.2029898981798484,0
722,-0.49846702857486375,0
723,0.32332736201305906,0
724,-0.049583383233096065,0
725,0.04967175288859959,0
726,0.1458586912787724,0
727,0.037925832065493076,0
728,0.07658129134174489,0
729,0.006559610217597843,0
730,0.074565364476208,0
731,0.028993548088633678,0
732,0.025731695946440668,0
733,0.044254774073821834,0
734,2.7500054373893237,0
735,6.778416526193746,0
736,-1.990126085070586,0
737,0.45364142955026077,0
738,0.020985950968957973,0
739,-0.08868178434476329,0
740,0.0550716553270161,0
741,0.004590709092368493,0
742,0.09117271074218534,0
743,0.1333062118971683,0
744,0.011977767978708358,0
745,0.10056659905231771,0
746,0.15052730142686563,0
747,-0.00949560217687647,0
748,0.05806561111171532,0
749,-0.005232287408054474,0
750,0.32645034880160034,0
751,4.84685942390486,0
752,4.735786139629933,0
753,-2.945362289671529,0
754,1.5553529134158732,0
755,-0.7050897079510267,0
756,0.2839934528969995,0
757,-0.07050592616980432,0
758,-0.0587085993261856,0
759,0.017549559205265235,0
760,0.07737141939549616,0
761,-0.04237120174962942,0
762,0.011196026356037909,0
763,-0.06776209363491617,0
764,-0.04768622905664644,0
765,0.00796257391013306,0
766,-0.04757070495578595,0
767,1.1853119694522398,0
768,6.675844954289292,0
769,1.1640536081019193,0
770,-1.7416212765179278,0
771,1.1869607765794348,0
772,-0.6249374795203926,0
773,0.27192636369007506,0
774,-0.0918043073900775,0
775,0.05546344878099227,0
776,0.09377127748899236,0
777,0.0989267958339881,0
778,0.14682952251942388,0
779,0.08465159410301075,0
780,0.04268638115559889,0
781,0.16001164041501403,0
782,0.0691016351860197,0
783,0.09770132374737459,0
784,2.805578633163582,0
785,6.830626776260016,0
786,-1.956947459586469,0
787,0.47186194805372794,0
788,0.07451638708000272,0
789,0.026908439391621283,0
790,0.027287762327503882,0
791,0.06231410574445925,0
792,0.035189231142018,0
793,0.05922492584159878,0
794,-0.07132396342803587,0
795,0.06047985010095279,0
796,-0.001849390753133999,0
797,0.004214556215009664,0
798,0.027553954493100698,0
799,-0.06601594549196624,0
800,0.36298430511506774,0
801,4.81046233929646,0
802,4.709677460909644,0
803,-2.889251551519361,0
804,1.6186048149113383,0
805,-0.7351000102080733,0
806,0.3734558218309024,0
807,-0.03299246326273551,0
808,0.09580723024693386,0
809,0.10857472731608546,0
810,-0.01443544648724545,0
811,0.07426540042835207,0
812,0.10173724818837414,0
813,0.06823241010384898,0
814,0.08251888194766965,0
815,0.0118095312506597,0
816,-0.026391253257968907,0
817,1.1172404670643037,0
818,6.506178174391081,0
819,1.2335154582480763,0
820,-1.7299110937051076,0
821,1.2368838541719402,0
822,-0.5825350955156149,0
823,0.3053223858900812,0
824,-0.0481292332330244,0
825,-0.04349912004128756,0
826,-0.0020262532054579705,0
827,0.030144445715108673,0
828,-0.0010977643863724273,0
829,-1.4901270157283153e-05,0
830,-0.04289252584755161,0
831,-0.0871515479592722,0
832,-0.03970842442825375,0
833,0.014949092515481877,0
834,2.71862153341108,0
835,6.785727866655045,0
836,-1.9933125103079246,0
837,0.40488214135330847,0
838,0.014319179729704652,0
839,-0.04524341727571819,0
840,0.05058419112249394,0
841,0.15538190369301935,0
842,0.010522752091391308,0
843,0.0375945745721851,0
844,0.040898258751015076,0
845,-0.0007471020880783497,0
846,0.0627888601487709,0
847,-0.0618345460227316,0
848,0.025193457368282282,0
849,0.051826048895037946,0
850,0.32317682577905305,0
851,4.85683971896324,0
852,4.648104954699914,0
853,-2.9326890582745437,0
854,1.609731599778671,0
855,-0.8004445223511693,0
856,0.3219509715295651,0
857,-0.055309520701704966,0
858,0.07852305618023504,0
859,0.047472133486379686,0
860,0.031568489188120066,0
861,0.06707244615631232,0
862,0.09162165211760764,0
863,-0.04596784737952996,0
864,0.1316493077246565,0
865,0.1040700814949749,0
866,0.07627161724970763,0
867,1.2258365419402222,0
868,6.580838316255164,0
869,1.178227156936664,0
870,-1.6807883709190299,0
871,1.286218922888235,0
872,-0.601220085062345,0
873,0.24952110778008565,0
874,0.002122676422081353,0
875,0.005502451623026039,0
876,0.12741989097682402,0
877,-0.011834592057508211,0
878,0.03821737003456748,0
879,0.12042470991229867,0
880,0.04335137492871737,0
881,-0.016166034716492236,0
882,0.0462462201800881,0
883,0.06742188823359127,0
884,2.701517260547234,0
885,6.863789169257334,0
886,-2.1313353403333477,0
887,0.347356212338838,0
888,0.025147314718742077,0
889,-0.013711925369379093,0
890,0.04415992139683997,0
891,-0.005339155227080915,0
892,-0.05138808027591343,0
893,0.006226385012272476,0
894,-0.034705757865314685,0
895,-0.004977480336036313,0
896,-0.0035929701021858267,0
897,0.07070493369564193,0
898,0.03089875546441129,0
899,-0.04351428335641221,0
900,0.2747885245602677,0
901,4.9211382479794965,0
902,4.697011134534262,0
903,-2.8816502322978166,0
904,1.643108748698286,0
905,-0.6980732270706693,0
906,0.36354361679992536,0
907,0.02714677480649052,0
908,0.024658912933994928,0
909,0.09977690010657675,0
910,0.18099582929004907,0
911,0.10259271986083066,0
912,0.053338912763537014,0
913,0.02953450065471054,0
914,0.12097089484559684,0
915,-0.023318703628336254,0
916,0.13824183154177333,0
917,1.1160235744400304,0
918,6.555803259189501,0
919,1.2288872970986122,0
920,-1.769362919645005,0
921,1.1737804346606908,0
922,-0.583681212609358,0
923,0.24966045475849744,0
924,-0.06309513730259517,0
925,-0.04695603750960775,0
926,-0.021859266557373646,0
927,0.03264222288684862,0
928,-0.05437390289779763,0
929,0.0064564693825907085,0
930,-0.05569667339641552,0
931,-0.008493668727556207,0
932,-0.01134475571572374,0
933,0.08708561219084586,0
934,2.8041784945990957,0
935,6.798832439690173,0
936,-2.0406541914344234,0
937,0.4666220999240142,0
938,0.12468583639528721,0
939,0.03840649166541734,0
940,0.007078257457780103,0
941,0.031168248647472648,0
942,0.09950149038253747,0
943,0.02146759840155278,0
944,0.0707603510487143,0
945,-0.10047275855265649,0
946,0.016783813240580273,0
947,0.016596258663315936,0
948,0.01362345232836204,0
949,0.033061978123636086,0
950,0.35259003121871446,0
951,4.911831180251022,0
952,4.586014239405419,0
953,-2.9899023453459868,0
954,1.6271036597232253,0
955,-0.7621642780175603,0
956,0.30225182694918634,0
957,-0.05022470003457135,0
958,0.00954283244583888,0
959,0.050621582575714086,0
960,0.07750541748811904,0
961,0.03822058738188047,0
962,0.008692232337535178,0
963,0.12548196404581405,0
964,0.06403628656904015,0
965,0.07978446304948711,0
966,0.0011368983217469805,0
967,1.205734247295196,0
968,6.705162417238473,0
969,1.1950251772818659,0
970,-1.569319250006883,0
971,1.1421520735814925,0
972,-0.480146759557685,0
973,0.3588611893573291,0
974,-0.09139234779602949,0
975,0.12341176713228255,0
976,0.022595434682380438,0
977,-0.004144202894434675,0
978,-0.029819240025993614,0
979,0.12073260930913933,0
980,0.013189432311546762,0
981,0.13815970744656703,0
982,0.032701167604968516,0
983,0.003378697644428705,0
984,2.7882468439382726,0
985,6.817808464883533,0
986,-2.086541865600164,0
987,0.44664998254303107,0
988,0.03865552483109821,0
989,-0.10616328737986719,0
990,0.056289922826084735,0
991,0.04637862814707135,0
992,-0.003566080221644438,0
993,0.04735322098721725,0
994,0.11165584139247904,0
995,-0.01969151273075346,0
996,0.03912174453569601,0
997,-0.06215078649741959,0
998,0.053924872806168755,0
999,0.026190135047429897,0
1000,0.32357943751624285,0
1001,4.902682973226434,0
1002,4.731452222080014,0
1003,-2.9953440884200067,0
1004,1.674939910222691,0
1005,-0.807535332363951,0
1006,0.38811432183620903,0
1007,-0.14177148822854277,0
1008,0.012236529502287687,0
1009,-0.001491518619636107,0
1010,-0.030966314040766767,0
1011,-0.03902828175439142,0
1012,0.01762770671312667,0
1013,-0.020095251304629108,0
1014,0.09291233893717202,0
1015,0.03920501169836377,0
1016,-0.0068056841033672655,0
1017,1.0870988079254376,0
1018,6.586593305087548,0
1019,1.0911168619203064,0
1020,-1.6243086223868166,0
1021,1.1414779718665846,0
1022,-0.5748222490219279,0
1023,0.3039722852047328,0
1024,0.0008587266949473538,0
1025,0.06845208321129816,0
1026,-0.008693869664082348,0
1027,0.0007210909701516489,0
1028,0.04917639503906344,0
1029,-0.008632269147146982,0
1030,0.08900537320978853,0
1031,0.048861166281250215,0
1032,-0.06533229162560411,0
1033,0.09703197860745616,0
1034,2.7836679082353224,0
1035,6.767164295945752,0
1036,-2.1099287365295267,0
1037,0.45215208000395557,0
1038,0.016011267001583236,0
1039,0.02560919590741216,0
1040,0.04609389446313046,0
1041,-0.023010480205063216,0
1042,-0.03529043764894183,0
1043,0.03232689899968495,0
1044,-0.03780818266935689,0
1045,-0.035518978079408264,0
1046,0.07520232530676879,0
1047,0.04334860161333337,0
1048,-0.052598727286627275,0
1049,0.010792409749344298,0
1050,0.3017080502960583,0
1051,4.907339914650277,0
1052,4.656130187222856,0
1053,-3.054842529173958,0
1054,1.453589476644846,0
1055,-0.7705972476527244,0
1056,0.2606542593976484,0
1057,-0.12162562289493797,0
1058,0.07338924500270091,0
1059,-0.09794403445866603,0
1060,-0.032764306590426034,0
1061,-0.016599559504713278,0
1062,0.04577820775923347,0
1063,0.010391022510817347,0
1064,-0.034989490164355194,0
1065,0.023059564783501345,0
1066,0.009439167876220081,0
1067,1.0411418574922213,0
1068,6.601655276111626,0
1069,0.9466134851000799,0
1070,-1.7235162764962666,0
1071,1.0572231957757745,0
1072,-0.5968461354137523,0
1073,0.3070149900951789,0
1074,-0.10336610953622608,0
1075,-0.05439386401927382,0
1076,-0.024759870785393483,0
1077,-0.06759027351465133,0
1078,0.026207026698961258,0
1079,-0.06837146606135044,0
1080,-0.03154678237283992,0
1081,0.006853912435892125,0
1082,-0.06946584532716821,0
1083,0.07685684231192154,0
1084,2.642445202522275,0
1085,6.646769861835009,0
1086,-2.2241800807184062,0
1087,0.5109666956400578,0
1088,-0.03512009049658349,0
1089,-0.13024140107423504,0
1090,0.026942048305569108,0
1091,0.004654610032760624,0
1092,-0.05091306934407579,0
1093,-0.07116942840527578,0
1094,-0.0711097745105813,0
1095,-0.07862538236950162,0
1096,-0.04859770804099578,0
1097,-0.03349635996353783,0
1098,-0.0362977574208619,0
1099,0.06424499331362143,0
1100,0.2819479585401641,0
1101,4.908747854271766,0
1102,4.539567853221407,0
1103,-3.003152375294022,0
1104,1.6369695871821326,0
1105,-0.7786771266412362,0
1106,0.28394459695908264,0
1107,-0.12268844393347786,0
1108,0.1298517431059134,0
1109,-0.04457015994081695,0
1110,-0.007191991316275698,0
1111,0.10296657167208718,0
1112,0.041764845718545,0
1113,0.037018302717036135,0
1114,-0.07570438435621199,0
1115,0.06356936440743996,0
1116,0.061277503248425215,0
1117,1.2086448335915183,0
1118,6.612688918551671,0
1119,1.0165154520365591,0
1120,-1.6936955639077238,0
1121,1.1115403397625492,0
1122,-0.47557307334178034,0
1123,0.3448933849109154,0
1124,0.027855336292498575,0
1125,0.055463246416456904,0
1126,0.059798115134173616,0
1127,0.03972976020839918,0
1128,-0.04756298757312169,0
1129,0.07100570342803887,0
1130,-0.021464973495657333,0
1131,-0.06310692677975886,0
1132,0.06901712851974813,0
1133,0.035537360293026704,0
1134,2.7512022547097237,0
1135,6.687454575519591,0
1136,-2.065077188672031,0
1137,0.5441774429854138,0
1138,-0.02271395270398289,0
1139,0.0639239440938745,0
1140,0.05978512317103484,0
1141,0.04871985253227034,0
1142,0.062018929704876574,0
1143,0.016915308829949738,0
1144,-0.0766337709107118,0
1145,0.09154643357162665,0
1146,0.04917851223008238,0
1147,0.0037106993080136767,0
1148,0.03878797251774696,0
1149,-0.10907076259044259,0
1150,0.23555694667371663,0
1151,4.87131679954121,0
1152,4.48883555007476,0
1153,-3.0093009921631126,0
1154,1.5431265747685767,0
1155,-0.8009897919770512,0
1156,0.20632033866076754,0
1157,-0.0985642973379898,0
1158,0.038732911842594184,0
1159,-0.03245503389127191,0
1160,0.04884826153240815,0
1161,-0.07565460782614244,0
1162,-0.07729977597014961,0
1163,0.029122324306764383,0
1164,0.004392508071587838,0
1165,-0.0229537272669026,0
1166,-0.04810772274445745,0
1167,1.1318311948190298,0
1168,6.633683919858648,0
1169,1.03302685926629,0
1170,-1.6439753351966837,0
1171,1.1880720595757432,0
1172,-0.5681703762409426,0
1173,0.2990219023151747,0
1174,-0.027686744886305154,0
1175,-0.01414532169542397,0
1176,0.05961098826770329,0
1177,0.0057673684857319895,0
1178,0.01144731001030491,0
1179,-0.05420493802626905,0
1180,0.1056043949464579,0
1181,-0.07883992619190335,0
1182,0.012124703546589772,0
1183,0.029190836522481445,0
1184,2.800835281694029,0
1185,6.763552790472221,0
1186,-2.1940009514967183,0
1187,0.5006882588169435,0
1188,0.06041267814415005,0
1189,-0.052048306771473755,0
1190,0.029450279562591306,0
1191,0.020488186955322438,0
1192,0.052388382680131865,0
1193,0.03168427683669612,0
1194,0.004526525515338886,0
1195,0.017637268672668682,0
1196,-0.041148598752706406,0
1197,0.006844419947729732,0
1198,-0.1164578059793356,0
1199,-0.06154874064182424,0
1200,0.29323154305421195,0
1201,4.895458997610504,0
1202,4.549148848175292,0
1203,-3.035366144700752,0
1204,1.5437146145272829,0
1205,-0.7651177648662884,0
1206,0.3492727702744358,0
1207,-0.13372930053544058,0
1208,-0.0019520538610787938,0
1209,0.029892887392531927,0
1210,-0.08750752085000779,0
1211,0.028788009493402832,0
1212,-0.02135582478442726,0
1213,0.11253246858053653,0
1214,0.033055913889847036,0
1215,-0.03420976670140247,0
1216,-0.013284508899675473,0
1217,1.1373098023280956,0
1218,6.648271981047082,0
1219,1.063365455410127,0
1220,-1.6079321783293663,0
1221,1.1806866854251066,0
1222,-0.612439116773226,0
1223,0.2190069799762982,0
1224,-0.08370662875588075,0
1225,0.05956330197887606,0
1226,0.07343250952479888,0
1227,0.1110373411708117,0
1228,0.039911252686842785,0
1229,-0.013934850781972558,0
1230,-0.06624257699650976,0
1231,0.019626439978687397,0
1232,-0.002296947893837116,0
1233,0.01844112162116378,0
1234,2.764858108309241,0
1235,6.646253808178418,0
1236,-2.2253639294823486,0
1237,0.45186699658409346,0
1238,-0.09071001621112706,0
1239,-0.11588129403860825,0
1240,-0.11650136789285506,0
1241,-0.16667232228844922,0
1242,-0.10207797316077015,0
1243,0.09718222590651768,0
1244,-0.056771549100011184,0
1245,-0.03912298395412142,0
1246,-0.0286610809743424,0
1247,-0.01589391076063604,0
1248,0.01498290995487345,0
1249,-0.0015435417731206012,0
1250,0.41412302385157074,0
1251,4.924509204676055,0
1252,4.5666400855933365,0
1253,-3.072670004530688,0
1254,1.5767863187094278,0
1255,-0.7901988208442144,0
1256,0.33095825627360875,0
1257,-0.06979664797124813,0
1258,0.015598482045728427,0
1259,-0.025163481621607062,0
1260,0.009912783840486251,0
1261,-0.024504777973404668,0
1262,-0.0789304109545717,0
1263,-0.060274862978277895,0
1264,-0.022581871761717366,0
1265,-0.07207766260005675,0
1266,-0.036667092139635066,0
1267,1.2589334245480837,0
1268,6.639816421839891,0
1269,0.8264589306937346,0
1270,-1.7190175452379524,0
1271,1.1668828382654202,0
1272,-0.5485576858957056,0
1273,0.2878653045711129,0
1274,-0.0936063894039112,0
1275,0.14583595447306838,0
1276,-0.09439640649999964,0
1277,0.013874032493920704,0
1278,-0.09163357266112851,0
1279,0.06213199444445667,0
1280,-0.07222226399326422,0
1281,-0.11769952669588962,0
1282,-0.017258853400301335,0
1283,-0.023530003662561055,0
1284,2.852479468881532,0
1285,6.741529822859768,0
1286,-2.201563871121465,0
1287,0.5877774253684455,0
1288,-0.1014911427854677,0
1289,-0.009559885987136786,0
1290,-0.0901650098027656,0
1291,-0.041492082606370155,0
1292,0.05377697754280651,0
1293,-0.010195036611896104,0
1294,-0.05808103122894553,0
1295,-0.11006684278769047,0
1296,-0.029438848389916377,0
1297,-0.14024244588999007,0
1298,-0.050463353440032326,0
1299,-0.03664815335050476,0
1300,0.27463805116656803,0
1301,4.897705221763084,0
1302,4.3880699594297905,0
1303,-3.043140517413006,0
1304,1.4952351122986058,0
1305,-0.836312332504082,0
1306,0.2886771384519442,0
1307,-0.15517161292111215,0
1308,0.0011467585992518004,0
1309,-0.038756719280078296,0
1310,-0.023560310855100842,0
1311,-0.10043253732205663,0
1312,-0.022367130315254596,0
1313,-0.06241591068179319,0
1314,-0.0015348046361706932,0
1315,-0.021214902797849076,0
1316,0.021149949110664833,0
1317,1.0642853722017724,0
1318,6.635167906997031,0
1319,0.9360654490492373,0
1320,-1.6192220172669458,0
1321,1.1683065927030598,0
1322,-0.6003751471043896,0
1323,0.12377590108626421,0
1324,-0.10810541018382226,0
1325,-0.053182150099317024,0
1326,-0.06750584773848319,0
1327,-0.17153086403248607,0
1328,-0.071587637650725,0
1329,-0.07444016007845516,0
1330,-0.09032700948412677,0
1331,-0.015862731693110678,0
1332,-0.17309597639302196,0
1333,0.09127846581592808,0
1334,2.7620289972168472,0
1335,6.626554858620744,0
1336,-2.217906984401262,0
1337,0.5044840388774698,0
1338,-0.051101373388097206,0
1339,-0.007968774256936421,0
1340,-0.06632562753828254,0
1341,-0.020541786415509508,0
1342,0.014423787929733506,0
1343,-0.04963016637468984,0
1344,-0.024800259035056844,0
1345,-0.05701842977219032,0
1346,-0.053811051669530846,0
1347,-0.08436591232458282,0
1348,-0.10326613016057846,0
1349,-0.13088885494125085,0
1350,0.339398313631018,0
1351,4.867795072710943,0
1352,4.418448046680439,0
1353,-2.980828931943188,0
1354,1.5089299375640197,0
1355,-0.856203989316262,0
1356,0.27106567288774414,0
1357,-0.17472583636025105,0
1358,-0.08933149225409069,0
1359,0.03669134671276206,0
1360,-0.0449597673650395,0
1361,0.0013570671857287553,0
1362,0.05205371122365199,0
1363,-0.0006685545907248458,0
1364,-0.1067316833061892,0
1365,-0.0015617038307153344,0
1366,0.031570207107726844,0
1367,1.2926642530722958,0
1368,6.589552797810853,0
1369,0.7696933862375903,0
1370,-1.5442260803371628,0
1371,1.0384931688161918,0
1372,-0.5333568859893555,0
1373,0.2745241867368011,0
1374,-0.05339802524713408,0
1375,0.0393562323426883,0
1376,-0.013626868117104226,0
1377,-0.009760774469762017,0
1378,-0.05611240543706833,0
1379,-0.06463599454253775,0
1380,-0.019010909115986283,0
1381,0.08879308807016599,0
1382,-0.0025130006105031216,0
1383,0.05151733677384562,0
1384,2.8215586097777736,0
1385,6.661136058041963,0
1386,-2.299523666609122,0
1387,0.4185096446656157,0
1388,-0.05802088806350466,0
1389,0.0018874798058201789,0
1390,-0.14212865436063035,0
1391,0.019084426103439554,0
1392,0.004706014690343548,0
1393,0.0430789171840075,0
1394,-0.017320551021170343,0
1395,-0.06527459186551482,0
1396,-0.05317552056198629,0
1397,-0.07611554085485006,0
1398,0.018869434157972535,0
1399,-0.11110391216650256,0
1400,0.32783566835908723,0
1401,4.936149162222428,0
1402,4.432716435730599,0
1403,-2.9267482794120334,0
1404,1.5616817411214743,0
1405,-0.790961734735858,0
1406,0.31246467147906126,0
1407,-0.11326651196794796,0
1408,-0.10287386230391309,0
1409,-0.02647921737966921,0
1410,-0.07958423949749585,0
1411,-0.011139352275813596,0
1412,0.02419096556649687,0
1413,-0.12399404285647143,0
1414,-0.07843137575738349,0
1415,0.02233996862020635,0
1416,-0.024610153274346614,0
1417,1.176132622502188,0
1418,6.646363677143594,0
1419,0.8572779201630161,0
1420,-1.6824665848721463,0
1421,1.0667870165434628,0
1422,-0.5166836593091265,0
1423,0.17101683608685136,0
1424,-0.10306646009002952,0
1425,-0.0456929987730642,0
1426,-0.08828912617678492,0
1427,0.028396962555159697,0
1428,-0.06863403938670204,0
1429,0.0108327369593794,0
1430,0.029879772679042536,0
1431,-0.06816856281768038,0
1432,-0.07012910855257952,0
1433,0.021434532446423772,0
1434,2.852605186401067,0
1435,6.700438781859684,0
1436,-2.1679898396859056,0
1437,0.5926390481725141,0
1438,0.061907866643357255,0
1439,0.03871506783679836,0
1440,-0.03610424568955629,0
1441,0.07607886577741085,0
1442,0.0011244799071923016,0
1443,0.017965097772655026,0
1444,-0.01567468094929803,0
1445,0.0623315885117411,0
1446,0.005283941694272565,0
1447,0.04268918366045882,0
1448,0.06849707263447882,0
1449,-0.013052878110289427,0
1450,0.27882137762918313,0
1451,4.9810002310402215,0
1452,4.4250041378980205,0
1453,-2.9669189193457903,0
1454,1.5781414516571088,0
1455,-0.7460179839602742,0
1456,0.4671230148923049,0
1457,-0.019408086684241183,0
1458,0.11473070321512924,0
1459,-0.037143865679202526,0
1460,0.11040013886797409,0
1461,0.06095282783504344,0
1462,0.05068014129414945,0
1463,0.15172141574036577,0
1464,-0.024990720443272933,0
1465,0.04454100876162956,0
1466,0.08606852719545069,0
1467,1.1943030294069703,0
1468,6.6252682243321805,0
1469,0.8676383970035653,0
1470,-1.506334434109084,0
1471,1.0239832607451307,0
1472,-0.6092349935236597,0
1473,0.24343940819332655,0
1474,-0.0912402715325462,0
1475,-0.07733896746062668,0
1476,-0.04341991498077444,0
1477,0.011342944056952664,0
1478,0.046748738302550746,0
1479,-0.05710929552152336,0
1480,-0.04046472425874787,0
1481,-0.042953116574809394,0
1482,0.03740080322154533,0
1483,0.062254046574867536,0
1484,2.892542523393935,0
1485,6.6961232646037,0
1486,-2.2803601661732777,0
1487,0.6438562157975766,0
1488,-0.09652450659551623,0
1489,-0.04360549892628456,0
1490,0.0025285098079902354,0
1491,-0.008889115188520855,0
1492,-0.00822498573978066,0
1493,-0.04286589784418299,0
1494,-0.01347530043148049,0
1495,0.0626809693217061,0
1496,-0.06636586981527684,0
1497,0.000556104062556401,0
1498,-0.07766630787622336,0
1499,0.0016021786354915631,0
1500,0.30735430696355137,0
1501,5.0911219066559745,0
1502,4.415877992962826,0
1503,-2.992421065858147,0
1504,1.6109748929691914,0
1505,-0.8283373524390366,0
1506,0.4555591986906744,0
1507,-0.13672011995889222,0
1508,0.06865737303576158,0
1509,-0.0452156588227602,0
1510,0.0011025173744882676,0
1511,0.008799558231920785,0
1512,0.06736522862539174,0
1513,0.044266842943992676,0
1514,-0.02900482650789856,0
1515,0.005474915596257596,0
1516,0.06529724691642771,0
1517,1.217380637466166,0
1518,6.6913685902296445,0
1519,0.8438728972313112,0
1520,-1.5504838561932925,0
1521,1.1045875594607042,0
1522,-0.6271973972193615,0
1523,0.2603850139955478,0
1524,-0.08987344092446553,0
1525,0.04339336490424454,0
1526,-0.05024254157293649,0
1527,0.005644977678974188,0
1528,0.07003126290362822,0
1529,-0.019725743864199216,0
1530,0.08018546655105513,0
1531,-0.01647300426524819,0
1532,0.1508035052379622,0
1533,0.055546645102452386,0
1534,2.8572730060832265,0
1535,6.7647902757064395,0
1536,-2.1877058556034994,0
1537,0.5641279366893476,0
1538,-0.1271936009149906,0
1539,0.1006852695395678,0
1540,0.043017616656057356,0
1541,0.029918084136384658,0
1542,-0.01318337290048375,0
1543,-0.051328063350218334,0
1544,-0.06416412952312878,0
1545,-0.037560442423473395,0
1546,-0.02697842862555684,0
1547,-0.031043343004257484,0
1548,-0.0339398897040344,0
1549,0.024443825279016625,0
1550,0.3480473733438649,0
1551,5.034067641386745,0
1552,4.436342505757747,0
1553,-2.976778597149794,0
1554,1.580474470313283,0
1555,-0.7329817316321472,0
1556,0.36656275445715686,0
1557,-0.12406570344441875,0
1558,0.04398617162219171,0
1559,-0.04446209506701215,0
1560,0.04616051797887535,0
1561,0.042858016769845235,0
1562,0.05195458319173761,0
1563,0.10964597034680318,0
1564,0.0013849262257268243,0
1565,0.03429439720361749,0
1566,-0.007682928522683041,0
1567,1.3633528842330902,0
1568,6.639079185724674,0
1569,0.7904996238085876,0
1570,-1.570470052291087,0
1571,1.1144820241067468,0
1572,-0.4727654908041597,0
1573,0.20821783839253938,0
1574,-0.04222694491078668,0
1575,0.11335067455514505,0
1576,0.012495818491745579,0
1577,0.08192897410423121,0
1578,-0.06669961463312571,0
1579,0.038909817317215385,0
1580,-0.07151552290948164,0
1581,0.07812724407449545,0
1582,0.050184621729202,0
1583,0.09044814703174281,0
1584,2.8564679405387516,0
1585,6.695216186585574,0
1586,-2.2036360440892824,0
1587,0.6529101722282521,0
1588,-0.03903314900910699,0
1589,0.11786455651074101,0
1590,-0.025910344977365322,0
1591,0.009409506365400881,0
1592,-0.01634843355428125,0
1593,-0.031111064761990256,0
1594,0.11458386319164415,0
1595,0.12325119564310658,0
1596,0.07533449545640372,0
1597,0.12469982450450659,0
1598,0.06397734474117844,0
1599,0.17924210134063928,0
1600,0.44907136002223885,0
1601,5.1080166776694265,0
1602,4.4126759436541825,0
1603,-2.7850637728250534,0
1604,1.7866518504582196,0
1605,-0.7084235729643141,0
1606,0.4229111873262973,0
1607,0.006711172091245117,0
1608,0.09744015581206272,0
1609,0.009390688565475112,0
1610,0.04007839304760241,0
1611,-0.01007803075633202,0
1612,0.04203713976928198,0
1613,-0.005458477009689199,0
1614,0.049529016626873645,0
1615,0.07200474796489656,0
1616,0.03223740716676758,0
1617,1.2937577132221045,0
1618,6.662809709755174,0
1619,0.7411362297495199,0
1620,-1.517040450901837,0
1621,1.1588236981350222,0
1622,-0.41875706233882415,0
1623,0.41177987797507437,0
1624,-0.035811156099755284,0
1625,0.11366778996077727,0
1626,0.07551819649469571,0
1627,0.011433617868667496,0
1628,0.12739758044979982,0
1629,0.06239440337574187,0
1630,0.03712001753817011,0
1631,0.018218143616859837,0
1632,0.08125425390427947,0
1633,0.11098860093966459,0
1634,2.895341372428643,0
1635,6.756202731996262,0
1636,-2.2880872820397102,0
1637,0.679457728851742,0
1638,-0.12637338384095298,0
1639,0.0009881760397406555,0
1640,-0.04558772731007802,0
1641,0.052113715512956446,0
1642,-0.009152582237214702,0
1643,0.06741655257090845,0
1644,-0.01638282093397326,0
1645,0.09824890911929482,0
1646,0.03731050334456079,0
1647,0.0006041581688511193,0
1648,0.013020557713711994,0
1649,-0.03425038810890056,0
1650,0.4228241363578294,0
1651,4.963807832042587,0
1652,4.420906658593544,0
1653,-2.926786403719652,0
1654,1.562627889349593,0
1655,-0.8168950549394638,0
1656,0.3406640624269809,0
1657,-0.21274353102218613,0
1658,0.08306903910216645,0
1659,0.0038280800952805276,0
1660,0.08271706148626129,0
1661,0.1721902188412139,0
1662,0.004715968032248573,0
1663,-0.015151185265593947,0
1664,-0.049032811405602256,0
1665,0.04961470151625977,0
1666,0.06546449072010008,0
1667,1.3591567286213844,0
1668,6.756193660133142,0
1669,0.8144861230360374,0
1670,-1.5058191934077139,0
1671,1.022351109861133,0
1672,-0.574520895946173,0
1673,0.1332051927984822,0
1674,-0.10105159859113659,0
1675,0.031011476036114025,0
1676,0.01913069022150613,0
1677,0.02998873921429055,0
1678,-0.010214864261056812,0
1679,-0.005995987648589468,0
1680,0.03155677571632548,0
1681,-0.010073391842898053,0
1682,-0.009854815778804062,0
1683,0.011106269818497827,0
1684,2.8275097596686014,0
1685,6.675210360311792,0
1686,-2.365119785559544,0
1687,0.6423103878482825,0
1688,-0.07247510389824978,0
1689,-0.02713083817880029,0
1690,-0.03757711258854629,0
1691,-0.059162306731824675,0
1692,0.017477034523294674,0
1693,0.009779415697410296,0
1694,0.06180229647506567,0
1695,-0.009347265124664314,0
1696,0.06885034049189818,0
1697,0.00666185802937869,0
1698,-0.06886927078779156,0
1699,-0.030116327959409064,0
1700,0.39899737641436245,0
1701,5.077830981392772,0
1702,4.292543983693071,0
1703,-2.9944944194475656,0
1704,1.590309296761534,0
1705,-0.8185778719123702,0
1706,0.3455417353273071,0
1707,-0.15195583297138734,0
1708,-0.0030609916269852197,0
1709,-0.009736764391856848,0
1710,0.04709736103080581,0
1711,0.014984383074745478,0
1712,-0.036753753453381846,0
1713,-0.008906532497232462,0
1714,0.013030020572207819,0
1715,-0.08446594472728736,0
1716,0.04327598289450524,0
1717,1.1938589278820058,0
1718,6.685473911274016,0
1719,0.7575222030956156,0
1720,-1.4732364724784657,0
1721,0.9313039205923324,0
1722,-0.49000363922814805,0
1723,0.20825424772230078,0
1724,-0.00326957169905627,0
1725,0.011178948633499684,0
1726,-0.0007855778333546448,0
1727,-0.0024200628937374596,0
1728,-0.07261755160061209,0
1729,0.11541068533683085,0
1730,-0.04877258308592265,0
1731,0.014859337001851693,0
1732,0.10495387265083235,0
1733,0.037387043020126534,0
1734,2.8679711780990953,0
1735,6.6152028071555025,0
1736,-2.3830544499681294,0
1737,0.6391182664493464,0
1738,-0.08066428185738159,0
1739,0.032883045971747155,0
1740,-0.16811436474333505,0
1741,-0.03648634640935403,0
1742,-0.050782372592610356,0
1743,-0.11980043916058128,0
1744,-0.04499407375309157,0
1745,0.01901916959605343,0
1746,0.004123493329995814,0
1747,-0.0014732668889355857,0
1748,-0.059324879826349465,0
1749,-0.011381105772940032,0
1750,0.39658185896997855,0
1751,5.026503031215762,0
1752,4.3191236246067675,0
1753,-2.9973430194168715,0
1754,1.5727686871523336,0
1755,-0.6605749527658251,0
1756,0.3616619108867474,0
1757,-0.12486138408609726,0
1758,0.008227597548661585,0
1759,-0.059074317747282744,0
1760,-0.08815248809859066,0
1761,-0.028175081212451818,0
1762,-0.05049874447602369,0
1763,-0.019553628022120836,0
1764,-0.05230703523223261,0
1765,-0.04522608526390712,0
1766,-0.14399319813223446,0
1767,1.2610193991440939,0
1768,6.8314614671763305,0
1769,0.8335742643157049,0
1770,-1.4361356996639596,0
1771,1.0516155427265803,0
1772,-0.4634782339132705,0
1773,0.3125669804301654,0
1774,-0.1115201061554091,0
1775,0.02199283520671946,0
1776,0.04136273734557718,0
1777,0.07004900063380892,0
1778,0.05826824717053815,0
1779,0.04474451287963385,0
1780,0.05512619737969703,0
1781,-0.026119739779058036,0
1782,0.13051628666121787,0
1783,0.07775785876469139,0
1784,2.948032185343289,0
1785,6.639057260092613,0
1786,-2.3142479472416784,0
1787,0.6057153372675262,0
1788,-0.21829810890375573,0
1789,-0.051298906960441315,0
1790,-0.0424335177215918,0
1791,-0.0024753922018237087,0
1792,0.07733100908223112,0
1793,-0.071510703638508,0
1794,-0.004284490020676205,0
1795,-0.02499705274898872,0
1796,-0.01121558083077528,0
1797,0.0044347958286579114,0
1798,-0.024644961980849263,0
1799,0.05482123229369179,0
1800,0.4077164396215532,0
1801,5.098391352696677,0
1802,4.268112141207713,0
1803,-3.0022267266257545,0
1804,1.5755266742783742,0
1805,-0.8417441163920271,0
1806,0.348410631063866,0
1807,-0.11068320088826099,0
1808,-0.023834355157634098,0
1809,-0.002818063602427052,0
1810,-0.012509288938239117,0
1811,-0.011856187730134459,0
1812,0.03686577328324489,0
1813,0.028046294327938946,0
1814,-0.00234298141586115,0
1815,-0.08247797482356709,0
1816,0.02233480568502705,0
1817,1.297611785600716,0
1818,6.840816037507327,0
1819,0.6874461537807418,0
1820,-1.4500093652036723,0
1821,0.997085143575544,0
1822,-0.557978423921218,0
1823,0.30133049759463615,0
1824,-0.11574136801619986,0
1825,-0.003526863999743904,0
1826,0.0394257490932681,0
1827,0.07096909688627351,0
1828,-0.03485722266327514,0
1829,0.10927572427858256,0
1830,0.03165692123647044,0
1831,0.053693249357289474,0
1832,0.04359125276845291,0
1833,0.20623585036154218,0
1834,2.932059031094616,0
1835,6.629720554577874,0
1836,-2.3586276222948346,0
1837,0.6878105359301561,0
1838,-0.06979577617374953,0
1839,-0.08211550905772254,0
1840,-0.035450949032192175,0
1841,0.09256643672287918,0
1842,0.020700059428694503,0
1843,0.009838942182458297,0
1844,0.05537012937709823,0
1845,-0.014054708662928694,0
1846,0.01447016645733601,0
1847,0.02678260018961893,0
1848,-0.0010694446654374527,0
1849,0.01099757928551697,0
1850,0.38787501113055023,0
1851,5.114368536466354,0
1852,4.349909782721534,0
1853,-2.8731157636009086,0
1854,1.6258841648368307,0
1855,-0.7194907636183373,0
1856,0.23362308500171988,0
1857,-0.13817060240642082,0
1858,0.04063202592266551,0
1859,-0.013809918037659094,0
1860,0.0363029586532563,0
1861,0.06270254080433896,0
1862,-0.02462684163905151,0
1863,0.055699783499440915,0
1864,0.03346725442889962,0
1865,-0.04170708299594648,0
1866,0.09801888692868226,0
1867,1.2051331275371304,0
1868,6.82630610070312,0
1869,0.6290228486666025,0
1870,-1.4736591826062928,0
1871,0.9566110367077011,0
1872,-0.5625838044988378,0
1873,0.1808434796874117,0
1874,-0.05204294303535649,0
1875,-0.06461268623562925,0
1876,-0.03755042795596682,0
1877,-0.0021258986787051244,0
1878,-0.01710233783200388,0
1879,0.028080672831480212,0
1880,-0.061792810301204495,0
1881,0.05621433250609847,0
1882,-0.03102405972400448,0
1883,0.08503230967437804,0
1884,2.9571929945639415,0
1885,6.597559843667918,0
1886,-2.3019519346518775,0
1887,0.5996717972256185,0
1888,-0.09794062934029871,0
1889,0.016766469555877427,0
1890,0.003931208726329507,0
1891,-0.03309079278162536,0
1892,-0.014649843186493556,0
1893,0.02802043318642968,0
1894,0.0588892899057714,0
1895,0.07688384262083262,0
1896,0.11061264084371064,0
1897,-0.02066523433743024,0
1898,0.008197366938854513,0
1899,0.08550806747932287,0
1900,0.3815585927602005,0
1901,5.160105218270897,0
1902,4.216512787155132,0
1903,-2.8282896881250634,0
1904,1.5699198402416388,0
1905,-0.746437397436269,0
1906,0.4074294117767713,0
1907,-0.10375308022830465,0
1908,0.0637659755864214,0
1909,-0.03740667231733855,0
1910,0.10065727525334339,0
1911,0.04837999381082791,0
1912,0.10706148768524466,0
1913,0.08979937109713684,0
1914,-0.08308903386234906,0
1915,-0.017191285623415393,0
1916,0.023260398288038275,0
1917,1.3139069645223835,0
1918,6.803166311059091,0
1919,0.7100237813511665,0
1920,-1.4755369067428215,0
1921,0.9948944408381489,0
1922,-0.5657286128008374,0
1923,0.23055046123469836,0
1924,-0.02898392070895443,0
1925,0.1520911370915921,0
1926,0.07397894663960007,0
1927,0.06339465744191887,0
1928,0.01731152456387029,0
1929,-0.01551821390801882,0
1930,-0.022176034052635882,0
1931,0.035625281561000886,0
1932,0.021513033711092252,0
1933,0.05450778035527027,0
1934,3.0505654026236875,0
1935,6.591608022854301,0
1936,-2.4129870482202573,0
1937,0.6426469672657416,0
1938,-0.15511353171236927,0
1939,0.03989440472474294,0
1940,-0.012936206947001337,0
1941,0.010873287619908202,0
1942,-0.06915998041955464,0
1943,-0.010093586841791163,0
1944,-0.04603439094048117,0
1945,-0.05022845612325894,0
1946,-0.03308558888834146,0
1947,0.04333814292977221,0
1948,-0.06948123788098332,0
1949,0.030142181533185625,0
1950,0.36879890984616265,0
1951,5.1222331405469355,0
1952,4.284695298824621,0
1953,-2.857376856370752,0
1954,1.635461420771947,0
1955,-0.7036534985094903,0
1956,0.31560036242923045,0
1957,-0.07715341927141767,0
1958,0.12408221902540137,0
1959,0.11355267349239442,0
1960,0.11226369961933465,0
1961,0.12152008831345915,0
1962,0.09144919726626918,0
1963,-0.0003058099514643281,0
1964,0.016880256972239042,0
1965,0.08704913315199869,0
1966,0.05703683048371175,0
1967,1.4164091386860662,0
1968,6.758224999784495,0
1969,0.6179250836691131,0
1970,-1.4657029808968127,0
1971,1.0748797989872974,0
1972,-0.5564786648021628,0
1973,0.3365165326401687,0
1974,-0.049695285918408924,0
1975,-0.004665162761888594,0
1976,0.10651014647825968,0
1977,-0.032211053396355945,0
1978,0.015907522619162028,0
1979,0.057210528701854196,0
1980,0.03033526181393371,0
1981,0.049357178644904194,0
1982,0.025982814689622616,0
1983,0.054183304341541526,0
1984,2.9824833699198376,0
1985,6.609393391131312,0
1986,-2.366863236929016,0
1987,0.6838076248340208,0
1988,-0.13037541170253902,0
1989,-0.07367180195455206,0
1990,-0.07395357637877807,0
1991,-0.015571197374749962,0
1992,-0.09690837302717377,0
1993,0.017229183770933597,0
1994,-0.006887881123588558,0
1995,0.015970189755065346,0
1996,0.059827233085082435,0
1997,-0.05353629800982072,0
1998,-0.0013518126013429832,0
1999,0.11194097496024326,0
2000,0.4812714582949532,0
2001,5.172949309261516,0
2002,4.247244471633032,0
2003,-2.7831159471745344,0
2004,1.6739479013016212,0
2005,-0.6969983607125652,0
2006,0.38513267085347497,0
2007,-0.0015166637083205321,0
2008,0.08188678374382727,0
2009,0.02663279721370424,0
2010,0.045094559575654745,0
2011,0.022317357208045403,0
2012,-0.04813885965011286,0
2013,0.1140168431741787,0
2014,0.16547163069508952,0
2015,0.03546770478607348,0
2016,0.16377040801342538,0
2017,1.273358219185345,0
2018,6.751653557021184,0
2019,0.5798897681062481,0
2020,-1.4587760597193862,0
2021,1.0592708718885622,0
2022,-0.5272523851515456,0
2023,0.16993838671228134,0
2024,-0.07755928961180056,0
2025,0.06854386395486795,0
2026,0.00464838017047076,0
2027,0.04489594814512807,0
2028,0.03760756394896371,0
2029,0.0006845694828712945,0
2030,0.046771754714892415,0
2031,0.07436515631848478,0
2032,0.06765284119028164,0
2033,0.10971365853750678,0
2034,3.067866838117055,0
2035,6.655007931157205,0
2036,-2.3040856286702462,0
2037,0.7541697123224232,0
2038,-0.16545633485113492,0
2039,0.13259931090171875,0
2040,0.135345000726404,0
2041,0.06968124373342842,0
2042,0.0898112332785963,0
2043,0.1445320628513675,0
2044,0.1151039099459879,0
2045,0.005409393313369232,0
2046,0.008091240675427908,0
2047,0.09643450408748547,0
2048,0.06830436626830565,0
2049,0.031809310647207996,0
2050,0.560256804356602,0
2051,5.2112632308390054,0
2052,4.2233283578202965,0
2053,-2.76197463536054,0
2054,1.6511750744128069,0
2055,-0.7534802130417799,0
2056,0.33287954975523637,0
2057,-0.13002750544797606,0
2058,-0.01502516650405468,0
2059,0.04750069592214512,0
2060,-0.006172090853455513,0
2061,0.05013917308463718,0
2062,-0.03182290481627159,0
2063,0.05819804641751773,0
2064,0.004541478665899795,0
2065,0.05454066425786185,0
2066,0.004745681858951835,0
2067,1.3547532944925966,0
2068,6.60792711700393,0
2069,0.5867716318282412,0
2070,-1.3214117572314417,0
2071,1.0701478286631736,0
2072,-0.4878795671045546,0
2073,0.2397285804881999,0
2074,-0.034098339895606025,0
2075,0.06534063222784335,0
2076,0.024724168104917774,0
2077,0.08673211098193122,0
2078,0.12350828784025142,0
2079,0.06777940914612654,0
2080,0.057278992942990735,0
2081,0.10328468374684907,0
2082,0.07985914676458843,0
2083,0.042319980011042146,0
2084,3.0899168263752554,0
2085,6.684180663643681,0
2086,-2.371889598881173,0
2087,0.750724422755164,0
2088,0.01545265603086042,0
2089,0.1078300035352859,0
2090,0.11347958125371514,0
2091,0.057636846791973784,0
2092,-0.03344021793514938,0
2093,0.10650356665182523,0
2094,0.020170470285923336,0
2095,0.16757361907885393,0
2096,-0.0496128120741315,0
2097,0.004576556238079517,0
2098,0.08126060164940238,0
2099,-0.002092586707878437,0
2100,0.4356964613359291,0
2101,5.224782015650816,0
2102,4.162882724648387,0
2103,-2.842280193634366,0
2104,1.614200266673634,0
2105,-0.7725675389031429,0
2106,0.2899091068926038,0
2107,-0.03307806040449805,0
2108,0.05682166121297719,0
2109,0.11323007653640135,0
2110,0.04054347990084808,0
2111,-0.07666521061353564,0
2112,-0.010838310617766174,0
2113,0.03182516236632796,0
2114,0.014959481813190892,0
2115,0.060586340380211115,0
2116,0.049430055446263596,0
2117,1.3350465191984235,0
2118,6.782674685539344,0
2119,0.5232367941436569,0
2120,-1.4046084096085116,0
2121,0.9834870370127852,0
2122,-0.41146991300454483,0
2123,0.2659068824970794,0
2124,-0.0839436798685711,0
2125,0.024808565342852154,0
2126,0.011976842180489135,0
2127,-0.03128021314249073,0
2128,0.06877723602622315,0
2129,0.08691986186627117,0
2130,-0.08442332584357262,0
2131,-0.003513451495106637,0
2132,-0.04191393082457436,0
2133,0.0891680864159125,0
2134,3.0679426973917105,0
2135,6.649147251653998,0
2136,-2.295065719235886,0
2137,0.7833216402484874,0
2138,-0.11174683951038192,0
2139,0.12591671104250973,0
2140,0.0560757280334792,0
2141,0.1103852616759382,0
2142,0.0771874068995886,0
2143,0.11597653190042584,0
2144,0.10087481373872512,0
2145,0.07252795844451722,0
2146,0.04099972929763722,0
2147,0.07141014688908388,0
2148,0.06673669024611731,0
2149,0.07409574316417758,0
2150,0.36181507073783575,0
2151,5.233069013287882,0
2152,4.101834253273939,0
2153,-2.881274212250614,0
2154,1.6639761754454612,0
2155,-0.6752059618278011,0
2156,0.44230240067564974,0
2157,0.06679547167390401,0
2158,0.0862696790874449,0
2159,0.1045762195470284,0
2160,0.023170213777029193,0
2161,0.09210138701145165,0
2162,0.08419406743498108,0
2163,0.10559911622936806,0
2164,0.0719781258522903,0
2165,0.04794927837229053,0
2166,0.11183433107446042,0
2167,1.4681599924070343,0
2168,6.893494133871488,0
2169,0.53788218409186,0
2170,-1.383799145161539,0
2171,1.0251917502364178,0
2172,-0.4025060001388139,0
2173,0.2189659057182055,0
2174,-0.02286173985636023,0
2175,0.08760608451894113,0
2176,0.12604892281440266,0
2177,-0.012241657157893257,0
2178,-0.031114972404165067,0
2179,0.10398498902730216,0
2180,0.037663857534454365,0
2181,0.009067348277409184,0
2182,-0.003267933798901425,0
2183,0.11926226681044819,0
2184,3.0921028113662796,0
2185,6.691156347751719,0
2186,-2.3633141856070554,0
2187,0.7201367000646879,0
2188,-0.1480826099641387,0
2189,0.0733049527334114,0
2190,0.0263163053098593,0
2191,0.07755204254399511,0
2192,0.022821325990070505,0
2193,0.02561906482488474,0
2194,0.19335565412726335,0
2195,0.05205536951499388,0
2196,0.10374701110488807,0
2197,0.007326994233626864,0
2198,0.06818629265298903,0
2199,0.07214421567407223,0
2200,0.41355248271454326,0
2201,5.163118691776184,0
2202,4.131275327465077,0
2203,-2.8410575456166125,0
2204,1.6332077159892775,0
2205,-0.7561458832696771,0
2206,0.368436692818001,0
2207,-0.04342471824638738,0
2208,0.14868747892007333,0
2209,0.10135434697394735,0
2210,0.0953257098440768,0
2211,0.08284481321869257,0
2212,0.031569784204340944,0
2213,0.09634425547679172,0
2214,0.020244888861228043,0
2215,0.02024883450971349,0
2216,0.046231687252121324,0
2217,1.360911397868472,0
2218,6.7220505544124,0
2219,0.3924443038880814,0
2220,-1.2848388069562682,0
2221,0.987097039459666,0
2222,-0.4375543410722623,0
2223,0.2571465868180331,0
2224,-0.012986207162236477,0
2225,0.031991837919581406,0
2226,0.05296792853366496,0
2227,0.0771291506936986,0
2228,0.0654484476296223,0
2229,0.06517882797288578,0
2230,0.0026765938373075476,0
2231,0.00011417015870139602,0
2232,0.010525270956157351,0
2233,0.030623864750950483,0
2234,3.0497561125718367,0
2235,6.630433421424019,0
2236,-2.380789323730478,0
2237,0.7113046806403436,0
2238,-0.13546448187497895,0
2239,0.06103687189160355,0
2240,0.043098681171333614,0
2241,0.10037900165639822,0
2242,0.005392900843026342,0
2243,0.02719477113637271,0
2244,0.04154214802434121,0
2245,0.06814968024718521,0
2246,0.13845226185679854,0
2247,0.08943772757029686,0
2248,0.021512762374672603,0
2249,0.05610997233794263,0
2250,0.4451123395854558,0
2251,5.271353544176167,0
2252,4.135768750779375,0
2253,-2.8169012532096276,0
2254,1.7002052087185402,0
2255,-0.7151180135135169,0
2256,0.40282575987821156,0
2257,-0.08484155942310112,0
2258,0.039931501456833815,0
2259,-0.013534888429049409,0
2260,0.0492560819646983,0
2261,0.008919610377285943,0
2262,0.15949120716461507,0
2263,0.01669526976353826,0
2264,0.05628188919226143,0
2265,0.1532364019258947,0
2266,0.04354972569197558,0
2267,1.3395364848860483,0
2268,6.815988883611037,0
2269,0.5377454075445546,0
2270,-1.2769337232989195,0
2271,0.9660500841116061,0
2272,-0.5150872604538538,0
2273,0.29778514958434105,0
2274,-0.053955239627591266,0
2275,0.20872647162245,0
2276,0.0016059244586030842,0
2277,0.019680044119012804,0
2278,0.07016634121431178,0
2279,0.02887682782402305,0
2280,-0.00016140444387720883,0
2281,0.1609390828221226,0
2282,0.003420390607638473,0
2283,0.03063820812914044,0
2284,3.1454828878314736,0
2285,6.495573980258769,0
2286,-2.451745301670488,0
2287,0.7075072142450956,0
2288,-0.22522605818757252,0
2289,-0.014542070134948903,0
2290,0.03490819854514271,0
2291,-0.030723419552989243,0
2292,-0.05522205153451637,0
2293,0.039365731895288775,0
2294,-0.028386199654609808,0
2295,-0.05756958329963472,0
2296,-0.007211804771756889,0
2297,-0.021305280699871622,0
2298,-0.04287250270877141,0
2299,0.005754571896064268,0
2300,0.3606979115027724,0
2301,5.1742553106239555,0
2302,4.045850280163735,0
2303,-2.9098282072122816,0
2304,1.605810996259529,0
2305,-0.7846047782659527,0
2306,0.46131558777639914,0
2307,-0.04194046643415268,0
2308,0.06775765814549714,0
2309,-0.0005633185426690327,0
2310,-0.0498268616145561,0
2311,0.05980004013523589,0
2312,0.047362844712353636,0
2313,0.037486827503710386,0
2314,0.03678966231926671,0
2315,-0.0017275377047464673,0
2316,-0.049791094379996424,0
2317,1.3144779824419177,0
2318,6.82848912239361,0
2319,0.44706115789190676,0
2320,-1.3046246338457115,0
2321,1.0482238834013204,0
2322,-0.4856454726561914,0
2323,0.24157589064482565,0
2324,-0.10596201231280122,0
2325,-0.02743551942974346,0
2326,-0.0032706538554308686,0
2327,-0.03656627172321651,0
2328,0.01312041682440392,0
2329,0.004946357303821782,0
2330,-0.008993976322406104,0
2331,-0.08232345121791121,0
2332,-0.08854152560674577,0
2333,0.1191444480311166,0
2334,3.0108381615997146,0
2335,6.582457251932811,0
2336,-2.494667354707326,0
2337,0.7956253286613972,0
2338,-0.16487439206836116,0
2339,0.021539167624137687,0
2340,-0.02725183131556608,0
2341,0.02571590671188998,0
2342,0.0022035079274115798,0
2343,0.03658586586927675,0
2344,-0.03528311883132096,0
2345,0.1193452374329262,0
2346,-0.020411113443518043,0
2347,-0.006439340931231106,0
2348,-0.13243793741019283,0
2349,-0.07833619772865263,0
2350,0.4616767945498557,0
2351,5.218841232621649,0
2352,4.0246748490175985,0
2353,-2.946192164010008,0
2354,1.5297928363579298,0
2355,-0.8167879362241481,0
2356,0.31000579039698595,0
2357,-0.11361438205581821,0
2358,0.04373907942601751,0
2359,0.0017740270631424783,0
2360,-0.08009223014802018,0
2361,0.006652176783987451,0
2362,0.014745603497926753,0
2363,-0.05471606343332715,0
2364,0.048763784355257384,0
2365,0.03296991237583231,0
2366,-0.017882117952615188,0
2367,1.3828841320960976,0
2368,6.719662623216407,0
2369,0.4036825828020149,0
2370,-1.348637564584517,0
2371,0.8458421140983174,0
2372,-0.4237010739221626,0
2373,0.1159337755995286,0
2374,-0.074455079445414,0
2375,0.06154306244551552,0
2376,-0.004826903708366409,0
2377,-0.13385464168408484,0
2378,-0.014108758808726309,0
2379,-0.01140859169269301,0
2380,-0.030802411481489676,0
2381,-0.02033970573098253,0
2382,0.041708429885199426,0
2383,0.048865477549069926,0
2384,3.1491147353813993,0
2385,6.595621096930149,0
2386,-2.4240635170109472,0
2387,0.7301891024285495,0
2388,-0.09034723721356085,0
2389,0.09009403496632233,0
2390,0.0070070205575201595,0
2391,0.04865167102710458,0
2392,0.015980991837029005,0
2393,0.12159391396511372,0
2394,-0.015857754444698356,0
2395,0.017637268685820114,0
2396,0.08203461438541294,0
2397,-0.00026851203039620665,0
2398,0.03375837960792147,0
2399,-0.014726117101497337,0
2400,0.48420375790499437,0
2401,5.249958227683818,0
2402,4.078462933205512,0
2403,-2.772643318920774,0
2404,1.5966844064429584,0
2405,-0.7896830704768036,0
2406,0.33569960218107864,0
2407,-0.12067743955114145,0
2408,0.09349076909530424,0
2409,0.07517867599061742,0
2410,0.018228063776527484,0
2411,-0.018331234159539883,0
2412,0.02539326495738585,0
2413,0.025524356429527436,0
2414,0.1207479665828058,0
2415,0.07135583994074458,0
2416,0.04387568458472957,0
2417,1.4275702025470312,0
2418,6.877828712468555,0
2419,0.4106038711714217,0
2420,-1.2988176331357897,0
2421,1.0384733828931518,0
2422,-0.47355367990963204,0
2423,0.2682313706645177,0
2424,-0.027096836211786626,0
2425,0.06700145036810236,0
2426,-0.0022918465796614228,0
2427,0.10502456183904135,0
2428,0.0873259973146468,0
2429,0.05734103799185365,0
2430,-0.06527478804162326,0
2431,-0.0637723876114324,0
2432,-0.05619141012744698,0
2433,0.13701718140303806,0
2434,3.04988937760153,0
2435,6.516906578462573,0
2436,-2.4824418272254802,0
2437,0.8285879891803963,0
2438,-0.19980276057292778,0
2439,0.013684205460167326,0
2440,-0.028215296544563274,0
2441,0.09945162456434202,0
2442,0.010643997366385874,0
2443,0.06316618443672847,0
2444,0.012212105528053352,0
2445,0.028960085302872054,0
2446,-0.06360672891558646,0
2447,0.014787710560377969,0
2448,-0.0346479789591507,0
2449,0.018206775253518992,0
2450,0.34074310628368865,0
2451,5.210682077214155,0
2452,3.8996524483934603,0
2453,-2.865280842767495,0
2454,1.5373927628653408,0
2455,-0.8318306773593576,0
2456,0.36193514832307055,0
2457,-0.15638756281166488,0
2458,0.04445862597374621,0
2459,-0.09905214197964571,0
2460,-0.10826165099714827,0
2461,-0.06334540150147996,0
2462,-0.022934592937495613,0
2463,-0.12901765120795092,0
2464,-0.07621570590422266,0
2465,-0.06569291467394366,0
2466,-0.13278408521549742,0
2467,1.3547026416574324,0
2468,6.7483077604427475,0
2469,0.2568730138331039,0
2470,-1.3918663385790135,0
2471,0.8623232663863042,0
2472,-0.5991260985178835,0
2473,0.11508526137437988,0
2474,-0.11845877076919778,0
2475,-0.022542663880037245,0
2476,-0.04194251742625525,0
2477,-0.07776711348606577,0
2478,0.03450254812685045,0
2479,-0.13667418176350216,0
2480,-0.08429670649316168,0
2481,-0.0035375162334563975,0
2482,-0.06974998335198249,0
2483,0.061213837847462794,0
2484,3.1452621525578217,0
2485,6.3251379520741295,0
2486,-2.5105218629282815,0
2487,0.7342560746754861,0
2488,-0.23857755995488178,0
2489,-0.045505287810031686,0
2490,-0.1562434432718452,0
2491,-0.12566255533004697,0
2492,-0.08921427320493763,0
2493,-0.10684885386188604,0
2494,-0.03549818527071292,0
2495,-0.06648990003967425,0
2496,-0.01875621623878372,0
2497,-0.09863176069586216,0
2498,0.02705818980226083,0
2499,0.04151885404193934,0
2500,0.38783384583533004,0
2501,5.179495475227479,0
2502,3.911077038100177,0
2503,-2.885161879586495,0
2504,1.6501719924366671,0
2505,-0.8102739681411885,0
2506,0.24926803227462305,0
2507,-0.08074097765231515,0
2508,-0.003483841512621929,0
2509,-0.0029016384727010396,0
2510,0.02529118163258321,0
2511,-0.04393112065853307,0
2512,-0.012300317467716839,0
2513,-0.051241193543957037,0
2514,0.0911054004089712,0
2515,0.0031896805767608234,0
2516,-0.06230937026873601,0
2517,1.3366418410383558,0
2518,6.745838253544283,0
2519,0.2774558382256853,0
2520,-1.2660969455823083,0
2521,0.9758167433675338,0
2522,-0.506202074747002,0
2523,0.14751254053847657,0
2524,-0.12342055269639624,0
2525,-0.038230306102534,0
2526,-0.0032213725637516982,0
2527,-0.10541240529500502,0
2528,-0.12249490627156304,0
2529,-0.08730680046361317,0
2530,-0.1341198071333504,0
2531,-0.13906010578952918,0
2532,-0.06874227056666889,0
2533,0.0889227696929356,0
2534,3.118067550348292,0
2535,6.434736533609674,0
2536,-2.5277476950858864,0
2537,0.7715235403000253,0
2538,-0.1801400588251309,0
2539,0.05059265513567491,0
2540,-0.17811082653945778,0
2541,-0.06620764576206611,0
2542,-0.15745431713940095,0
2543,-0.00202329615636284,0
2544,-0.09940595963095102,0
2545,-0.02390697289204763,0
2546,-0.07079651374855346,0
2547,-0.00898898318068625,0
2548,-0.11571586736344865,0
2549,-0.04822922687785519,0
2550,0.26542229357723174,0
2551,5.162163228147552,0
2552,3.8377723477192296,0
2553,-2.964796393620893,0
2554,1.4826048347466942,0
2555,-0.8054113467621993,0
2556,0.28176143223257927,0
2557,-0.21122874238126912,0
2558,-0.1419868171890432,0
2559,-0.06077627430399262,0
2560,-0.043581885508718055,0
2561,-0.021220517683942407,0
2562,-0.026797429549380213,0
2563,0.009450393430077128,0
2564,-0.025808171470429138,0
2565,-0.018206329304254504,0
2566,0.05964191510999352,0
2567,1.4432377706364892,0
2568,6.742912486989085,0
2569,0.26544727001292506,0
2570,-1.2764017050829686,0
2571,0.8271648798464223,0
2572,-0.5099015604316136,0
2573,0.07929957207961316,0
2574,-0.13844371445675197,0
2575,0.0009873578106788794,0
2576,-0.018043476245024843,0
2577,-0.061628363042797576,0
2578,-0.03138611213656729,0
2579,-0.02024614185787385,0
2580,-0.029417466994167495,0
2581,-0.05374033957641916,0
2582,-0.06687068926075629,0
2583,0.012810024870843643,0
2584,3.073160599182915,0
2585,6.421416804943994,0
2586,-2.4904543466808233,0
2587,0.7413230880160334,0
2588,-0.2704443090562565,0
2589,0.143408227871993,0
2590,-0.03522426513847525,0
2591,-0.03441264428712505,0
2592,0.0028492340347201703,0
2593,-0.007523106123638559,0
2594,-0.06694925482022411,0
2595,0.024934376519990944,0
2596,0.08283332314810234,0
2597,-0.02562127956968966,0
2598,-0.03741132144214146,0
2599,0.070656375588604,0
2600,0.47529736107110027,0
2601,5.264753777659443,0
2602,3.915199145987266,0
2603,-2.823359038596585,0
2604,1.5994858585380003,0
2605,-0.8543270522598454,0
2606,0.3315470759803605,0
2607,-0.1619788294712144,0
2608,0.009732038831814414,0
2609,-0.048275982701315966,0
2610,-0.0841403615204639,0
2611,0.010475108758494854,0
2612,0.04395101880183791,0
2613,-0.039937652273884114,0
2614,-0.05547473219765042,0
2615,-0.060175265691257376,0
2616,-0.041560101327515614,0
2617,1.4000668117206274,0
2618,6.812305466697155,0
2619,0.1846127607050107,0
2620,-1.3590404575538122,0
2621,0.8654505175301087,0
2622,-0.5569570282901257,0
2623,0.1955534805849789,0
2624,-0.048911962749517736,0
2625,-0.0709684282759941,0
2626,0.0017594685486403312,0
2627,-0.03690729324420644,0
2628,0.019436599402318146,0
2629,-0.026076857879889594,0
2630,-0.041286171086431026,0
2631,0.041983721993974446,0
2632,-0.01637071277511125,0
2633,0.09075564091299851,0
2634,3.1149511410346484,0
2635,6.479240015241278,0
2636,-2.529634669849662,0
2637,0.8075739552644179,0
2638,-0.19878240606256822,0
2639,0.02906448596356734,0
2640,0.009527693520540823,0
2641,-0.06031109014000943,0
2642,-0.011824149468551724,0
2643,-0.06274663599858699,0
2644,-0.041197153512875055,0
2645,-0.01716624853383584,0
2646,-0.04669129543478829,0
2647,-0.11167176040986676,0
2648,0.045911942748367726,0
2649,-0.012882913158021227,0
2650,0.4152605301289791,0
2651,5.334929214438302,0
2652,3.962895074561712,0
2653,-2.920103533442743,0
2654,1.494067268035657,0
2655,-0.7908320140178158,0
2656,0.2934345862643828,0
2657,-0.1338106198452657,0
2658,-0.012544086740474667,0
2659,-0.004870203487447225,0
2660,-0.12714534466387523,0
2661,0.05549464589267882,0
2662,0.05244508720770415,0
2663,-0.079390282131711,0
2664,0.05721437411957726,0
2665,-0.019039601123944684,0
2666,0.041964137555643266,0
2667,1.3605202298762606,0
2668,6.796355718094459,0
2669,0.18417630704609228,0
2670,-1.2898357394164812,0
2671,0.9103989353187342,0
2672,-0.5248173040632352,0
2673,0.16864680614155195,0
2674,-0.05710410265095603,0
2675,0.03211280776751656,0
2676,-0.025015950713378105,0
2677,-0.06361685457669397,0
2678,-0.05631962790850431,0
2679,0.04601740750853122,0
2680,0.01396488657019674,0
2681,-0.0601514535266067,0
2682,-0.00560736081388183,0
2683,0.10742028093603734,0
2684,3.1845631208137717,0
2685,6.5336722996845715,0
2686,-2.6094221690093073,0
2687,0.8624326369501539,0
2688,-0.1585840950524805,0
2689,0.07951007092195608,0
2690,-0.06688865106112026,0
2691,-0.006656990237492277,0
2692,-0.06050349003641,0
2693,-0.013901733428403788,0
2694,-0.06755825580934935,0
2695,-0.03690569675245486,0
2696,0.04805697159811326,0
2697,0.007098671922822295,0
2698,0.10537104311768668,0
2699,-0.002548646131543722,0
2700,0.5138697333215476,0
2701,5.478382607402101,0
2702,3.8574537640088384,0
2703,-2.791380195263624,0
2704,1.6513212137491302,0
2705,-0.7614015391116981,0
2706,0.39537278339168463,0
2707,-0.0933301108054165,0
2708,0.05016828602358142,0
2709,0.030332703950930198,0
2710,0.022575228519004176,0
2711,0.010521044664169718,0
2712,0.040854822510620954,0
2713,0.09452208494987788,0
2714,0.004756259724155955,0
2715,0.06289725263862474,0
2716,0.04753509320761848,0
2717,1.3836253842999473,0
2718,6.855736137448752,0
2719,0.20675632450523942,0
2720,-1.2848325941222947,0
2721,0.9628471257654944,0
2722,-0.4516334379350923,0
2723,0.22123644936484702,0
2724,-0.10806071682179166,0
2725,-0.050469191956388396,0
2726,0.12085487253096129,0
2727,0.08260430155212388,0
2728,0.11855295429249592,0
2729,0.06474334756273611,0
2730,0.10607819217666417,0
2731,-0.01628411510410034,0
2732,0.05184719301192778,0
2733,0.07412834239250377,0
2734,3.213722569271144,0
2735,6.529428245879604,0
2736,-2.5467265878934082,0
2737,0.8699463858474311,0
2738,-0.24575925316292702,0
2739,0.12185431336489924,0
2740,0.03282348924403,0
2741,0.1108442554623468,0
2742,0.017223526215368982,0
2743,0.02235844984521488,0
2744,0.0693001984974962,0
2745,0.016035263161169534,0
2746,0.0007786875890080716,0
2747,0.02422347527607079,0
2748,0.014676673295531285,0
2749,0.05691766320313273,0
2750,0.501870080385029,0
2751,5.472650770375271,0
2752,3.9206327702834374,0
2753,-2.8312418935112698,0
2754,1.6472878414747538,0
2755,-0.7174952362234887,0
2756,0.43043064862296593,0
2757,-0.057584565577692384,0
2758,0.14425898379385063,0
2759,0.11369103392903562,0
2760,-0.05489488651615459,0
2761,-0.0197245681213227,0
2762,-0.05314887510763524,0
2763,0.047101009040406136,0
2764,-0.0150995353689653,0
2765,-0.012505428665105053,0
2766,0.08278865518346865,0
2767,1.345190920432866,0
2768,6.878657530153533,0
2769,0.2524133257949846,0
2770,-1.2232662791301454,0
2771,0.8941686058788442,0
2772,-0.4056831835111205,0
2773,0.1279159109944566,0
2774,0.00421895862046761,0
2775,0.05499452860479451,0
2776,0.06256291337550568,0
2777,0.08651413878930808,0
2778,-0.05150040702849436,0
2779,0.043886006580515544,0
2780,-0.016620976244707833,0
2781,0.03857736881716696,0
2782,0.0337203216688098,0
2783,0.14478064689119494,0
2784,3.2853689775730186,0
2785,6.571132235501083,0
2786,-2.547151307297559,0
2787,0.9787813222265229,0
2788,-0.1661631653057664,0
2789,0.10207174362049451,0
2790,0.05658686171619364,0
2791,0.08570580919833413,0
2792,0.03600484415299904,0
2793,0.04549375604819896,0
2794,-0.04821511232322235,0
2795,-0.03269043345936303,0
2796,0.024557435949276975,0
2797,0.04966138566004327,0
2798,0.04509017866850027,0
2799,-0.077116801878364,0
2800,0.4217117628942042,0
2801,5.415463426508034,0
2802,3.915189746943257,0
2803,-2.843280300196682,0
2804,1.583275915049051,0
2805,-0.7991350033181241,0
2806,0.30319636765607694,0
2807,-0.063440179607329,0
2808,0.13520088127404417,0
2809,-0.04058498357795242,0
2810,0.05222974704286334,0
2811,0.09579971798328904,0
2812,0.03063803184117475,0
2813,0.02375053111453034,0
2814,0.052563923225072154,0
2815,0.07830585582079322,0
2816,0.004491260193949818,0
2817,1.5267450489718384,0
2818,6.854495810194891,0
2819,0.217694229629431,0
2820,-1.2478980352703297,0
2821,0.8240907002262657,0
2822,-0.4775672981522549,0
2823,0.16656468019786472,0
2824,-0.06913339617779572,0
2825,-0.12100007919925722,0
2826,-0.04609839295557133,0
2827,-0.05727113289390784,0
2828,-0.06375690200274743,0
2829,0.10354333595798237,0
2830,-0.023494804329358018,0
2831,0.08393003612431635,0
2832,-0.046600909305365174,0
2833,0.06372415420251779,0
2834,3.2792656568526435,0
2835,6.483503455467149,0
2836,-2.5314726505545715,0
2837,0.9583001378062053,0
2838,-0.14615751622013762,0
2839,0.14985511530740236,0
2840,-0.021470216931868912,0
2841,0.010422294916358864,0
2842,-0.06627534275670191,0
2843,0.017317651847345978,0
2844,-0.03797727118368187,0
2845,-0.05860952746414251,0
2846,-0.06545744156953827,0
2847,0.0075693144646183895,0
2848,-0.04002071006681808,0
2849,-0.0708098971632889,0
2850,0.39273387326469944,0
2851,5.362024870403978,0
2852,3.8155565980650596,0
2853,-2.8616714985533522,0
2854,1.4493301521748951,0
2855,-0.7724635842178604,0
2856,0.3186610658528779,0
2857,-0.02527548194883407,0
2858,0.001959566090782648,0
2859,0.019141105765695103,0
2860,0.035553486213676155,0
2861,0.1279410627931458,0
2862,0.054218892772970345,0
2863,0.07986208178349687,0
2864,0.038293752666240494,0
2865,0.0002809469359255183,0
2866,0.00317151644491772,0
2867,1.4699645233967729,0
2868,6.83421472943762,0
2869,0.18468291308711074,0
2870,-1.2563535417572909,0
2871,0.9099935752328892,0
2872,-0.49813113321824576,0
2873,0.20736209033164818,0
2874,-0.04286722446632702,0
2875,0.06439645872502635,0
2876,-0.00931997431500408,0
2877,0.10150142460582334,0
2878,0.08073863561999897,0
2879,-0.03446130598429943,0
2880,0.0419243833653535,0
2881,-0.04818910387076567,0
2882,-0.0478908209223659,0
2883,0.061633807281345654,0
2884,3.2953626337407718,0
2885,6.4320578356285365,0
2886,-2.594404641110349,0
2887,0.8752360945644102,0
2888,-0.2792821346434344,0
2889,0.15334579601377968,0
2890,-0.06239459050633968,0
2891,-0.03562180569186025,0
2892,-0.061058737754529316,0
2893,-0.05551914946100512,0
2894,-0.0037181123240355362,0
2895,-0.015128318693163846,0
2896,0.06296798505045677,0
2897,0.07320664818487353,0
2898,0.03716483633575472,0
2899,0.007791093298748195,0
2900,0.4806578773277603,0
2901,5.313693154347366,0
2902,3.8061706187357944,0
2903,-2.838553523474894,0
2904,1.5451770649513834,0
2905,-0.7512778647151563,0
2906,0.2699232704713308,0
2907,-0.11763980474520422,0
2908,0.0321287858754283,0
2909,-0.004362956478897499,0
2910,0.031175797182561665,0
2911,0.029691507239662532,0
2912,-0.0824592213839245,0
2913,-0.09801893706140463,0
2914,-0.011727460688586606,0
2915,-0.06362503802079421,0
2916,-0.1293331613168813,0
2917,1.4390547953886104,0
2918,6.860585353714103,0
2919,0.0067923015085860905,0
2920,-1.1917275649949641,0
2921,0.8763547205415226,0
2922,-0.44965153948248315,0
2923,0.214395804738497,0
2924,0.028435185941625793,0
2925,0.004167033425165814,0
2926,-0.0036632808165837226,0
2927,-0.060056040364690054,0
2928,0.04297648073369699,0
2929,-0.0046457147555215425,0
2930,-0.026676522377327615,0
2931,-0.10043187308226259,0
2932,-0.07572949950556634,0
2933,0.12185355880440511,0
2934,3.3349273114087348,0
2935,6.299314557854741,0
2936,-2.6190089675330577,0
2937,0.9448314157045455,0
2938,-0.2596660223373681,0
2939,-0.014170226754452446,0
2940,-0.15845729569689632,0
2941,-0.051084272452968184,0
2942,-0.12854356310261206,0
2943,-0.015678040558388916,0
2944,0.04462579714195407,0
2945,-0.040571202846199014,0
2946,-0.03787335071173835,0
2947,-0.023671519073794972,0
2948,0.10353298977316824,0
2949,-0.052728272716684746,0
2950,0.5292528453366737,0
2951,5.37462047407506,0
2952,3.7150655456722617,0
2953,-2.923366672625986,0
2954,1.5002008622230687,0
2955,-0.8475263314996075,0
2956,0.3149771356729838,0
2957,-0.2504574607876796,0
2958,-0.09350198810559596,0
2959,-0.1515049237274933,0
2960,-0.11964289951290243,0
2961,-0.05990710276495573,0
2962,-0.11286153311384686,0
2963,-0.13016977692484374,0
2964,-0.07308868167845206,0
2965,-0.06763134396122855,0
2966,-0.1679482069396967,0
2967,1.4772449717496496,0
2968,6.834743108618514,0
2969,0.05600382283000381,0
2970,-1.223095331729878,0
2971,0.8939543958953744,0
2972,-0.43012314271535484,0
2973,0.16402942022305256,0
2974,-0.04515615038305016,0
2975,0.009495952136058562,0
2976,-0.05638887187223785,0
2977,0.004763091716675729,0
2978,-0.1137227889964854,0
2979,0.06755053598714383,0
2980,-0.012013874135085909,0
2981,-0.055946169792747746,0
2982,0.02319755027577118,0
2983,-0.021752899473397425,0
2984,3.2491338150164006,0
2985,6.313171780076695,0
2986,-2.6135645753464325,0
2987,0.9303678330519202,0
2988,-0.3121220327752012,0
2989,0.0776729802981077,0
2990,-0.020404927360674528,0
2991,-0.02288350602637646,0
2992,-0.010583006369792515,0
2993,-0.08070239016568152,0
2994,-0.017191655584955817,0
2995,0.002087525907492599,0
2996,-0.03475869468133262,0
2997,-0.027085697053211982,0
2998,0.011446993519894854,0
2999,0.027468224151343826,0
3000,0.44246547095502237,0
3001,5.376614192980537,0
3002,3.8818482918314094,0
3003,-2.8489947602471113,0
3004,1.5875273889819843,0
3005,-0.8401781828723702,0
3006,0.3614185307063573,0
3007,-0.050841831769671636,0
3008,-0.007207648063381134,0
3009,-0.07882980254457259,0
3010,0.04244305668551413,0
3011,-0.07226977674045233,0
3012,0.06326155035812292,0
3013,-0.014602896975581967,0
3014,0.015831719688808043,0
3015,0.03605460719799003,0
3016,-0.03473466218854741,0
3017,1.4798495333767694,0
3018,6.879742777213704,0
3019,0.15130006849632574,0
3020,-1.2404350053758624,0
3021,0.8879005932368803,0
3022,-0.45646007045389936,0
3023,0.2035493181612241,0
3024,-0.10544061447775882,0
3025,-0.005033605122754255,0
3026,-0.009599523520597564,0
3027,0.011897856776584873,0
3028,-0.017112300511321957,0
3029,0.046675766801167175,0
3030,-0.008617017652222838,0
3031,0.015335980806622095,0
3032,-0.09186764551445571,0
3033,0.11206746845500626,0
3034,3.2416381761604245,0
3035,6.434534608596226,0
3036,-2.509640271651971,0
3037,0.9022392538021674,0
3038,-0.33476593260906057,0
3039,0.11903302742151728,0
3040,-0.13028791781354715,0
3041,0.09555723710068235,0
3042,-0.004181583430218009,0
3043,0.005380450728548635,0
3044,-0.010915625210372613,0
3045,-0.010254403970142874,0
3046,0.004617053451659325,0
3047,0.053590641257874015,0
3048,0.0651987406939627,0
3049,0.028482433361383938,0
3050,0.5158459727134568,0
3051,5.473099056856249,0
3052,3.7242057526807413,0
3053,-2.7683835690718395,0
3054,1.563708129488505,0
3055,-0.7335433921766646,0
3056,0.38200380506360815,0
3057,-0.14905674900518656,0
3058,0.07614783325351372,0
3059,0.07386104250857324,0
3060,-0.021051226919452916,0
3061,-0.007723393182136034,0
3062,-0.005297917048183422,0
3063,-0.07704903848337584,0
3064,-0.010732878794631969,0
3065,-0.006166971438399841,0
3066,0.03585910462783975,0
3067,1.481810966062427,0
3068,6.889449294041035,0
3069,0.12347658316074457,0
3070,-1.1145217870622588,0
3071,0.7915017705626322,0
3072,-0.4246113802480906,0
3073,0.1751006573541608,0
3074,0.05947044002913515,0
3075,0.024060193007772353,0
3076,-0.039141313709466656,0
3077,-0.01569271562910804,0
3078,0.09115084999991614,0
3079,0.09805550224158671,0
3080,0.1487315653372286,0
3081,0.05165528800725691,0
3082,0.12366603745295088,0
3083,0.09641412072819315,0
3084,3.336601266762303,0
3085,6.392893581552092,0
3086,-2.5372273152276614,0
3087,0.9186123638013607,0
3088,-0.2459460749826518,0
3089,0.12110695160119184,0
3090,0.010548695564936372,0
3091,0.09037895762973355,0
3092,0.05015399598306137,0
3093,-0.031871582636698745,0
3094,0.0688312872290017,0
3095,0.05336896920597385,0
3096,0.019039754960413432,0
3097,0.030581605285210933,0
3098,-0.06388765144583289,0
3099,-0.06690308985177866,0
3100,0.4455351559701289,0
3101,5.467398312301617,0
3102,3.6338753595443842,0
3103,-2.810526227942134,0
3104,1.5595045509833172,0
3105,-0.7816416787089059,0
3106,0.3216109580562128,0
3107,-0.054270958664664,0
3108,-0.050994566225506716,0
3109,7.08621140216685e-05,0
3110,0.0028312584295025374,0
3111,0.04638132291692042,0
3112,-0.029595338215486804,0
3113,0.022482817064326952,0
3114,-0.022786551663437512,0
3115,0.06430568792128788,0
3116,0.06531639598796073,0
3117,1.576750272544367,0
3118,6.966213939277307,0
3119,-0.012954119204265854,0
3120,-1.1036632587977953,0
3121,0.894697989413025,0
3122,-0.3995769417820687,0
3123,0.14812588107746133,0
3124,-0.08256700471030329,0
3125,0.062348127256988115,0
3126,-0.05940345152215707,0
3127,-0.10665167852767378,0
3128,-0.06666228637496785,0
3129,-0.03355490818189683,0
3130,-0.09478922788781116,0
3131,-0.058385178049235945,0
3132,-0.05609687157004083,0
3133,0.007591589152586956,0
3134,3.261183546781373,0
3135,6.19209984928353,0
3136,-2.703390766644454,0
3137,0.9135125557175373,0
3138,-0.3060633214301544,0
3139,0.08469518930481021,0
3140,-0.029553062442204188,0
3141,0.06519155648844828,0
3142,0.03554909799756568,0
3143,0.05014819169030574,0
3144,0.1010034117944997,0
3145,0.09958427070315953,0
3146,0.07557547573308276,0
3147,0.12292500136207862,0
3148,-0.039138572331421574,0
3149,0.04923496113977768,0
3150,0.5990371641647884,0
3151,5.551304490909615,0
3152,3.753901476712633,0
3153,-2.763853889702485,0
3154,1.634002616866757,0
3155,-0.7547304380945278,0
3156,0.3259533987240268,0
3157,-0.21365062369787505,0
3158,0.11382652557676007,0
3159,0.07222085043793763,0
3160,0.057477776654999216,0
3161,0.023645439071186557,0
3162,-0.0030712713871682493,0
3163,0.03969231751094205,0
3164,0.09506262372065188,0
3165,-0.00497539870248595,0
3166,0.09715038370763465,0
3167,1.5327154943082482,0
3168,6.975887706792636,0
3169,0.08202614809942435,0
3170,-1.023254352139162,0
3171,0.8212214807766808,0
3172,-0.44942240367288544,0
3173,0.19144601234581987,0
3174,-0.07109072218287178,0
3175,0.09295544769408631,0
3176,-0.024875455724305166,0
3177,-0.031083841225490315,0
3178,-0.004362512918169938,0
3179,0.059738454457920906,0
3180,-0.04840578728880193,0
3181,-0.047063107276212324,0
3182,0.034990716740770623,0
3183,0.05519335596066428,0
3184,3.304828871549604,0
3185,6.363814321977056,0
3186,-2.6397166294843815,0
3187,0.9864924376806171,0
3188,-0.2539744648097907,0
3189,0.07901187377278507,0
3190,0.011686511768041391,0
3191,0.15506419614583222,0
3192,0.13143213146944205,0
3193,0.06557906482354321,0
3194,0.13233364660459304,0
3195,0.08545064214995718,0
3196,0.14758281248929334,0
3197,0.10768102587959405,0
3198,0.04138768178457605,0
3199,0.12120910875310842,0
3200,0.590197266366422,0
3201,5.474492425898893,0
3202,3.6441850410261374,0
3203,-2.717654029542103,0
3204,1.5549752332067972,0
3205,-0.7280668857261976,0
3206,0.31362613251761784,0
3207,-0.08826726726567558,0
3208,0.06636121617769652,0
3209,0.0440213303662737,0
3210,0.046311552970369776,0
3211,0.06109949545141004,0
3212,0.0410861040475512,0
3213,0.06413510646335253,0
3214,-0.004144769902809674,0
3215,0.04583245185777067,0
3216,-0.016814774861168655,0
3217,1.5365973939250923,0
3218,6.952057811118818,0
3219,-0.019936418511274423,0
3220,-1.0180916365750439,0
3221,0.9517969462493854,0
3222,-0.38226297720689195,0
3223,0.2051334868232266,0
3224,0.012744672884784702,0
3225,-0.044173271386647776,0
3226,0.030237847751436918,0
3227,-0.05015122290759096,0
3228,0.007870857491058526,0
3229,-0.0944088218282557,0
3230,-0.07812919384265081,0
3231,-0.06919644931667536,0
3232,-0.07770490533858027,0
3233,-0.01980867617445449,0
3234,3.3026174830495054,0
3235,6.381519287270723,0
3236,-2.643297069187605,0
3237,0.9390688082123568,0
3238,-0.3028606352490118,0
3239,0.03769557399854033,0
3240,-0.06231711041308912,0
3241,-0.05653538438943835,0
3242,0.06551623834602538,0
3243,0.009965332737903579,0
3244,-0.07363472378070932,0
3245,0.06193302713089,0
3246,-0.08514811578278021,0
3247,0.04768048393467477,0
3248,-0.002113701350269748,0
3249,0.023035253130642766,0
3250,0.6216598973238324,0
3251,5.383815592418915,0
3252,3.5280153606857194,0
3253,-2.7671616811281208,0
3254,1.5482140195751108,0
3255,-0.8560777923308427,0
3256,0.30729160845327613,0
3257,-0.06196708645654551,0
3258,0.005334227117823793,0
3259,-0.05083534943442271,0
3260,0.0034386521895261707,0
3261,-0.08263997917919938,0
3262,0.12646969685986853,0
3263,0.016085003823810305,0
3264,-0.015492832903909407,0
3265,-0.04691691854260513,0
3266,0.059302921394556236,0
3267,1.5612622323673808,0
3268,6.91131472215028,0
3269,-0.09583042598274114,0
3270,-1.0289540663164791,0
3271,0.8033970740123788,0
3272,-0.40780268052245094,0
3273,0.2256111602742223,0
3274,-0.040167681780019455,0
3275,0.021472533039013454,0
3276,0.001158912532101656,0
3277,-0.016536270476357365,0
3278,0.004371349835835019,0
3279,-0.06852357596653653,0
3280,0.04321805842053096,0
3281,-0.06745918863237971,0
3282,0.0029096959100273056,0
3283,0.009770847822693177,0
3284,3.340454757414806,0
3285,6.308676606723018,0
3286,-2.735717038685986,0
3287,0.9593016408905342,0
3288,-0.3161589878445766,0
3289,0.10718551834008906,0
3290,0.025814491680484206,0
3291,-0.015520204310413701,0
3292,-0.02294596931190737,0
3293,0.04257367932189017,0
3294,0.08797913480035002,0
3295,-0.00025240919038686154,0
3296,-0.02487030208732409,0
3297,-0.04297690847824984,0
3298,0.019119444588512776,0
3299,0.05657192258695179,0
3300,0.6149464836908244,0
3301,5.582945999689347,0
3302,3.6178265414420725,0
3303,-2.816272463381179,0
3304,1.5649622558453136,0
3305,-0.7264860460908961,0
3306,0.35652875942700507,0
3307,-0.07305836311258888,0
3308,0.11074251320767618,0
3309,0.10655786297659026,0
3310,0.13516372252920927,0
3311,0.16274508725855474,0
3312,-0.007412494211018125,0
3313,-0.02490498106363072,0
3314,0.060067232300041226,0
3315,-0.030065044938037314,0
3316,0.04158076467932023,0
3317,1.58041085984545,0
3318,6.950232585327598,0
3319,-0.04062667669053613,0
3320,-0.9970883023337268,0
3321,0.7767589573881013,0
3322,-0.5155144182862373,0
3323,0.17422754705452956,0
3324,-0.03601672403243771,0
3325,-0.11542660422322946,0
3326,0.05727906967997341,0
3327,0.09296209510631362,0
3328,-0.01816372394393262,0
3329,-0.07314831307310102,0
3330,0.10512893756441277,0
3331,0.04724272012452274,0
3332,0.09521285982870518,0
3333,0.12379098977199188,0
3334,3.512937912446069,0
3335,6.367275001196177,0
3336,-2.547277067219139,0
3337,1.0192714117851975,0
3338,-0.26003422729492015,0
3339,0.11682229249388829,0
3340,-0.043818021823222836,0
3341,0.12841237908223896,0
3342,0.08323963824477101,0
3343,0.10114131634188762,0
3344,0.09062664471781642,0
3345,0.04017739806535897,0
3346,0.10089184476009609,0
3347,0.10753661473999859,0
3348,0.10053177191413093,0
3349,-0.006338687372125375,0
3350,0.5406491917060967,0
3351,5.5668169938223375,0
3352,3.5720062038025375,0
3353,-2.7206848362075893,0
3354,1.554650208351802,0
3355,-0.7668225098003937,0
3356,0.39043698659116066,0
3357,-0.06981870586248853,0
3358,0.06248173424748626,0
3359,-0.030463537943631158,0
3360,0.033379754032985404,0
3361,0.015104430880666297,0
3362,0.05120009687552148,0
3363,-0.022766483640057074,0
3364,0.0011037631853189553,0
3365,-0.10583031343202598,0
3366,0.015408248246278277,0
3367,1.5135735869611595,0
3368,6.886795000453757,0
3369,-0.009302801505425048,0
3370,-1.0227324588255802,0
3371,0.8658436900432862,0
3372,-0.40807299501176314,0
3373,0.15725581305760328,0
3374,0.009223275720574787,0
3375,0.09417803806475253,0
3376,0.06850394455685649,0
3377,0.007076102640989963,0
3378,0.10084280506306653,0
3379,0.004393576109149339,0
3380,-0.0375886972966176,0
3381,0.043292658402103106,0
3382,0.05388965933192042,0
3383,0.19594336562170625,0
3384,3.459945826542969,0
3385,6.366661671333208,0
3386,-2.674599358753169,0
3387,0.9547483734638859,0
3388,-0.21386224721256766,0
3389,0.09876618825132918,0
3390,-0.053538003436518045,0
3391,0.04126025154412843,0
3392,0.11263137100540797,0
3393,0.01727759242864497,0
3394,0.00845429943848533,0
3395,0.0521128841378721,0
3396,-0.07155146190845345,0
3397,0.02768991127053272,0
3398,-0.036119773334983014,0
3399,0.12188526311937876,0
3400,0.5223071580406913,0
3401,5.5110030037161195,0
3402,3.521378846225236,0
3403,-2.8492374091268813,0
3404,1.5498115081566546,0
3405,-0.8255544178461244,0
3406,0.2776736796855426,0
3407,-0.1858866192519178,0
3408,0.03150758736617516,0
3409,0.0069139410102308976,0
3410,-0.015187057037761999,0
3411,0.0049343281242639515,0
3412,0.04830580960853203,0
3413,0.07085239506778485,0
3414,0.04556850160239193,0
3415,0.016958340228155684,0
3416,0.07951698781511779,0
3417,1.52486268921858,0
3418,6.9554021599352795,0
3419,-0.0553281685120629,0
3420,-0.8987578045333153,0
3421,0.8706764506885567,0
3422,-0.3491164183939725,0
3423,0.21930945757467124,0
3424,0.07140944597299959,0
3425,0.01789089387824694,0
3426,0.00989517529023862,0
3427,0.027928981183241074,0
3428,0.07009033351276048,0
3429,0.10673876744971611,0
3430,-0.028091986723484084,0
3431,0.09646563194090535,0
3432,0.10455813604490555,0
3433,0.19447255319644474,0
3434,3.432860082821446,0
3435,6.278462659397975,0
3436,-2.6273280256876324,0
3437,1.0435847644970173,0
3438,-0.21636836172085666,0
3439,0.17205520211397182,0
3440,0.11382294742893143,0
3441,0.1490177976137431,0
3442,0.20999598686585857,0
3443,0.01106687017976983,0
3444,0.04151148280522862,0
3445,0.0013684882847091392,0
3446,0.01547296566926279,0
3447,0.08085312121866739,0
3448,0.01287716722163439,0
3449,-0.06831872465527822,0
3450,0.4925203796361395,0
3451,5.481852085928415,0
3452,3.5788887403881726,0
3453,-2.7466402656175917,0
3454,1.647489359758089,0
3455,-0.7199456383057347,0
3456,0.3899344515887254,0
3457,-0.04025748153785145,0
3458,0.011038939084408034,0
3459,-0.04066129274303931,0
3460,0.02000588528205017,0
3461,0.15954748568306476,0
3462,-0.008804020116505967,0
3463,-0.019874892725809112,0
3464,-0.01013420250231542,0
3465,0.021782738489704252,0
3466,0.05997282017966618,0
3467,1.7194160542577048,0
3468,6.930558640821092,0
3469,-0.09893408558677312,0
3470,-0.9329767627140373,0
3471,0.7929110868222387,0
3472,-0.4128894519502464,0
3473,0.06272493778568108,0
3474,0.08591787825699684,0
3475,0.041404326023433954,0
3476,0.012037403225467355,0
3477,-0.01898736944437661,0
3478,0.1134923625065444,0
3479,0.08649759137011367,0
3480,0.08856907012518231,0
3481,0.05912667916038705,0
3482,0.10793156808148238,0
3483,0.08083892089291456,0
3484,3.510351933105203,0
3485,6.282950897799585,0
3486,-2.640760366015743,0
3487,1.1024972625323215,0
3488,-0.25071763303644135,0
3489,0.18621996312091785,0
3490,0.05002317444836332,0
3491,0.03459299149422726,0
3492,0.08617453470220943,0
3493,0.09965089326460226,0
3494,0.09441694341797116,0
3495,-0.0068866740962479495,0
3496,0.014528055221339785,0
3497,0.02206705273650611,0
3498,0.0753102372642607,0
3499,0.08260832967487064,0
3500,0.5531410581703701,0
3501,5.564071429884046,0
3502,3.4934703386325454,0
3503,-2.7118774231850757,0
3504,1.6997566425993775,0
3505,-0.6926441485016356,0
3506,0.30891717442500194,0
3507,-0.0419479154445176,0
3508,0.09015056924539794,0
3509,0.09396911354287445,0
3510,-0.024597244526229696,0
3511,0.014258262514339731,0
3512,0.021955429491240325,0
3513,-0.03662506028040714,0
3514,-0.014623049980711112,0
3515,0.08260295460171471,0
3516,-0.1309701302761582,0
3517,1.6017852484372634,0
3518,6.855345518530324,0
3519,-0.09393638713949089,0
3520,-0.9192664566451751,0
3521,0.8148520914500728,0
3522,-0.41546769099164566,0
3523,0.261739337823368,0
3524,-0.0008422125826290025,0
3525,-0.06744731404348278,0
3526,-0.0324124461674863,0
3527,0.0004918681305881526,0
3528,0.013292252575377412,0
3529,-0.038196277152426024,0
3530,-0.06975553368974305,0
3531,0.041579267668515614,0
3532,-0.04693125980879492,0
3533,0.12518646678937678,0
3534,3.463844357885877,0
3535,6.3319317148008745,0
3536,-2.6787111054749375,0
3537,1.0079581442488859,0
3538,-0.3051639457001169,0
3539,0.13534191489863404,0
3540,0.034437895900812296,0
3541,0.028154820792356552,0
3542,0.020721221217399645,0
3543,0.08309513047771559,0
3544,0.031090096734661413,0
3545,0.12187399797281509,0
3546,0.02012426477056055,0
3547,-0.046147284674458035,0
3548,0.07316961023275793,0
3549,0.09590294543300057,0
3550,0.5365202777619352,0
3551,5.5920117044339035,0
3552,3.5160085385954836,0
3553,-2.7346567525569996,0
3554,1.5871672179365803,0
3555,-0.8112733125812502,0
3556,0.22833576604371225,0
3557,-0.06867476462209034,0
3558,0.004117189409217438,0
3559,-0.05634526713245547,0
3560,0.007581683330395817,0
3561,-0.014828803193247728,0
3562,0.002957200838345997,0
3563,0.016357836854735207,0
3564,-0.0020577543035932323,0
3565,0.06025111535614483,0
3566,-0.022735866285420337,0
3567,1.6230445701492233,0
3568,6.903531738614702,0
3569,-0.15236400219481133,0
3570,-0.9965373111887095,0
3571,0.6850529017980587,0
3572,-0.41820824188465733,0
3573,0.2029402780209039,0
3574,-0.11125167244528746,0
3575,0.017090846053523144,0
3576,0.007394308563273881,0
3577,-0.12540028154899838,0
3578,-0.07756822526635844,0
3579,-0.06006008092028227,0
3580,0.008715464798720714,0
3581,0.037445474790025954,0
3582,0.03677894743269983,0
3583,0.13321728937499283,0
3584,3.4983532619379676,0
3585,6.240646629950966,0
3586,-2.796787585654586,0
3587,1.0502481137810298,0
3588,-0.291366241457381,0
3589,0.186353111436799,0
3590,-0.0415650332674325,0
3591,0.12887775535281087,0
3592,0.023698837855381474,0
3593,0.016921292612757544,0
3594,-0.012248560953251589,0
3595,-0.06556887124504927,0
3596,0.03573951363213457,0
3597,-0.0389880047915523,0
3598,-0.008400293816983866,0
3599,-0.04870175246271052,0
3600,0.42452460179243295,0
3601,5.4152074547697895,0
3602,3.3786912446236377,0
3603,-2.694390199304567,0
3604,1.4148248594577868,0
3605,-0.79482307091224,0
3606,0.22035411237762964,0
3607,-0.11168230161067912,0
3608,0.03518663951659791,0
3609,0.01365296471656327,0
3610,-0.0542855948169329,0
3611,-0.09457889795570391,0
3612,-0.0033813115161043204,0
3613,-0.01983811611211011,0
3614,0.034511004491972384,0
3615,0.005983557761984646,0
3616,-0.0037637730530329094,0
3617,1.532306016377777,0
3618,6.914365838594366,0
3619,-0.30077517590239716,0
3620,-1.005776426723845,0
3621,0.7475309217079025,0
3622,-0.4778799193802265,0
3623,0.06554617959851043,0
3624,-0.09964245332162402,0
3625,-0.16134548568395898,0
3626,-0.14797409102480502,0
3627,-0.0580639743066663,0
3628,-0.05433746083554678,0
3629,-0.07667834188534647,0
3630,-0.1683733138751954,0
3631,-0.09958237323019481,0
3632,-0.1017274147269193,0
3633,0.05311798257504831,0
3634,3.3900418499841174,0
3635,6.150142583799853,0
3636,-2.754881123304014,0
3637,1.045001604798833,0
3638,-0.35879284751093066,0
3639,0.12849162576111883,0
3640,-0.09938509153186621,0
3641,-0.03780841772705541,0
3642,-0.007703589830007313,0
3643,0.007230531746840994,0
3644,0.006894887203303026,0
3645,-0.0018795164251308658,0
3646,-0.03886099515777254,0
3647,-0.02695455362650122,0
3648,-0.028511237198101454,0
3649,-0.040978359541639336,0
3650,0.5594717411278531,0
3651,5.516129015291367,0
3652,3.431174870282514,0
3653,-2.744459505250411,0
3654,1.445504595946819,0
3655,-0.826473362866658,0
3656,0.25762851839283596,0
3657,-0.08541097927486174,0
3658,-0.05337064185623296,0
3659,-0.09631210730806772,0
3660,-0.08645120713554794,0
3661,-0.05393816095630815,0
3662,-0.059247571911671223,0
3663,-0.1212292940603404,0
3664,-0.026133128102772105,0
3665,0.037934896442889984,0
3666,-0.03390428927807326,0
3667,1.5039885836195863,0
3668,6.973412624808756,0
3669,-0.3103721903372497,0
3670,-0.9330806246637934,0
3671,0.7842131206645192,0
3672,-0.38934689799061856,0
3673,0.06376397655911943,0
3674,-0.16061437002371812,0
3675,0.030650987296109572,0
3676,-0.01305722268661387,0
3677,-0.049639565408249195,0
3678,-0.05478944275903047,0
3679,-0.022640623216131712,0
3680,0.014629863075929232,0
3681,-0.019252890193760558,0
3682,-0.09815233411127879,0
3683,0.09987601084205583,0
3684,3.4780332807398113,0
3685,6.178896203887443,0
3686,-2.6992965032245566,0
3687,1.0804033837519176,0
3688,-0.37852746225125344,0
3689,0.15533800558517813,0
3690,0.009878647134204874,0
3691,0.024804076198165735,0
3692,0.06245800038312514,0
3693,0.028522453124322087,0
3694,-0.03401686937323614,0
3695,0.03741686854932444,0
3696,-0.04612223855952883,0
3697,-0.011795559324503525,0
3698,-0.03212931704757957,0
3699,0.015364293952758009,0
3700,0.5562695955220416,0
3701,5.589972200491896,0
3702,3.391250811276216,0
3703,-2.7069674603123604,0
3704,1.5295916375514964,0
3705,-0.8064839060664604,0
3706,0.2484470834127252,0
3707,-0.0713106896322841,0
3708,0.021163268238728054,0
3709,0.0064058411969751955,0
3710,-0.01879578933904004,0
3711,0.03677635683738182,0
3712,-0.015336309856295915,0
3713,-0.014778463519763783,0
3714,-0.02968896612849711,0
3715,0.03189607716057871,0
3716,0.01280299389451441,0
3717,1.6077844101339733,0
3718,6.828151395638601,0
3719,-0.22842324481825657,0
3720,-0.9294669338871572,0
3721,0.6961769809078043,0
3722,-0.3431457132064489,0
3723,0.14209877348775393,0
3724,-0.07942387294667358,0
3725,-0.04626821857034942,0
3726,-0.004625519097811087,0
3727,-0.03707201791148928,0
3728,0.004368660818029472,0
3729,0.008255241334221602,0
3730,0.02840291661570403,0
3731,0.042326643732277805,0
3732,-0.050392649881305845,0
3733,0.11395964221778211,0
3734,3.4816189926860974,0
3735,6.204264389578925,0
3736,-2.69222571039776,0
3737,1.1374306113861108,0
3738,-0.33869198645375515,0
3739,0.09662394087628147,0
3740,0.0341045150802932,0
3741,0.06009897270993307,0
3742,0.127539526495694,0
3743,0.07244740845290469,0
3744,-0.04786998760242977,0
3745,0.016015916710858107,0
3746,-0.01729028432556408,0
3747,0.0017253166059714165,0
3748,0.13511228615637877,0
3749,0.13669375464213213,0
3750,0.560218903580056,0
3751,5.721177660648316,0
3752,3.3471650459383797,0
3753,-2.7015717138235464,0
3754,1.5376507115110447,0
3755,-0.8167834415107253,0
3756,0.2822824206436725,0
3757,-0.1566664191763307,0
3758,0.02957077213572032,0
3759,0.005547908865984778,0
3760,0.06235606309757293,0
3761,0.08186427932889456,0
3762,-0.009696964830089128,0
3763,0.004033365181938864,0
3764,0.11105003929518112,0
3765,0.07492275432267971,0
3766,0.040851238097254855,0
3767,1.6734508053889352,0
3768,7.050175439580116,0
3769,-0.17549196785556062,0
3770,-0.8761898327271629,0
3771,0.7325593606081547,0
3772,-0.4594947154123897,0
3773,0.25076618828162733,0
3774,-0.026009987540927645,0
3775,0.09747503979616323,0
3776,0.07374714068886282,0
3777,0.07700621080240846,0
3778,0.0858094316143322,0
3779,0.017064504049586947,0
3780,0.013619501600807512,0
3781,-0.13907511721245044,0
3782,-0.02375331213232882,0
3783,0.1290853728092683,0
3784,3.4248070740803866,0
3785,6.1461743356059895,0
3786,-2.7606213456865745,0
3787,0.9971498137584709,0
3788,-0.4268129537893537,0
3789,0.07061805450958425,0
3790,-0.07644996593376317,0
3791,0.01921827353290447,0
3792,-0.04630360217503432,0
3793,0.03402604313615153,0
3794,-0.023543295142917448,0
3795,-0.04594702506011042,0
3796,-0.05620412730909044,0
3797,0.06548890820438946,0
3798,-0.01965057835877178,0
3799,0.030143621244810584,0
3800,0.6035951838520753,0
3801,5.571159367640933,0
3802,3.3168656621798167,0
3803,-2.6595034252046537,0
3804,1.5403274077064086,0
3805,-0.7258054029752353,0
3806,0.42999045453926654,0
3807,-0.005338652013406137,0
3808,0.188564565447228,0
3809,0.09562826282993947,0
3810,0.03350745826635265,0
3811,0.137740228106623,0
3812,0.005907985186919713,0
3813,0.07924011693814499,0
3814,0.11215236931277142,0
3815,0.06457772741245507,0
3816,0.007785392716789401,0
3817,1.6829390471060413,0
3818,6.974764102266141,0
3819,-0.20633772530170866,0
3820,-0.8560675442316407,0
3821,0.7518055094022942,0
3822,-0.31178386426901694,0
3823,0.22204921880464307,0
3824,-0.024528087913568867,0
3825,0.08130672870988803,0
3826,0.004106224328144309,0
3827,-0.022577877366880782,0
3828,0.10694081858980949,0
3829,0.025021474107377484,0
3830,0.004975498889628505,0
3831,0.056691822520018406,0
3832,-0.0072113677553573285,0
3833,0.1124032310096065,0
3834,3.615523079150225,0
3835,6.265916608193905,0
3836,-2.6792763655930427,0
3837,1.1056782358511923,0
3838,-0.3423168474331065,0
3839,0.2042405602479933,0
3840,-0.06376511305612545,0
3841,0.07218694559101799,0
3842,-0.03682315790143524,0
3843,-0.00170753792138819,0
3844,-0.002379817189048644,0
3845,-0.03522361988813842,0
3846,-0.00788637468094533,0
3847,0.014632621453862828,0
3848,0.09541903391033271,0
3849,-0.031245823171091043,0
3850,0.6113023538369121,0
3851,5.707169975392691,0
3852,3.4006008355780692,0
3853,-2.6704471195381507,0
3854,1.491745699716973,0
3855,-0.7486180195273835,0
3856,0.302973721114882,0
3857,-0.11768818693889593,0
3858,0.07798207891547956,0
3859,0.04378151538537326,0
3860,0.04938174176425358,0
3861,0.03251503552396279,0
3862,0.029653021331391104,0
3863,0.05395793211987297,0
3864,0.07347793905601367,0
3865,0.10327766185470696,0
3866,0.11866582183947759,0
3867,1.6051782416451272,0
3868,7.007549844769181,0
3869,-0.2860160647925807,0
3870,-0.8516643595371057,0
3871,0.7644362281406745,0
3872,-0.3282829566297869,0
3873,0.25417522602769316,0
3874,0.039106692167116236,0
3875,0.07199173560203587,0
3876,-0.047270395470891007,0
3877,0.02764316183959978,0
3878,0.03970847059610988,0
3879,-0.012416896851970557,0
3880,0.045029570421073584,0
3881,0.0014753446672056587,0
3882,0.06994371581474307,0
3883,0.09459454908580547,0
3884,3.5779322664339888,0
3885,6.25920972569277,0
3886,-2.7341067712351195,0
3887,1.1030264371789469,0
3888,-0.3397477636548404,0
3889,0.21035485403494691,0
3890,0.026647605283599766,0
3891,0.17219696894065667,0
3892,-0.007243863527466976,0
3893,0.13995408885321126,0
3894,0.13385245105546212,0
3895,0.07262614907014633,0
3896,0.02114285719545248,0
3897,0.023714892084536393,0
3898,0.011387204730994908,0
3899,0.13473790225296461,0
3900,0.5521260064350992,0
3901,5.718781531829615,0
3902,3.3323995717017216,0
3903,-2.5702194213458522,0
3904,1.5915655986084234,0
3905,-0.7821389438790585,0
3906,0.3752234337988469,0
3907,-0.06423290811717154,0
3908,0.09965721267843698,0
3909,0.09647316768800683,0
3910,0.06686209187296578,0
3911,0.1298265010756443,0
3912,0.1515335279521997,0
3913,0.09750366111293918,0
3914,0.018408154868521716,0
3915,0.05453029077301616,0
3916,0.14568008974839955,0
3917,1.6818997603686643,0
3918,7.020494642660455,0
3919,-0.38035158138469294,0
3920,-0.9375884041215026,0
3921,0.7223809950039951,0
3922,-0.30863339342332835,0
3923,0.15731782652781956,0
3924,-0.09890928214887965,0
3925,-0.04309735287026967,0
3926,0.0678111342742228,0
3927,-0.03468860304535561,0
3928,-0.06615008420261403,0
3929,0.006227133340994104,0
3930,0.02033351784982763,0
3931,0.09053051239509238,0
3932,0.020289570354220254,0
3933,0.16040848419105733,0
3934,3.6158050068966325,0
3935,6.236310872414859,0
3936,-2.7924527837874478,0
3937,1.2621727907131146,0
3938,-0.34622555487168094,0
3939,0.09861573587802089,0
3940,-0.03665795561713516,0
3941,0.07609047965592733,0
3942,-0.03275434120270786,0
3943,0.06610865486128105,0
3944,0.09609012370872216,0
3945,-0.023024667000434984,0
3946,0.05284469348118864,0
3947,-0.017566223527856514,0
3948,-0.06103925192031861,0
3949,0.006538021660545509,0
3950,0.5318047006606893,0
3951,5.5782545328586846,0
3952,3.3631738901058124,0
3953,-2.6995470773713555,0
3954,1.6190831659844593,0
3955,-0.6972673568756678,0
3956,0.3072377904700467,0
3957,-0.06476789279153669,0
3958,0.04334098297284146,0
3959,-0.00011737080042496361,0
3960,0.01963936341751871,0
3961,-0.04396506882338331,0
3962,0.0340906701840836,0
3963,-0.0654972225316193,0
3964,-0.022415365305292128,0
3965,0.017995175433228178,0
3966,0.0011504827176540937,0
3967,1.6076152301278575,0
3968,6.9039077016014945,0
3969,-0.3276989160014581,0
3970,-0.9376779118220445,0
3971,0.7093523865479028,0
3972,-0.2358602576880575,0
3973,0.16202340756887995,0
3974,0.03130383094106968,0
3975,-0.07368161583533275,0
3976,-0.016115411993481335,0
3977,0.059224243794878874,0
3978,-0.07053455349443126,0
3979,-0.056721608037721395,0
3980,-0.008366259502395796,0
3981,-0.0745256933670094,0
3982,-0.036607660360537864,0
3983,0.12234401249312388,0
3984,3.3769416237429266,0
3985,6.091805378880691,0
3986,-2.8727698754249578,0
3987,1.0537305251237032,0
3988,-0.3853166774327623,0
3989,0.17338566008591583,0
3990,-0.011906421014009239,0
3991,-0.11028146449855596,0
3992,-0.01241597998437606,0
3993,0.004419811153986368,0
3994,-0.061308701913859426,0
3995,0.10698513478174694,0
3996,-0.10698312610373054,0
3997,-0.030443941859825865,0
3998,-0.006935669253670493,0
3999,-0.04492846405845913,0
4000,0.4705426598272956,0
4001,5.644200079941737,0
4002,3.165015417358916,0
4003,-2.7114461843880697,0
4004,1.538030357491031,0
4005,-0.8517550878015535,0
4006,0.25174665449340433,0
4007,-0.16102057468811173,0
4008,-0.039551226461333425,0
4009,-0.10041535058871943,0
4010,-0.028108537324895155,0
4011,0.023281665552536593,0
4012,-0.03805351938074396,0
4013,-0.049070818136675645,0
4014,0.04586382916662596,0
4015,-0.032115551198735416,0
4016,-0.005386460831290289,0
4017,1.718465566641948,0
4018,6.912675763740379,0
4019,-0.35411318232412087,0
4020,-0.8787961467180444,0
4021,0.7157673043524702,0
4022,-0.306101416394296,0
4023,0.13741511086923325,0
4024,-0.1173426642007307,0
4025,-0.027002440197547346,0
4026,-0.06435454552975893,0
4027,-0.0843353332276625,0
4028,-0.0687562543122021,0
4029,-0.040427252061803864,0
4030,-0.05785818418500674,0
4031,-0.18160501948289037,0
4032,-0.07657585775706778,0
4033,-0.015364090700512797,0
4034,3.54086081521421,0
4035,6.1310975831378025,0
4036,-2.7965409951925264,0
4037,1.042100799663261,0
4038,-0.5964795150319504,0
4039,0.02226114087970079,0
4040,-0.16924419620333225,0
4041,-0.03378477481953284,0
4042,-0.06579641583343472,0
4043,0.011125407276458388,0
4044,0.009238325998152594,0
4045,-0.02319136790293573,0
4046,-0.11516396959864855,0
4047,-0.10319337914193502,0
4048,0.03316183696528796,0
4049,-0.15126174959966793,0
4050,0.4811763465283246,0
4051,5.561504596517802,0
4052,3.1695019497910852,0
4053,-2.9005251096641187,0
4054,1.4923109229705316,0
4055,-0.8891642330375472,0
4056,0.2607119384580447,0
4057,-0.2574408759161102,0
4058,-0.02724063410341406,0
4059,0.018280498344874954,0
4060,-0.04718036297263805,0
4061,-0.0925466175235383,0
4062,-0.062389107183981884,0
4063,-0.17203858181944512,0
4064,-0.07712478797430201,0
4065,-0.09781069875479634,0
4066,-0.03084978146924732,0
4067,1.6450708286645466,0
4068,6.879249903392871,0
4069,-0.4181719700943536,0
4070,-0.8037592099453332,0
4071,0.6780907866786301,0
4072,-0.36178454059652554,0
4073,0.010061231266659337,0
4074,-0.2125008425860747,0
4075,-0.10160525860953229,0
4076,-0.019276116926201334,0
4077,-0.04365857065937355,0
4078,-0.07079706350107827,0
4079,-0.03879788369524401,0
4080,-0.01353975668535494,0
4081,-0.054657808157550045,0
4082,0.013016528680031864,0
4083,0.13881639722542086,0
4084,3.532632019617255,0
4085,6.151528198813295,0
4086,-2.720075950926616,0
4087,1.0219272775999175,0
4088,-0.5332663865366677,0
4089,0.18951692835228154,0
4090,-0.13124071094151432,0
4091,-0.021174788808224786,0
4092,-0.13189280790613134,0
4093,0.0067916958756231785,0
4094,-0.13865870517569998,0
4095,-0.11906346401107645,0
4096,-0.13077686157872181,0
4097,-0.13708400411536945,0
4098,-0.0757970256021833,0
4099,-0.12021974343690535,0
4100,0.510214273292919,0
4101,5.588186291594662,0
4102,3.170302981905726,0
4103,-2.6668520324637877,0
4104,1.513512826114973,0
4105,-0.8377964560872948,0
4106,0.2931651612251879,0
4107,-0.22366375390789753,0
4108,-0.044073369909121946,0
4109,-0.06567759553975797,0
4110,-0.009855153880002833,0
4111,-0.060840490851900006,0
4112,0.021307031919971228,0
4113,-0.01907203546186312,0
4114,-0.06308602271796926,0
4115,-0.06764424674044427,0
4116,0.007880498457896706,0
4117,1.6498934822875508,0
4118,6.882675346160408,0
4119,-0.4830066998263078,0
4120,-0.9626003374657158,0
4121,0.5893819019447109,0
4122,-0.4120687360071939,0
4123,0.10434138769189333,0
4124,-0.12277308114650311,0
4125,-0.098187846366455,0
4126,-0.0664423692483135,0
4127,-0.03163979436479193,0
4128,-0.014414257148174356,0
4129,-0.08771053365161495,0
4130,-0.021787922231235195,0
4131,-0.03213258404987979,0
4132,-0.01923369747984831,0
4133,0.2664281172148809,0
4134,3.5707152255909094,0
4135,6.125050468268006,0
4136,-2.740324529439937,0
4137,1.1140888688677155,0
4138,-0.37238280168121646,0
4139,0.156760667789807,0
4140,-0.07349959661885314,0
4141,0.004290143918232556,0
4142,0.007450683655622126,0
4143,-0.07334772166755449,0
4144,-0.062460174098932536,0
4145,-0.056303021542207246,0
4146,-0.007844568937354107,0
4147,0.041594808430506426,0
4148,-0.0069459255890662736,0
4149,0.03627199369223227,0
4150,0.5620107588871027,0
4151,5.786834206678149,0
4152,3.316553419068284,0
4153,-2.6774817195129956,0
4154,1.4714446281398839,0
4155,-0.6847217438721565,0
4156,0.4134844841661854,0
4157,0.01735560856215372,0
4158,0.07827291644125799,0
4159,0.059442374627452436,0
4160,-0.007858496158198839,0
4161,0.07336140467528722,0
4162,-0.05867523054794475,0
4163,0.015146146367421818,0
4164,-0.053357099465285204,0
4165,-0.056639716925312486,0
4166,-0.0652426355090873,0
4167,1.613396965112309,0
4168,6.9264007257496525,0
4169,-0.4522655885959912,0
4170,-0.8126386269017889,0
4171,0.7641896262399314,0
4172,-0.4356421932805332,0
4173,0.1444482077871339,0
4174,-0.049307884451173886,0
4175,0.020997748215429685,0
4176,-0.0378073005633939,0
4177,-0.02456060382706028,0
4178,-0.06364577970726601,0
4179,-0.04659042898272329,0
4180,-0.018936527101388073,0
4181,-0.05005450560186585,0
4182,0.10570497140618931,0
4183,0.17875404639019007,0
4184,3.723477029204064,0
4185,6.05493482686327,0
4186,-2.8313075224300257,0
4187,1.1930596420888169,0
4188,-0.4382333009443455,0
4189,0.1636310780928127,0
4190,-0.15370378444088253,0
4191,-0.06646618826447212,0
4192,0.029571909616469078,0
4193,0.010433023460077562,0
4194,-0.012802205057373159,0
4195,-0.03968402812855558,0
4196,0.019163015059223826,0
4197,-0.0025435588263458073,0
4198,0.04090160423279729,0
4199,0.07714834444038217,0
4200,0.5470779124106255,0
4201,5.7735120367603106,0
4202,3.195491295235418,0
4203,-2.647832466888611,0
4204,1.551791306339337,0
4205,-0.7345365014637258,0
4206,0.4334103224880232,0
4207,-0.00803741625036028,0
4208,0.1308868644300773,0
4209,0.154626935379556,0
4210,0.08259377669543563,0
4211,0.1610570768683307,0
4212,0.10297818766098595,0
4213,0.10232850650557339,0
4214,0.11798333349359864,0
4215,0.15964445643360514,0
4216,0.15201518776769368,0
4217,1.8674058382694831,0
4218,7.1327187883394885,0
4219,-0.39046767092898216,0
4220,-0.7358525691655123,0
4221,0.7780267989040296,0
4222,-0.3328867043979215,0
4223,0.30237940729988055,0
4224,-0.038086658371119075,0
4225,0.10752587983163979,0
4226,0.06868151460316663,0
4227,0.10546620551957844,0
4228,0.11194186863118638,0
4229,0.06805669549270692,0
4230,0.01648192335002853,0
4231,0.04069071828779841,0
4232,-0.014999198561335574,0
4233,0.19214230243856398,0
4234,3.770400828584048,0
4235,6.087403510832251,0
4236,-2.7428108294267743,0
4237,1.2592750723630335,0
4238,-0.3259581067184519,0
4239,0.185463218184206,0
4240,0.049297251195128504,0
4241,0.06481755299905084,0
4242,0.05186147204972396,0
4243,0.023067122066954153,0
4244,0.06985755324827154,0
4245,0.14568615870134494,0
4246,0.06355502358916378,0
4247,0.10380705669097445,0
4248,0.09216494220147735,0
4249,0.16680931140456212,0
4250,0.7144286864750254,0
4251,5.843666209212523,0
4252,3.245124458571801,0
4253,-2.5530690069448903,0
4254,1.5713709737659138,0
4255,-0.5895831103001059,0
4256,0.3919091960249659,0
4257,-0.02704389849911315,0
4258,0.20460440098154142,0
4259,0.0009552936149537089,0
4260,0.12131040458136562,0
4261,0.1274858362842969,0
4262,0.05153745700565054,0
4263,0.02281386430931997,0
4264,-0.0026794497833247805,0
4265,0.1333633877328657,0
4266,0.024049226989627824,0
4267,1.7570134754883833,0
4268,7.037158489373323,0
4269,-0.4380929171860368,0
4270,-0.6295767395377511,0
4271,0.7006239059163104,0
4272,-0.2620678210099032,0
4273,0.26907956042969927,0
4274,0.009050650995546725,0
4275,0.11792943366781197,0
4276,0.020182002948720523,0
4277,0.008701960890945479,0
4278,0.0842808293967188,0
4279,0.1216659454942752,0
4280,0.12330907440829467,0
4281,0.08824853645968266,0
4282,0.017035622149545876,0
4283,0.18572187150652164,0
4284,3.729985361984195,0
4285,6.140777480041326,0
4286,-2.6968621665811257,0
4287,1.2009664502007433,0
4288,-0.333795793521514,0
4289,0.3317534244451023,0
4290,-0.007660062282012936,0
4291,0.1183301941477478,0
4292,0.1121216430730606,0
4293,0.04360015353830285,0
4294,0.10739711836073959,0
4295,0.02793804759178095,0
4296,0.08317664413203285,0
4297,0.12879994229665329,0
4298,0.15980377843392918,0
4299,0.08645948081588141,0
4300,0.7273700578863453,0
4301,5.846156525057919,0
4302,3.2107798320137766,0
4303,-2.5626331906950166,0
4304,1.6112768274487081,0
4305,-0.6829225339466501,0
4306,0.48779701693282046,0
4307,-0.016083441313946,0
4308,0.1904668054242296,0
4309,0.08735949703800962,0
4310,0.08900865701496442,0
4311,0.06651556615152912,0
4312,0.09196405389948091,0
4313,0.10131601638146208,0
4314,0.07979048963535933,0
4315,0.09526709649283849,0
4316,0.030069795293971566,0
4317,1.8579565652828192,0
4318,6.9979426560188545,0
4319,-0.4695136007428255,0
4320,-0.7276612873810431,0
4321,0.7824448668894087,0
4322,-0.2580020560365059,0
4323,0.25082088825673454,0
4324,0.033676741285779035,0
4325,0.1354464314046063,0
4326,0.0869956024735089,0
4327,0.08530810399245561,0
4328,0.03953810829624482,0
4329,0.085149644298386,0
4330,0.125615184242079,0
4331,0.08894007422281158,0
4332,0.15035796037690163,0
4333,0.22924043934361313,0
4334,3.741310734910419,0
4335,6.113720759667435,0
4336,-2.6979485062980086,0
4337,1.2799332031099748,0
4338,-0.41363290478966125,0
4339,0.20019608593845994,0
4340,-0.016950177798487176,0
4341,0.14820396107937084,0
4342,0.03120420280039239,0
4343,0.07191872093953196,0
4344,0.08339213572770277,0
4345,0.04834613610016977,0
4346,0.0568090192020313,0
4347,0.017690585813459947,0
4348,0.0768440330960839,0
4349,-0.021532318754599718,0
4350,0.6137964770111621,0
4351,5.825950004970914,0
4352,3.23571956600214,0
4353,-2.56852342364834,0
4354,1.4797166633177423,0
4355,-0.6780919478198594,0
4356,0.37237199661647713,0
4357,-0.1280903787055243,0
4358,0.04325187333781874,0
4359,0.04239740643399339,0
4360,0.04349354303559312,0
4361,-0.017978242594439163,0
4362,0.10258301296923444,0
4363,-0.0050697343998604705,0
4364,0.11300091681582985,0
4365,0.019697180024796444,0
4366,-0.05374357051698591,0
4367,1.8014690595249978,0
4368,7.073491614193792,0
4369,-0.5027153313558781,0
4370,-0.6961184569416208,0
4371,0.7988156796679291,0
4372,-0.24899704754450522,0
4373,0.16508758039150134,0
4374,0.09353169943044792,0
4375,0.15373662267652857,0
4376,0.13140994971165504,0
4377,0.1695873824728509,0
4378,0.10336234185434832,0
4379,0.09222334965978775,0
4380,0.08921565596358284,0
4381,0.22419255088757295,0
4382,0.06647420505493166,0
4383,0.31292088105819965,0
4384,3.750745218127632,0
4385,6.067184465110153,0
4386,-2.722396736993916,0
4387,1.2697375546361642,0
4388,-0.36496041787379574,0
4389,0.19383248498525982,0
4390,-0.0017278537385812965,0
4391,0.005635495879056818,0
4392,0.06976705705606122,0
4393,0.05495435567804995,0
4394,0.08198320230876331,0
4395,0.07787059135991835,0
4396,0.059502975655123434,0
4397,0.010797855592716461,0
4398,0.0637322354067087,0
4399,0.013164465229502362,0
4400,0.6146306393440283,0
4401,5.817781521907538,0
4402,3.2055996186745936,0
4403,-2.561155683273883,0
4404,1.607046117708652,0
4405,-0.7335450023225535,0
4406,0.4124582820013321,0
4407,-0.12108697889791362,0
4408,0.09308432055160246,0
4409,0.006585977627357083,0
4410,0.06660213362332681,0
4411,-0.006686350690416128,0
4412,-0.007978538753694024,0
4413,0.004917298962318142,0
4414,0.07208190656763189,0
4415,0.04079166484452444,0
4416,0.054844207367882813,0
4417,1.8803835816909804,0
4418,6.967709103140134,0
4419,-0.5004956786992428,0
4420,-0.6931244055082688,0
4421,0.6930921802370923,0
4422,-0.32217626714123637,0
4423,0.17204651382793817,0
4424,-0.021254268422857214,0
4425,0.10135676353748158,0
4426,0.059190642894753745,0
4427,0.09306477755799794,0
4428,0.09296903303416851,0
4429,0.12212037323251271,0
4430,0.03315363903123482,0
4431,0.02518566842431201,0
4432,0.09299310672232497,0
4433,0.11898045455584444,0
4434,3.6714578406606733,0
4435,6.100882534352941,0
4436,-2.8259455709349828,0
4437,1.2912102241184005,0
4438,-0.41127220434605877,0
4439,0.20753300066305677,0
4440,-0.01519133679548215,0
4441,0.02743035473986615,0
4442,0.11307502493469399,0
4443,0.00956748193993101,0
4444,0.10023729287844035,0
4445,0.07592992568416965,0
4446,0.014128808300207584,0
4447,0.002839436347146458,0
4448,-0.07461519769810476,0
4449,-0.004265704996482954,0
4450,0.5752416463016615,0
4451,5.8500367065667245,0
4452,3.151181458293718,0
4453,-2.591636060226512,0
4454,1.4830704579776448,0
4455,-0.7955215429757206,0
4456,0.2695247956406912,0
4457,-0.04610696801282144,0
4458,-0.006838203196534151,0
4459,0.10993205746527897,0
4460,-0.0007169544279941979,0
4461,0.08483599470818431,0
4462,-0.06789086688108406,0
4463,-0.05252808931200749,0
