timestamp,value-0,is_anomaly
0,0.3579628828282496,0
1,4.747937114545059,0
2,5.082699066417578,0
3,-3.057916647911915,0
4,1.5935112666590026,0
5,-0.6987646319649096,0
6,0.30313698595766847,0
7,-0.13655660394915495,0
8,-0.015736162921244426,0
9,-0.07389494469783368,0
10,-0.11471869709349437,0
11,-0.010521214872808684,0
12,-0.023561280864984557,0
13,0.0421376906498107,0
14,-0.05012326111488327,0
15,-0.020128129041871345,0
16,0.015124138864716743,0
17,0.9939585870709382,0
18,6.460123048478083,0
19,1.620531087692435,0
20,-1.860590418393477,0
21,1.322459332319751,0
22,-0.5074689132665797,0
23,0.3304984737274712,0
24,-0.04085471593914565,0
25,0.09725405433515122,0
26,0.05072818821559578,0
27,0.09324627205027161,0
28,0.026441498789332874,0
29,-0.026049002591928466,0
30,0.005082330272585679,0
31,0.01850279001895461,0
32,-0.023029050546142786,0
33,0.06477393198377415,0
34,2.527421015158991,0
35,6.87496201221355,0
36,-1.7946903540096628,0
37,0.20372071867566927,0
38,0.13169674269502518,0
39,-0.026272619808328387,0
40,0.07733742152255475,0
41,-0.014651522938397443,0
42,-0.0376867332884766,0
43,-0.014408202809918585,0
44,0.008476526255058243,0
45,0.1378616913499009,0
46,0.09488478340134307,0
47,9.947426146935182e-05,0
48,0.005752654692463603,0
49,-0.025180672845298128,0
50,0.3114893763585177,0
51,4.676224309417783,0
52,5.053096930537914,0
53,-2.9933596047839837,0
54,1.5381197167903873,0
55,-0.7414744665036476,0
56,0.33543515564643556,0
57,-0.17759857519880953,0
58,0.07547982633124455,0
59,0.03230267179337674,0
60,0.06848746114989893,0
61,-0.014447801902362147,0
62,-0.0020554545425387066,0
63,0.06839966266133465,0
64,0.06818420327412084,0
65,0.10899172821939818,0
66,0.011737470843739814,0
67,1.0150356962378664,0
68,6.359277468642255,0
69,1.628928448444045,0
70,-1.9242691707123472,0
71,1.24972068334387,0
72,-0.5582930343341204,0
73,0.2645961758098336,0
74,-0.16696231011204515,0
75,0.0704523567747552,0
76,0.028037287918454716,0
77,0.07887463974034523,0
78,-0.06996558929723842,0
79,0.05609970251700014,0
80,-0.025752555402435786,0
81,0.06719518723956928,0
82,0.037565318258143646,0
83,0.05259678207695428,0
84,2.5118169710723883,0
85,6.893963711526206,0
86,-1.7827020310752242,0
87,0.24452174181299813,0
88,0.14810991906507245,0
89,-0.10942587889429573,0
90,0.047011176720056926,0
91,-0.08622051615708633,0
92,-0.029661040790793576,0
93,0.04617483440859151,0
94,0.031166765261027775,0
95,-0.0004375164360003285,0
96,-0.03999722014754099,0
97,0.019770943524058143,0
98,0.04377168824736378,0
99,0.0062697442501677535,0
100,0.30632425525192203,0
101,4.5705148123536325,0
102,4.932891317893563,0
103,-2.984307732699645,0
104,1.4913819211726778,0
105,-0.7601193808476514,0
106,0.2569391240894055,0
107,-0.11636100404711697,0
108,0.09210263999319317,0
109,0.02645196686767141,0
110,0.05067865480160377,0
111,0.014703445849026872,0
112,0.12054500234631402,0
113,0.01563043935624102,0
114,0.018315243841999396,0
115,-0.029168878991601952,0
116,0.05140331648296059,0
117,1.020351148913822,0
118,6.463704077973459,0
119,1.4964303801333687,0
120,-1.9394490323706153,0
121,1.20593051104397,0
122,-0.6233473961647364,0
123,0.2574464738399834,0
124,0.009220226890130898,0
125,0.05628975407405226,0
126,0.09320185743941406,0
127,0.14058809771355185,0
128,0.06098818801235649,0
129,0.004431958412794326,0
130,0.028333682946843207,0
131,0.13514045045009737,0
132,0.052308884193680086,0
133,0.010766599924064355,0
134,2.483386230559151,0
135,6.90091709224972,0
136,-1.819664470980163,0
137,0.29695225106241424,0
138,0.08652268849143295,0
139,0.0650812678801566,0
140,-0.011487468499856573,0
141,-0.05858133402635813,0
142,-0.046776539348626286,0
143,0.04096769304880552,0
144,0.01790192450037151,0
145,-0.07485398833121482,0
146,0.08412592286875861,0
147,-0.03758035304024977,0
148,0.051387776339333106,0
149,-0.02416075568671283,0
150,0.3024614189226184,0
151,4.624935899920699,0
152,4.934399470327766,0
153,-2.9285995517365397,0
154,1.5709240220270306,0
155,-0.6836454004880742,0
156,0.37386731110184535,0
157,-0.0351895984520298,0
158,0.1048025347196416,0
159,-0.048300255627503424,0
160,-0.008849529553270442,0
161,0.0050923003648631025,0
162,0.10584461303658062,0
163,0.007627383116606651,0
164,-0.036122074370709266,0
165,-0.010642835868973632,0
166,0.01963694761780645,0
167,1.0450033571934445,0
168,6.5315780999029815,0
169,1.4429019846556659,0
170,-1.873841069438289,0
171,1.2397040424281958,0
172,-0.6583024310258675,0
173,0.3466437359509633,0
174,-0.05185829626137147,0
175,0.08741468614556441,0
176,0.018177878588147414,0
177,0.0064662126321089405,0
178,0.06501561717175636,0
179,0.014038874018201496,0
180,0.053597997851495,0
181,0.13295569987432515,0
182,0.07345270913014423,0
183,0.0029922583650451792,0
184,2.4753628576446767,0
185,6.838695326886427,0
186,-1.8533807857346305,0
187,0.2405119489656246,0
188,0.21327380935448914,0
189,-0.16803976364187817,0
190,0.0569991424056208,0
191,0.08247115879002344,0
192,-0.007519109110718243,0
193,0.028062464720727612,0
194,-0.0033182961917733733,0
195,0.15594175453767928,0
196,0.09195346743563536,0
197,0.08917364330571964,0
198,0.10759093834927445,0
199,0.11818806272054032,0
200,0.4280314469732865,0
201,4.74942433917102,0
202,5.069749229904925,0
203,-2.849236708617514,0
204,1.6997700909626092,0
205,-0.6166749052489912,0
206,0.40246512143993146,0
207,0.02263864786219874,0
208,0.19091189728260466,0
209,0.029602459754891536,0
210,0.06850365440460353,0
211,0.01641262669500542,0
212,0.07274593350284925,0
213,0.07364211401875029,0
214,-0.057106238978752506,0
215,0.04591588004400375,0
216,0.03350360061547969,0
217,1.0351212454047236,0
218,6.596902766652376,0
219,1.5135330599888797,0
220,-1.8681718248396633,0
221,1.2564908817162006,0
222,-0.6055144874424618,0
223,0.3126737358242441,0
224,-0.0029745630447735698,0
225,0.08745553082622931,0
226,0.11395167764079109,0
227,0.05703522212542459,0
228,0.10464407418356536,0
229,0.060937276636247005,0
230,0.14682921454365816,0
231,-0.011882862805232708,0
232,0.08557748312436567,0
233,0.028917876263602607,0
234,2.5206618055129275,0
235,6.927298891327215,0
236,-1.7899262977355814,0
237,0.1887714678797835,0
238,0.16365381943462595,0
239,-0.03392806889837495,0
240,-0.06261979080036834,0
241,-0.06897964603532157,0
242,0.040526716502725324,0
243,-0.03391676442800531,0
244,-0.08343160623229538,0
245,-0.009608186170157915,0
246,0.04380562215991542,0
247,-0.11736946223079209,0
248,-0.0644861509940746,0
249,0.05950639010477242,0
250,0.2518246216073868,0
251,4.732203256596707,0
252,4.985978439378306,0
253,-2.9358780337726293,0
254,1.543350835465386,0
255,-0.6412851079823366,0
256,0.395622541900728,0
257,-0.0586119607462995,0
258,0.11828086675392471,0
259,0.07397787632557726,0
260,0.13340951818163171,0
261,0.057341608175065034,0
262,0.012672499167467776,0
263,0.019389091494672227,0
264,-0.05134127250268877,0
265,-0.09120292182603965,0
266,-0.06644104978309388,0
267,0.9699048766966063,0
268,6.460465555166469,0
269,1.4095606541125565,0
270,-2.001312726330005,0
271,1.1671616156592304,0
272,-0.7089797261336096,0
273,0.19738631081030902,0
274,-0.14059444633186557,0
275,-0.09571196504677942,0
276,-0.01905613945283635,0
277,-0.031004814098486818,0
278,0.03246839516598112,0
279,-0.0756545672161775,0
280,0.08769484438116004,0
281,0.06794715072597168,0
282,0.09279548199248613,0
283,0.011084341564394196,0
284,2.56883475016652,0
285,6.906461273634454,0
286,-1.8944616063362663,0
287,0.30275548788324635,0
288,0.10606576380233616,0
289,-0.09791153346747254,0
290,-0.009456818527109119,0
291,0.009002161228270977,0
292,-0.0900845346457736,0
293,-0.03615524860191413,0
294,0.014094083140853128,0
295,0.011675446986259068,0
296,-0.031315057163263826,0
297,0.07503992501878108,0
298,0.05731251850047592,0
299,0.0159004166982815,0
300,0.2417671193001951,0
301,4.769385157477085,0
302,4.872040125187471,0
303,-2.96130838557652,0
304,1.5127034012685487,0
305,-0.8024574129132379,0
306,0.33406263426606825,0
307,-0.09131272309393085,0
308,0.04660534387685785,0
309,-0.053904857866806016,0
310,0.08803988941716862,0
311,-0.05102484354861896,0
312,-0.06147368014389212,0
313,0.08816528327386311,0
314,-0.002123678117928067,0
315,0.02779715439284449,0
316,0.05870941417672549,0
317,1.0126907259595896,0
318,6.514271020232214,0
319,1.397018310891832,0
320,-1.920713609889369,0
321,1.252393716994926,0
322,-0.5605692170995025,0
323,0.3124762456255276,0
324,-0.064637041043855,0
325,0.043167989970548215,0
326,0.022289338071019994,0
327,0.06658199756313064,0
328,0.05999837902809251,0
329,0.055862632807944776,0
330,0.039653309340270435,0
331,0.04488581744170039,0
332,0.009400971171536083,0
333,0.041920073490208126,0
334,2.5458002810936007,0
335,6.851639265301457,0
336,-1.9169251912615943,0
337,0.26466781365227987,0
338,0.10557852400501157,0
339,-0.0653274460428933,0
340,0.047680919742567635,0
341,0.08316108565736181,0
342,0.04876205749155284,0
343,0.1152896727494012,0
344,-0.0991280001259095,0
345,-0.08032037486580519,0
346,-0.004467707286364645,0
347,-0.00892861497724449,0
348,0.02944632465271766,0
349,-0.0022826453449149367,0
350,0.21276971279919424,0
351,4.645465311640856,0
352,4.863425724210165,0
353,-3.118460535503583,0
354,1.555305319609689,0
355,-0.7436928010066072,0
356,0.25722603592061377,0
357,-0.08874498728264532,0
358,0.11404652932403929,0
359,-0.0035557862321612017,0
360,0.0073927966831629464,0
361,0.11181135532266925,0
362,0.10115641009863861,0
363,0.08065443860838314,0
364,-0.048937337032373775,0
365,0.08955458192883367,0
366,0.08865617763914954,0
367,1.108747391635096,0
368,6.465085846102123,0
369,1.4329707412633008,0
370,-1.8129010894957533,0
371,1.145581013359959,0
372,-0.6678177423357026,0
373,0.21443632260447587,0
374,-0.05306844778732925,0
375,-0.047349675792028104,0
376,-0.04139769340525616,0
377,-0.045257445711247526,0
378,-0.15406198740065544,0
379,-0.07104843811681143,0
380,-0.0792085924167043,0
381,-0.048436022490498595,0
382,-0.07684748285584692,0
383,-0.05570177185056768,0
384,2.5076050337667537,0
385,6.80533986112622,0
386,-2.0194338231971023,0
387,0.2580218017115408,0
388,0.09571046298424982,0
389,-0.09339814739959175,0
390,-0.05672905629935436,0
391,-0.007508202616600048,0
392,-0.022702464965958395,0
393,0.01769006207198269,0
394,0.04648470110246657,0
395,-0.015918119529460668,0
396,-0.06784547597416098,0
397,-0.045813507768114756,0
398,0.023824965792248836,0
399,-0.04617624600571994,0
400,0.34985532778560946,0
401,4.649459228258691,0
402,4.7704436218057396,0
403,-3.055272404933622,0
404,1.5630860929671457,0
405,-0.7162657686000418,0
406,0.2350867070395394,0
407,-0.1582776874607661,0
408,-0.0810157400860185,0
409,-0.088102471305748,0
410,-0.05555897717879466,0
411,-0.12045584916329588,0
412,-0.12247509142661392,0
413,0.020084359408038738,0
414,-0.06949018215962174,0
415,-0.060938751096592095,0
416,-0.09050761608070938,0
417,0.9726045705220246,0
418,6.49651811613987,0
419,1.4205267648926394,0
420,-1.9275727885313847,0
421,1.1884050261785921,0
422,-0.6041797996162191,0
423,0.1340742274501695,0
424,-0.09801626017599524,0
425,-0.03601679943301357,0
426,0.01684365929710825,0
427,-0.026551976988182447,0
428,-0.12761825373271843,0
429,0.046047773891092214,0
430,-0.018577224839018705,0
431,0.033929805915033265,0
432,-0.039311669040291215,0
433,0.08510350191475613,0
434,2.5103746881103155,0
435,6.86068197397376,0
436,-1.9770737121798452,0
437,0.2256201916136858,0
438,0.0598594690310826,0
439,-0.04990459421090016,0
440,0.06057276470997952,0
441,0.06575766745438319,0
442,5.233722666037662e-05,0
443,0.09457559274543685,0
444,-0.10970930645797486,0
445,0.04195582551414561,0
446,0.030007442318106516,0
447,-0.005599070630309084,0
448,-0.037314964358764184,0
449,0.08163456132638859,0
450,0.3263933221400811,0
451,4.742668691051481,0
452,4.886189353767479,0
453,-2.863396995116717,0
454,1.6057507609159496,0
455,-0.7458850172493795,0
456,0.2641286729906619,0
457,-0.12957416380291256,0
458,0.06611708520626604,0
459,0.02037629770574173,0
460,0.05644729795968505,0
461,0.005419771050947259,0
462,0.09936651196859882,0
463,-0.0074411923417220995,0
464,0.027980046944158194,0
465,0.007952435590474212,0
466,0.01368786878645982,0
467,0.9116261813350646,0
468,6.6368226237225505,0
469,1.3132374652472172,0
470,-1.9090710272524845,0
471,1.1572042738506485,0
472,-0.6673002844845242,0
473,0.22513565893196436,0
474,-0.03909226641045875,0
475,0.027154812153079702,0
476,0.009934211431758988,0
477,-0.01786422379952147,0
478,-0.006975451234254266,0
479,-0.0053252706427289265,0
480,-0.03779205739365287,0
481,0.0002371501374207885,0
482,-0.027019100243890877,0
483,0.05032287215849514,0
484,2.552898699962742,0
485,6.7647230209387486,0
486,-2.007531327025335,0
487,0.289723940253368,0
488,0.02633942945514465,0
489,-0.11892018222578411,0
490,-0.015690130630404746,0
491,-0.030019510715769717,0
492,-0.06378882139349866,0
493,-0.008230733691285998,0
494,-0.015372521731822367,0
495,-0.07399762250109106,0
496,-0.04709327482358715,0
497,-0.052503345654047046,0
498,0.02476808262341129,0
499,0.0024632320331145034,0
500,0.24752342363858396,0
501,4.725418707473287,0
502,4.735325082617201,0
503,-2.878263349213162,0
504,1.4926809986793417,0
505,-0.7352588845596811,0
506,0.3397324882156487,0
507,-0.052134998468339015,0
508,0.15394715584573576,0
509,0.05774392035375575,0
510,0.03965892606754802,0
511,-0.030094546596593316,0
512,0.03204513491982555,0
513,0.07851374652024579,0
514,0.032662885743348365,0
515,-0.011305148081220774,0
516,0.11441448556744803,0
517,1.0584304414479733,0
518,6.488359281998843,0
519,1.330200916280612,0
520,-1.7846692581082098,0
521,1.2857231575889572,0
522,-0.5754125944692514,0
523,0.21916717337442004,0
524,-0.000811942860987902,0
525,0.04360244882306001,0
526,0.0721143388049866,0
527,0.03789567759939152,0
528,0.059306999001890695,0
529,0.058190794097338946,0
530,0.03684257004539729,0
531,0.05749443947558318,0
532,0.02820366898226849,0
533,-0.0028119156104105675,0
534,2.655710116985185,0
535,6.900054705245426,0
536,-1.902116273321425,0
537,0.37458876977497735,0
538,0.15328321465108405,0
539,-0.12008282924965671,0
540,0.06165999433011543,0
541,-0.024866464812715226,0
542,0.07574637186602631,0
543,0.1028932059526303,0
544,-0.027729609763658312,0
545,0.03933836688537352,0
546,0.07517261557073991,0
547,0.10112267093841823,0
548,-0.01393743726020269,0
549,0.032134284082794715,0
550,0.37509611970600665,0
551,4.841629726079446,0
552,4.752240520860763,0
553,-2.9570467968326692,0
554,1.6190814621796938,0
555,-0.669503108168772,0
556,0.28054477227092706,0
557,0.06707825923763674,0
558,0.18528777878504354,0
559,0.025146757452773033,0
560,0.02205301578696213,0
561,0.02669892315127244,0
562,0.062538187376109,0
563,-0.027302341395334884,0
564,0.13998007162623283,0
565,0.0687381047127561,0
566,-0.028750837771536253,0
567,1.1592204240308392,0
568,6.61709963562093,0
569,1.4474616128824738,0
570,-1.8737064747165,0
571,1.206480284005765,0
572,-0.5236335502173731,0
573,0.38747042794846964,0
574,-0.070613364418146,0
575,0.08309431879164889,0
576,0.036196568696990346,0
577,0.029263778615899995,0
578,0.06933101834099017,0
579,0.08337062257909472,0
580,0.06652969817110482,0
581,0.017915806862099135,0
582,0.03416646609468971,0
583,0.15444587316728964,0
584,2.6747544728090786,0
585,6.856895313998153,0
586,-1.923696088772767,0
587,0.36498569410799875,0
588,0.1941387693265303,0
589,0.07544609424624658,0
590,0.11091862581841123,0
591,0.07844462191506138,0
592,-0.009122209774237625,0
593,0.047123926250293956,0
594,0.033629828599344616,0
595,0.056630761881966016,0
596,0.028532733548303754,0
597,-0.027052345652326046,0
598,0.14845316694355243,0
599,0.045281986029311945,0
600,0.3347375994123702,0
601,4.652495852767132,0
602,4.793199680142648,0
603,-2.916329978390332,0
604,1.5215285073776992,0
605,-0.7114752072004209,0
606,0.33243977824195614,0
607,-0.06450336661902568,0
608,0.16372074303488296,0
609,0.06057817557269432,0
610,0.007779738137064986,0
611,-0.04186966402643171,0
612,0.09216873522078349,0
613,0.09755807525322169,0
614,0.08265531157198014,0
615,0.05846172220832435,0
616,0.0002636032776680425,0
617,1.1196489093999622,0
618,6.508896398241208,0
619,1.2894670176823615,0
620,-1.7204150896882604,0
621,1.204679569498714,0
622,-0.6085976006172167,0
623,0.27055177007140396,0
624,-0.1851164377431494,0
625,0.020285331619100185,0
626,0.05092949965225334,0
627,-0.07018796926175264,0
628,-0.0827692548142643,0
629,-0.005002769777383466,0
630,0.0034866657871015765,0
631,-0.07999982409013898,0
632,0.03571420158553214,0
633,0.00914230558445467,0
634,2.6158454128251005,0
635,6.75382287007766,0
636,-2.031821268209705,0
637,0.34410036135549044,0
638,0.05691814146835295,0
639,-0.11915598594094429,0
640,0.05814521483498521,0
641,0.024305564951088526,0
642,-0.08137329189355502,0
643,0.0029957085183085434,0
644,0.0755604712689437,0
645,-0.0018091373630837867,0
646,-0.014606563732257927,0
647,-0.006135510380304436,0
648,0.022487179231142962,0
649,0.06687393659766322,0
650,0.26915081496545407,0
651,4.646199089407461,0
652,4.696106391200556,0
653,-3.02894566532216,0
654,1.6820741068455187,0
655,-0.6812190368128265,0
656,0.34029558561306006,0
657,-0.07620022919628286,0
658,-0.01977305041676874,0
659,-0.05524380766279895,0
660,-0.05079436711399857,0
661,-0.10752845836308791,0
662,-0.056787328497863825,0
663,-0.11109347640166589,0
664,-0.049316283973135866,0
665,0.009939212331829216,0
666,-0.027706734513797255,0
667,1.0231847045515876,0
668,6.579189014870434,0
669,1.1929413916573353,0
670,-1.7383231358037534,0
671,1.1604977113977253,0
672,-0.6731660117741151,0
673,0.312333867447934,0
674,-0.05392335888113686,0
675,-0.03435213818215879,0
676,-0.0890251319375618,0
677,-0.01615125230451624,0
678,0.0220483757918115,0
679,0.06304195393366177,0
680,0.024958820370935934,0
681,-0.08249038189006633,0
682,-0.05416862402637718,0
683,0.0022055424619213428,0
684,2.5725734586559352,0
685,6.835689242840511,0
686,-2.0546426084169696,0
687,0.3696204712762329,0
688,0.10130113295934089,0
689,0.011083016685460342,0
690,-0.036433328009157634,0
691,-0.0970294383995454,0
692,-0.022446737937235048,0
693,-0.018857350667046063,0
694,-0.06702440024030165,0
695,-0.0618666398674857,0
696,-0.09468786308058948,0
697,-0.03408973060422248,0
698,-0.04201009113960799,0
699,0.040202096582785826,0
700,0.29897589931566904,0
701,4.786132955224835,0
702,4.696642431934158,0
703,-3.0170843035258734,0
704,1.5149131952286565,0
705,-0.7958365483566389,0
706,0.15584134019463555,0
707,-0.1301410241790521,0
708,-0.0121131953655964,0
709,0.07520602372239057,0
710,-0.11792014929443416,0
711,-0.009641119914798248,0
712,-0.005134811135142005,0
713,-0.06116951596715959,0
714,-0.04793526685378045,0
715,-0.02453983078117965,0
716,0.01902879997509896,0
717,1.062846569088276,0
718,6.536965548810658,0
719,1.239758885503108,0
720,-1.828396238625803,0
721,1.1507180042729699,0
722,-0.6140469067604363,0
723,0.18979733589418213,0
724,-0.11702336099389901,0
725,-0.04192658625445456,0
726,-0.055290401426077225,0
727,-0.00666437736818209,0
728,-0.08327888035302099,0
729,-0.10917385030996649,0
730,0.04266709590473354,0
731,0.020117586583011476,0
732,0.06014316673956698,0
733,0.03617684678460838,0
734,2.591986350116241,0
735,6.757000947979178,0
736,-2.046006483197989,0
737,0.30823322350719823,0
738,-0.06484976150924968,0
739,-0.018188060370842904,0
740,-0.07408774243315765,0
741,-0.010793505194307763,0
742,-0.04073984012725622,0
743,0.0015077053978665468,0
744,0.0008990174574130989,0
745,-0.02096873578466592,0
746,-0.06455197034051495,0
747,0.07643150574389011,0
748,0.02610629029820173,0
749,-0.006320470517409986,0
750,0.32226205551732257,0
751,4.842342491392649,0
752,4.762135479591007,0
753,-2.9955082993064077,0
754,1.4473938105243633,0
755,-0.7682302887668144,0
756,0.2874166001159078,0
757,-0.10869504655018052,0
758,0.0038617697614131844,0
759,-0.0027180116229687246,0
760,0.01977045824550934,0
761,-0.06218838243178985,0
762,-0.007417636571090687,0
763,-0.061713540821096785,0
764,0.030555927870356464,0
765,-0.0743013119387002,0
766,-0.042198818791973666,0
767,1.0095337028803526,0
768,6.51397134317947,0
769,1.1319403299653832,0
770,-1.733960862333583,0
771,1.22265995000668,0
772,-0.675270846008953,0
773,0.275819031165556,0
774,-0.10419110510568685,0
775,0.0009676066198559688,0
776,-0.08362171610805462,0
777,-0.0034435379842423595,0
778,0.0727868033784589,0
779,0.015917176107264456,0
780,-0.029651577094727925,0
781,0.007743584212279445,0
782,0.0758557546430137,0
783,-0.013705471350620148,0
784,2.738475908792545,0
785,6.762584925513402,0
786,-2.0955847619532477,0
787,0.4410844670197572,0
788,0.03842799702674704,0
789,-0.006904530900524498,0
790,-0.023079065285236552,0
791,0.024964574956193825,0
792,0.07002747242242258,0
793,0.07514225563738758,0
794,0.03717200976687745,0
795,0.014380778046672565,0
796,0.04006835001301954,0
797,-0.0830627468215221,0
798,-0.05210436442011452,0
799,-0.015044160680846592,0
800,0.26039393355800006,0
801,4.761392464416716,0
802,4.620351158312742,0
803,-3.101752417269713,0
804,1.590368484168275,0
805,-0.7541882527764051,0
806,0.2799155922598684,0
807,-0.11250050812659168,0
808,0.017720191902101928,0
809,-0.00011229321937557268,0
810,0.028465602186614293,0
811,0.08460865932906586,0
812,0.07034068651180556,0
813,0.09085934543584037,0
814,-0.00512569448708735,0
815,-0.027290177842357634,0
816,-0.07444066561743634,0
817,1.127069940801675,0
818,6.5131137124587495,0
819,1.2334224765105974,0
820,-1.7332988528893059,0
821,1.2011593520542572,0
822,-0.6380571181841308,0
823,0.37619533616375134,0
824,-0.07191967845150096,0
825,0.0552758246396491,0
826,-0.060957417442815756,0
827,-0.05845078603370842,0
828,-0.02243833691066065,0
829,-0.02944689177696934,0
830,0.04401633670388249,0
831,-0.017720712848273965,0
832,-0.02223154773025174,0
833,0.013966245741573766,0
834,2.5854215854012192,0
835,6.775566668814226,0
836,-2.0944056977070185,0
837,0.3893052414031529,0
838,0.011491742465446333,0
839,-0.0812873034355105,0
840,0.015951091988964806,0
841,-0.006490519337999415,0
842,-0.041467235208075784,0
843,0.003562723118715156,0
844,-0.04878823048513642,0
845,0.09948248673965779,0
846,-0.018616902129526616,0
847,0.03641761899012762,0
848,-0.035824214359027474,0
849,-0.06335930523025755,0
850,0.4235764693523692,0
851,4.786351748485509,0
852,4.680212150772624,0
853,-3.059518359564808,0
854,1.5448585157760077,0
855,-0.8401074465163135,0
856,0.32465897071551625,0
857,-0.1024308232843309,0
858,-0.012254497702588721,0
859,-0.12406901096677822,0
860,-0.047378051438356286,0
861,-0.06266070335863633,0
862,-0.03397753045205569,0
863,-0.06838089392717986,0
864,-0.01708334782370908,0
865,-0.06502339149224451,0
866,-0.044193444741415934,0
867,1.1016785186642744,0
868,6.60579909766542,0
869,1.2009100002068411,0
870,-1.7442398375987263,0
871,1.1438339321058542,0
872,-0.5047803467187661,0
873,0.2667319218687578,0
874,-0.057724285243979934,0
875,0.048076233745323604,0
876,0.03680107129281722,0
877,0.049627334942308574,0
878,0.016407160742770134,0
879,0.02030657531349728,0
880,0.011516694460018642,0
881,0.00529692935915556,0
882,-0.05976080994504497,0
883,0.15224012790907532,0
884,2.6405478466795045,0
885,6.798995474189612,0
886,-2.005297275041199,0
887,0.3381461777371073,0
888,0.010434676306757325,0
889,-0.04911464865343042,0
890,-0.09105522203538301,0
891,0.03449661076669325,0
892,0.04622425102654473,0
893,-0.0373309282583566,0
894,-0.06741758777774892,0
895,-0.03896565934307323,0
896,-0.028669846953708913,0
897,0.059317398233949735,0
898,-0.013765882922660413,0
899,-0.025050412143893447,0
900,0.344185190243428,0
901,4.808541877994796,0
902,4.71545920220802,0
903,-2.9241645204836737,0
904,1.6477832854158243,0
905,-0.7000038815775766,0
906,0.35320014989386134,0
907,-0.12607397333910997,0
908,0.1798498618053358,0
909,-0.046962148119674786,0
910,0.057434990860425916,0
911,0.03974341767882909,0
912,0.09426682109512759,0
913,0.009774409793881918,0
914,-0.030658721255756315,0
915,-0.025403213900178277,0
916,-0.04054374968271578,0
917,1.1243121225526385,0
918,6.6578203908286095,0
919,1.1250918295261954,0
920,-1.6559457409992357,0
921,1.1434117529544843,0
922,-0.6839634437280151,0
923,0.23102585012119947,0
924,-0.14911659236899294,0
925,0.010477247710034476,0
926,-0.05051998579887525,0
927,0.04311205481027201,0
928,0.014272867922552883,0
929,0.040368270814435295,0
930,-0.004569698518659213,0
931,0.027523113698066634,0
932,-3.5376541425409004e-05,0
933,-0.034492810862329,0
934,2.814602309564866,0
935,6.7619196708131994,0
936,-2.088673406890601,0
937,0.48923518345459505,0
938,0.05783848065099873,0
939,-0.03310362266670518,0
940,0.04931490882843029,0
941,-0.08370695437807828,0
942,0.009905913426783727,0
943,0.038999359952470634,0
944,0.06695714250575363,0
945,0.0009908263701496785,0
946,-0.014304610684161029,0
947,0.04010631054780957,0
948,0.050138492868416915,0
949,0.0820598370690442,0
950,0.34830948429442443,0
951,4.823021308841717,0
952,4.595663182767082,0
953,-2.9926266698199573,0
954,1.5617010547044727,0
955,-0.8149383669280712,0
956,0.28443204405000905,0
957,-0.12317646171510999,0
958,0.0890022639155188,0
959,0.022703572490341002,0
960,0.056488741433864786,0
961,0.005852464999313165,0
962,0.022355133307488534,0
963,0.017005089164344494,0
964,0.04759437393142758,0
965,-0.0356339188971556,0
966,-0.010802075518725671,0
967,1.155923856738858,0
968,6.685188872269206,0
969,1.1304081356900773,0
970,-1.6636746462214174,0
971,1.1198439088922214,0
972,-0.5787002948297404,0
973,0.20834807163037516,0
974,-0.08426346694845628,0
975,0.05277410726108708,0
976,0.07669855079441018,0
977,0.05141203173670554,0
978,0.03913456293966912,0
979,-0.019145903074002123,0
980,-0.00179459336668129,0
981,0.002913246550893995,0
982,-0.01141629178393284,0
983,0.10742804868772621,0
984,2.773000256695045,0
985,6.755495380642848,0
986,-2.0007560833742573,0
987,0.4886042611417118,0
988,0.06634930576415535,0
989,-0.03050966526909763,0
990,0.013928907600295748,0
991,-0.16186691218325283,0
992,0.06745261358348753,0
993,0.06495324757506805,0
994,0.05666940794852203,0
995,0.026094207291143034,0
996,0.07393699449035998,0
997,0.05329821877101564,0
998,0.09471160780124571,0
999,0.08202975502964797,0
1000,0.44020830288448226,0
1001,4.933439773544317,0
1002,4.59044344132577,0
1003,-2.895894991864382,0
1004,1.6522374428531503,0
1005,-0.7797559242925683,0
1006,0.36497765762728185,0
1007,0.009620781738805956,0
1008,-0.02147147217516024,0
1009,0.021200960885433863,0
1010,0.0693892712144459,0
1011,0.1211704432885096,0
1012,-0.0653875643497875,0
1013,0.012820147095236961,0
1014,0.08948096099490575,0
1015,0.12189811059609165,0
1016,0.0027722117625180107,0
1017,1.1588209650720687,0
1018,6.645432114544444,0
1019,1.082312717147956,0
1020,-1.6148822526724014,0
1021,1.2091641907257287,0
1022,-0.540233431894779,0
1023,0.30603618557437356,0
1024,0.035354420971121577,0
1025,0.13816933746699958,0
1026,-0.004622666653149761,0
1027,0.02215635129830601,0
1028,0.1095205670237645,0
1029,0.11138594014851556,0
1030,-0.05458644376535061,0
1031,0.13065529319225253,0
1032,0.04571395257189413,0
1033,-0.002635862085646,0
1034,2.8340820335624115,0
1035,6.645790004825587,0
1036,-2.0259351718788268,0
1037,0.40000051370235956,0
1038,0.009967101025230806,0
1039,-0.09032431075631916,0
1040,0.06884573700729393,0
1041,0.115834565309762,0
1042,0.0019594689729404667,0
1043,0.07710542175759985,0
1044,0.0024937290743238805,0
1045,0.03550134556822027,0
1046,0.09217709287207607,0
1047,-0.007838359265283,0
1048,0.16651076588065145,0
1049,0.05892437455614401,0
1050,0.3629852193746415,0
1051,4.932490554096357,0
1052,4.638982408754037,0
1053,-2.8147592105476322,0
1054,1.6639970557161412,0
1055,-0.748070955511749,0
1056,0.342262501681059,0
1057,0.011512093841078208,0
1058,0.14745556059698703,0
1059,-0.026373202305313002,0
1060,0.0774751382067863,0
1061,0.09020684683328443,0
1062,0.07250413738455785,0
1063,0.03927937153379635,0
1064,0.04591556827129416,0
1065,0.02363169775547081,0
1066,0.0872191231043693,0
1067,1.0948839732634341,0
1068,6.635733794617407,0
1069,1.0056352514753908,0
1070,-1.6201973452083613,0
1071,1.1323643010622286,0
1072,-0.5940597666005503,0
1073,0.20168747116039948,0
1074,-0.002158120594132701,0
1075,0.06592994980022396,0
1076,0.035748397456358556,0
1077,-0.015559328887907994,0
1078,-0.03762162908580714,0
1079,0.09240422564249749,0
1080,0.02545605348274349,0
1081,0.12682474475914254,0
1082,0.08270559850531385,0
1083,0.08581886353713028,0
1084,2.8428807994977743,0
1085,6.838414098627686,0
1086,-2.035612644766791,0
1087,0.4597044173697509,0
1088,0.07109858968856639,0
1089,-0.015509218219039804,0
1090,0.09944891508358314,0
1091,-0.1077774258544458,0
1092,0.013096817485069426,0
1093,0.11273021682606099,0
1094,0.07478857491879987,0
1095,0.10971392722274553,0
1096,0.01820039140072938,0
1097,0.05458735609972555,0
1098,0.027455015657716637,0
1099,0.06627530453270783,0
1100,0.377856241619453,0
1101,4.8192283461320065,0
1102,4.633394769808139,0
1103,-2.8791296712718184,0
1104,1.5988625617526548,0
1105,-0.7053060909770771,0
1106,0.42621520546063296,0
1107,-0.10322749555834008,0
1108,0.0278491015682353,0
1109,0.09506375407485158,0
1110,0.02275180891427515,0
1111,0.09931967532167726,0
1112,-0.0022748849219136613,0
1113,0.01887781599150017,0
1114,0.08282570507681658,0
1115,0.09504621186918183,0
1116,0.03494601638759723,0
1117,1.118874439777524,0
1118,6.656749670940519,0
1119,1.0492422400100696,0
1120,-1.736368571984693,0
1121,1.0970185076999297,0
1122,-0.534152655588068,0
1123,0.27987227534520387,0
1124,-0.1087250815035674,0
1125,0.09547650209547728,0
1126,-0.02419385847540772,0
1127,0.04446462083527025,0
1128,0.03245736951206917,0
1129,0.11333420694855909,0
1130,-0.0231641072079694,0
1131,-0.00899976749275391,0
1132,-0.02426218951749394,0
1133,0.03856632505002203,0
1134,2.8200424657081773,0
1135,6.701351838992924,0
1136,-2.052321853521262,0
1137,0.4900409671860197,0
1138,-0.021602175946516415,0
1139,-0.06353170615357939,0
1140,0.07858460622528848,0
1141,-0.0003745071926898949,0
1142,0.02919709134988617,0
1143,0.07052039137634956,0
1144,-0.03305549171861074,0
1145,0.005371574731527169,0
1146,0.018418166374157347,0
1147,0.04995693687372711,0
1148,-0.05136458703697361,0
1149,-0.021810362568836318,0
1150,0.2874253717676961,0
1151,4.937062095796863,0
1152,4.537430581901106,0
1153,-2.903772251134122,0
1154,1.5348647104324984,0
1155,-0.7925597564479284,0
1156,0.27075426368903255,0
1157,-0.08018934703985499,0
1158,0.048209286672148494,0
1159,-0.09542271615407416,0
1160,-0.07509127291327819,0
1161,0.016071166980458858,0
1162,0.05391161117158554,0
1163,-0.022631007680684715,0
1164,0.03097054018308311,0
1165,-0.07440954511065953,0
1166,-0.025683632865485202,0
1167,1.168506689856361,0
1168,6.594620016276661,0
1169,1.018592479571409,0
1170,-1.7399406561704627,0
1171,1.0665412935223337,0
1172,-0.6519108487491341,0
1173,0.11386113328583632,0
1174,-0.08160499301185181,0
1175,-0.04920903283691434,0
1176,-0.024788078360835623,0
1177,-0.0025940872276474475,0
1178,-0.040822089204190004,0
1179,0.049091146615027864,0
1180,0.06251663587732924,0
1181,0.09368405565619135,0
1182,-0.003454272253988611,0
1183,0.01783297213914265,0
1184,2.823771235505733,0
1185,6.710145239856423,0
1186,-2.166201990390098,0
1187,0.3993941477431935,0
1188,-0.017553044129664616,0
1189,-0.10350867058376624,0
1190,-0.1074416244362287,0
1191,-0.04940518348300112,0
1192,-0.07279748189002003,0
1193,-0.1319885258396152,0
1194,-0.11423704995972753,0
1195,-0.143509358289324,0
1196,0.026773919547451966,0
1197,-0.013597914762706498,0
1198,-0.07085007656465148,0
1199,-0.05209550031145203,0
1200,0.3462010523131009,0
1201,4.876560911660905,0
1202,4.533455882501738,0
1203,-3.0138382673395605,0
1204,1.572543815990539,0
1205,-0.81945943145908,0
1206,0.3079025226257693,0
1207,-0.1721137406506384,0
1208,-0.03638922700239905,0
1209,0.003914189237690588,0
1210,-0.09855251133103854,0
1211,-0.023354394848348312,0
1212,-0.048869635597284806,0
1213,-0.07393723033206608,0
1214,-0.07664161294526362,0
1215,-0.03716811705758491,0
1216,-0.05500458643597727,0
1217,1.0667064754904227,0
1218,6.46188780332498,0
1219,0.9276147616042169,0
1220,-1.731615357076587,0
1221,0.9525716150880491,0
1222,-0.6906903061729426,0
1223,0.22298559945741503,0
1224,-0.07607515324908516,0
1225,0.05287849411277195,0
1226,-0.06617109976989267,0
1227,-0.06641433310551155,0
1228,0.005340477870008471,0
1229,0.055082435722518856,0
1230,-0.012601941709146386,0
1231,0.1641385453494892,0
1232,0.0646533791380227,0
1233,0.1985473923260352,0
1234,2.943921309362771,0
1235,6.732631888370582,0
1236,-2.1601834492124037,0
1237,0.506491102805097,0
1238,0.018623096078340187,0
1239,-0.10269410405562995,0
1240,0.019994880643519505,0
1241,-0.04320425011330181,0
1242,-0.010595174732119454,0
1243,0.003548736359215203,0
1244,-0.0917278452526855,0
1245,-0.15358073467445793,0
1246,-0.07373932398831287,0
1247,-0.10678777310073528,0
1248,-0.025264120150575352,0
1249,-0.06253465581743466,0
1250,0.17891901273879832,0
1251,4.922013524361285,0
1252,4.452163301492425,0
1253,-3.0640008608911873,0
1254,1.5606680461660294,0
1255,-0.8115979942691331,0
1256,0.28721351691357583,0
1257,-0.06849576492808791,0
1258,-0.027953891808941693,0
1259,-0.01924147251820387,0
1260,0.03401893643658069,0
1261,0.06352574083342734,0
1262,0.059831545217996794,0
1263,-0.02435518654178037,0
1264,-0.10490488851515216,0
1265,-0.0674495770705846,0
1266,-0.04006487739062936,0
1267,1.188202230115918,0
1268,6.669592152759725,0
1269,0.9186533081935284,0
1270,-1.6416769461059157,0
1271,1.0348237489720142,0
1272,-0.5384642793963006,0
1273,0.21428240000029566,0
1274,-0.10555149410688326,0
1275,0.020942997824317654,0
1276,-0.040319791080675224,0
1277,-0.004076244700265682,0
1278,0.009677000898471545,0
1279,0.057542102309720004,0
1280,-0.003604005999362149,0
1281,-0.05159294818140763,0
1282,0.019123682234974806,0
1283,-0.03510658425164594,0
1284,2.763738741663758,0
1285,6.724860274873442,0
1286,-2.173555430147651,0
1287,0.4675423275860066,0
1288,-0.016349702472602097,0
1289,-0.007954257824998798,0
1290,-0.07518360736048187,0
1291,-0.010685876190639185,0
1292,-0.11994977296013731,0
1293,0.008961198182904952,0
1294,-0.010478737520592956,0
1295,-0.08669081095018379,0
1296,-0.0023874268061569864,0
1297,-0.08126806600093178,0
1298,-0.0701868966794969,0
1299,-0.058371044480876044,0
1300,0.23155679112735636,0
1301,4.942741801067559,0
1302,4.599503500553444,0
1303,-2.9686354439337683,0
1304,1.5598465585941972,0
1305,-0.7817219914894266,0
1306,0.26384821877367504,0
1307,-0.09665757497925187,0
1308,0.003915507378143203,0
1309,-0.007712083472730329,0
1310,-0.042970660754614656,0
1311,-0.02918090768060528,0
1312,0.03949429490689616,0
1313,0.009696849993326574,0
1314,-0.033857099944924904,0
1315,-0.031994767412739385,0
1316,0.023720588633440703,0
1317,1.2316313988637193,0
1318,6.573366443478557,0
1319,0.8482316073776622,0
1320,-1.5279032975089433,0
1321,1.0732208275266208,0
1322,-0.5855261077040451,0
1323,0.1939536951346175,0
1324,-0.0725481863086561,0
1325,-0.020495032097124433,0
1326,0.04857403354324688,0
1327,-0.026350474260515892,0
1328,-0.07460884202511135,0
1329,0.030387211615335037,0
1330,-0.11507293178234243,0
1331,-0.04620279762924541,0
1332,-0.011222201169571592,0
1333,0.048716731931946144,0
1334,2.8028481282391957,0
1335,6.696247029027387,0
1336,-2.2255690633533174,0
1337,0.5584581635229607,0
1338,-0.05749854811217851,0
1339,-0.015795785958231907,0
1340,-0.011669459719388528,0
1341,-0.03598026587175353,0
1342,-0.03525210149722941,0
1343,-0.07738296673684614,0
1344,0.052907224217503976,0
1345,-0.1176487778394337,0
1346,0.11833025221137526,0
1347,0.05599227759297931,0
1348,-0.023062903888152974,0
1349,-0.06909830549646186,0
1350,0.314999212720331,0
1351,4.913123611810566,0
1352,4.44205195922528,0
1353,-2.9971568223577676,0
1354,1.5415857145369434,0
1355,-0.8274416238934782,0
1356,0.30637004762179654,0
1357,-0.10527752593216215,0
1358,0.03144018632437677,0
1359,-0.011132825058910677,0
1360,-0.04233123050393112,0
1361,-0.032511198929509294,0
1362,-0.019093797235469664,0
1363,0.0622705857141781,0
1364,-0.019035745560735146,0
1365,-0.0015448578125424025,0
1366,0.11446854569561174,0
1367,1.1119868371416057,0
1368,6.665809757492347,0
1369,0.9176960773596338,0
1370,-1.6057028944525826,0
1371,1.1490440293953534,0
1372,-0.6110021184377854,0
1373,0.20428939033883325,0
1374,-0.007754665697103119,0
1375,-0.03854677212126077,0
1376,-0.001707695569735615,0
1377,0.06863620429422433,0
1378,-0.11176400911554965,0
1379,-0.08563525618273643,0
1380,-0.043652496246891936,0
1381,-0.04294545282295581,0
1382,-0.12658459109845427,0
1383,0.011762278218954878,0
1384,2.739274991031915,0
1385,6.57069844279282,0
1386,-2.3039410049229305,0
1387,0.511833678152897,0
1388,-0.15066299627383695,0
1389,-0.06635161015491853,0
1390,-0.11707650512679564,0
1391,-0.05326556447792592,0
1392,-0.09960009169603512,0
1393,-0.012905119096338288,0
1394,0.08195926989379827,0
1395,0.04626630483633666,0
1396,0.06500088463127146,0
1397,0.007531223079621972,0
1398,0.032210458721921284,0
1399,0.0016749992059083285,0
1400,0.42893677862323704,0
1401,5.1388558909098085,0
1402,4.532388737889574,0
1403,-2.848184566219158,0
1404,1.6934016286997164,0
1405,-0.6642284138095588,0
1406,0.4336816149469497,0
1407,-0.03897483635832069,0
1408,-0.0010805908444015966,0
1409,0.021969259791084782,0
1410,0.08481288407367919,0
1411,0.032966136445607974,0
1412,-0.06078987648604898,0
1413,0.021527285667450782,0
1414,-0.02828308041776185,0
1415,-0.06829957252198007,0
1416,-0.043068771329114394,0
1417,1.2271841598347815,0
1418,6.648888296487959,0
1419,0.873109996685959,0
1420,-1.5702086297781537,0
1421,1.127137673836197,0
1422,-0.6040495006037039,0
1423,0.26437564453915197,0
1424,-0.16086161436581564,0
1425,-0.021225066163364302,0
1426,-0.04933634345248624,0
1427,-0.027523286150998527,0
1428,0.04998354033202663,0
1429,-0.05054449696311473,0
1430,-0.00868982075332695,0
1431,0.0745808318789886,0
1432,-0.06842843470180703,0
1433,0.06881086288754429,0
1434,2.9078063596172665,0
1435,6.802879208665048,0
1436,-2.3066256115485375,0
1437,0.5522850887566955,0
1438,-0.001409257685080649,0
1439,-0.04012255659069934,0
1440,-0.07129756970429282,0
1441,-0.07210544237321176,0
1442,0.011992230719499439,0
1443,-0.03451934511989729,0
1444,0.03308101682637645,0
1445,-0.07122528573468871,0
1446,0.006132782955029075,0
1447,0.0026973359876481928,0
1448,-0.07245121974154617,0
1449,-0.06965605952415908,0
1450,0.3074788135790849,0
1451,4.9586688194445125,0
1452,4.356318742816702,0
1453,-3.0047464348212722,0
1454,1.5533571001763018,0
1455,-0.8078916458379949,0
1456,0.30509458654483423,0
1457,-0.19543940596734646,0
1458,-0.02843513611791669,0
1459,0.1315186371411235,0
1460,-0.09285358541866709,0
1461,-0.06289804250990616,0
1462,0.00027026785515662025,0
1463,-0.057596991413446735,0
1464,0.03273841705874081,0
1465,0.00994856536827031,0
1466,0.06342246073995525,0
1467,1.2359814666719013,0
1468,6.671363507108307,0
1469,0.9109306631492333,0
1470,-1.574825948735012,0
1471,1.0802648909153272,0
1472,-0.4544051688330098,0
1473,0.29981818495086276,0
1474,-0.03762561882859164,0
1475,0.03392885252894283,0
1476,0.03128333044108191,0
1477,0.08550997834882718,0
1478,0.050555116336936615,0
1479,0.0019365803731152959,0
1480,-0.034579065541494536,0
1481,-0.025358196813200156,0
1482,0.10646876592139519,0
1483,0.10212009065087074,0
1484,2.9165764351278542,0
1485,6.720179492126443,0
1486,-2.1912342125277275,0
1487,0.5289424150716607,0
1488,-0.08403967398980175,0
1489,-0.029298109078552882,0
1490,-0.05792516017146046,0
1491,2.623407992816129e-05,0
1492,-0.0036000181053782946,0
1493,-0.09014174533349373,0
1494,-0.0025645086077893814,0
1495,0.049457412249306415,0
1496,0.03545132871352856,0
1497,0.03587078777697677,0
1498,0.07293247903614228,0
1499,0.025844491188603207,0
1500,0.36883246778518075,0
1501,5.127578325849154,0
1502,4.419523213983901,0
1503,-2.9255942564711934,0
1504,1.584795705846033,0
1505,-0.6725749867304146,0
1506,0.35428084184511965,0
1507,-0.08210894684301566,0
1508,-0.029635178474201766,0
1509,-0.020063674985239883,0
1510,-0.038524086932218864,0
1511,0.01802458152424123,0
1512,-0.019364997674139923,0
1513,-0.012367429083433577,0
1514,-0.021106621434894855,0
1515,0.03204659489905705,0
1516,-0.024375363973068668,0
1517,1.275411871296086,0
1518,6.616185089960231,0
1519,0.7920053275451298,0
1520,-1.6101834123562,0
1521,1.057439476436615,0
1522,-0.5539765787115717,0
1523,0.22515147877125688,0
1524,-0.0039580347816610476,0
1525,0.06722175995846534,0
1526,-0.009606455198046655,0
1527,-0.04441207291918563,0
1528,-0.015235540459283034,0
1529,0.059778425632473306,0
1530,0.00346465116803551,0
1531,-0.04546799499203052,0
1532,0.019698439343730983,0
1533,0.07417388662285337,0
1534,2.92754762853318,0
1535,6.559490748623059,0
1536,-2.267280273823719,0
1537,0.5045397014970253,0
1538,-0.07551141867167187,0
1539,-0.055232131914710395,0
1540,0.01011787773574822,0
1541,-0.0763366865358996,0
1542,0.03575847409385635,0
1543,-0.03760041806364198,0
1544,-0.02901341798814812,0
1545,0.12094736644700164,0
1546,0.021628823156391815,0
1547,-0.06779705803639517,0
1548,0.015468769450271336,0
1549,0.027892907234966065,0
1550,0.39591845080739324,0
1551,4.965753017505517,0
1552,4.358987094762902,0
1553,-2.906979029633204,0
1554,1.590262260403757,0
1555,-0.828458502617825,0
1556,0.31796703978175866,0
1557,-0.1574565771689353,0
1558,0.03259147764109378,0
1559,0.014255844454449927,0
1560,0.04794424207081201,0
1561,-0.004250131882599007,0
1562,0.01565561416499659,0
1563,0.08085400570467857,0
1564,-0.047441171509889114,0
1565,0.0261577790464137,0
1566,0.05272965339976867,0
1567,1.164780408646607,0
1568,6.712403613877844,0
1569,0.9015012589932923,0
1570,-1.5334544425563257,0
1571,0.9778184839777445,0
1572,-0.5884662907633299,0
1573,0.2389934878331477,0
1574,-0.007129772870468079,0
1575,-0.03364470382103985,0
1576,-0.023614919247096966,0
1577,0.016707695983443266,0
1578,-0.06955149421974914,0
1579,-0.05256262203769454,0
1580,0.0029198332961983967,0
1581,0.000893168731325509,0
1582,-0.10434992629624992,0
1583,0.058736018939415054,0
1584,2.937231961730083,0
1585,6.707502787068108,0
1586,-2.2553207806606297,0
1587,0.6265464683800048,0
1588,-0.036019146970481156,0
1589,0.021836977266732255,0
1590,0.053181522088038065,0
1591,0.018916241300618173,0
1592,-0.01785564032426977,0
1593,0.051265423041731595,0
1594,0.06437773069488628,0
1595,-0.010166505696269753,0
1596,0.09917632020369697,0
1597,0.11818249233221557,0
1598,0.042653824146997706,0
1599,0.02737127423013855,0
1600,0.3657402818106449,0
1601,5.089135901981773,0
1602,4.411467426166349,0
1603,-3.005178209388764,0
1604,1.5621956584120908,0
1605,-0.8372002397114777,0
1606,0.4081185662773362,0
1607,-0.06598207797588163,0
1608,-0.0018403844197801972,0
1609,-0.05331853446761256,0
1610,0.013617987701336744,0
1611,0.0072576156419020075,0
1612,-0.00028058456540929356,0
1613,0.07156516554549457,0
1614,0.12019497516931178,0
1615,0.030816583790824397,0
1616,-0.016384393032822606,0
1617,1.1840046023901607,0
1618,6.689006847936182,0
1619,0.7143228917619892,0
1620,-1.6076041374975882,0
1621,0.9540151132404299,0
1622,-0.6120711300285805,0
1623,0.23709573081854027,0
1624,-0.2626776954792806,0
1625,-0.09672257820175251,0
1626,-0.06358931942397568,0
1627,-0.07684142028335246,0
1628,0.09744019734219536,0
1629,0.018726071259403773,0
1630,-0.024027463062266694,0
1631,0.10789563162052934,0
1632,-0.02975572468090025,0
1633,0.14690271675450833,0
1634,2.87217714566734,0
1635,6.721173751464459,0
1636,-2.285455088674299,0
1637,0.5706571653529686,0
1638,-0.07112945432779834,0
1639,-0.030545784832714955,0
1640,0.014896345635587097,0
1641,0.10694545380872042,0
1642,0.008039304223363448,0
1643,-0.09868287234754844,0
1644,0.10109299428734893,0
1645,0.10163320161315224,0
1646,0.021241317228529528,0
1647,-0.01897988345355934,0
1648,0.11574178486646178,0
1649,-0.032165050659478445,0
1650,0.41822141641713173,0
1651,5.167566658489924,0
1652,4.3024300076950865,0
1653,-2.9440416266657414,0
1654,1.6963691881469576,0
1655,-0.7938750626397927,0
1656,0.3355566179362908,0
1657,-0.113238250754854,0
1658,0.10036016357759237,0
1659,0.008213710941029108,0
1660,-0.046409862383037265,0
1661,0.05817184493863191,0
1662,0.01974255224967226,0
1663,0.043684801271913626,0
1664,0.0008586616329698295,0
1665,0.01610138183232116,0
1666,0.08506956821480748,0
1667,1.291307397553197,0
1668,6.697378730708433,0
1669,0.7263345343879863,0
1670,-1.4818162979499212,0
1671,1.112654341620965,0
1672,-0.5817499206044193,0
1673,0.27611116807088015,0
1674,-0.0018380300323946087,0
1675,0.01845049701279148,0
1676,0.07466731526793682,0
1677,0.02244255913436182,0
1678,0.03700160202482876,0
1679,0.11200684178418313,0
1680,0.0012319569345527054,0
1681,0.053809657853736245,0
1682,0.05101366519246921,0
1683,0.08127742385331055,0
1684,2.9849255496623726,0
1685,6.651436984464825,0
1686,-2.187831370049768,0
1687,0.735773421953926,0
1688,-0.04750108429160889,0
1689,0.03741383328014751,0
1690,0.04396922953563183,0
1691,0.1268857696346966,0
1692,-0.015140782749672309,0
1693,0.024165111367208142,0
1694,0.11197454101733259,0
1695,0.017563786850274973,0
1696,0.020908966858744528,0
1697,0.03444464985382143,0
1698,0.009493687484881719,0
1699,0.023141133136340943,0
1700,0.4319592091087658,0
1701,5.123011856857721,0
1702,4.285354588009479,0
1703,-2.8395328685007506,0
1704,1.5634455302706631,0
1705,-0.8004194394524226,0
1706,0.4080627870190336,0
1707,-0.07150797448624675,0
1708,0.15251435927182994,0
1709,0.0618569004749228,0
1710,0.002726828672714024,0
1711,0.03961744247805893,0
1712,0.023023385298577396,0
1713,0.108797661041382,0
1714,0.07393611553875803,0
1715,-0.035814490533009696,0
1716,0.09603764126078312,0
1717,1.313408874116746,0
1718,6.7113100902214,0
1719,0.7156657079704417,0
1720,-1.4744943992854234,0
1721,1.0916437102967458,0
1722,-0.508487510805343,0
1723,0.23444777948698675,0
1724,-0.10351562541876146,0
1725,0.1201664728948256,0
1726,0.03308870496363205,0
1727,0.08077940674039986,0
1728,0.030249623893214637,0
1729,0.011880900590981264,0
1730,0.03442418355137541,0
1731,0.040324348463029014,0
1732,0.1000702890888566,0
1733,0.07901196132779972,0
1734,3.017072939083614,0
1735,6.649258349948841,0
1736,-2.2464995383704363,0
1737,0.6787723428638706,0
1738,-0.04519661362158484,0
1739,-0.05173044841529133,0
1740,-0.0651549458291289,0
1741,0.10667966583956764,0
1742,0.10452789871672666,0
1743,0.06985726117124809,0
1744,0.10807210348681319,0
1745,0.08453273314569013,0
1746,-0.013544412138210851,0
1747,0.005698570734307545,0
1748,0.08516376089706917,0
1749,-0.03972624286060843,0
1750,0.48260096203666747,0
1751,5.074756680701953,0
1752,4.3478342152274685,0
1753,-2.837534175103661,0
1754,1.5750534200269575,0
1755,-0.7032409621529396,0
1756,0.2809774242014319,0
1757,-0.13944747985142805,0
1758,0.12053085314620725,0
1759,0.0774269213398162,0
1760,0.051984696091935206,0
1761,0.05439787855941395,0
1762,0.19360967657300499,0
1763,0.0790080139584105,0
1764,0.018116632557192244,0
1765,0.06346980942644452,0
1766,0.0838477731124867,0
1767,1.3324631503437983,0
1768,6.879041040210946,0
1769,0.7973536107762088,0
1770,-1.3983823280177894,0
1771,1.1779505983447778,0
1772,-0.3987736285236563,0
1773,0.3077487444304353,0
1774,0.0757650501067785,0
1775,0.06701749509125607,0
1776,0.12655130764005884,0
1777,0.14677147954919562,0
1778,0.0013212504700190891,0
1779,0.10528477707169992,0
1780,0.13326592535075918,0
1781,-0.013140517410920892,0
1782,-0.004566129831536946,0
1783,-0.017950128488229924,0
1784,3.012773620192186,0
1785,6.729967299513779,0
1786,-2.283389602822501,0
1787,0.7481637413267112,0
1788,0.02009278445253239,0
1789,0.04074641754086354,0
1790,0.10549960352837147,0
1791,0.03148632870711963,0
1792,0.0948847204948835,0
1793,0.03410624741990112,0
1794,0.024648100359291745,0
1795,0.009939349684465228,0
1796,0.029483625258613387,0
1797,0.17041547581720287,0
1798,-0.016028989959346304,0
1799,0.04754905081138368,0
1800,0.4997798291554898,0
1801,5.138292531045396,0
1802,4.279728835743664,0
1803,-2.93557736962293,0
1804,1.7015114556630044,0
1805,-0.7065813231188037,0
1806,0.4307477488347118,0
1807,-0.11908215557267404,0
1808,0.09270764944326998,0
1809,-0.020142252059469297,0
1810,0.043249040678503145,0
1811,0.11228996546878801,0
1812,0.0961602460405647,0
1813,0.05153856432011039,0
1814,0.039146187171451,0
1815,0.07355705302968368,0
1816,0.0545961679357228,0
1817,1.3615905431311417,0
1818,6.671408605965401,0
1819,0.7616748876000831,0
1820,-1.4866559873731016,0
1821,1.0972366782507932,0
1822,-0.4928369985070232,0
1823,0.24132358016475106,0
1824,-0.026806236288696036,0
1825,-0.0072201573365439226,0
1826,0.06318249565079265,0
1827,0.07205969149073925,0
1828,-0.05585937952800929,0
1829,0.015233478157058382,0
1830,-0.0688553022258324,0
1831,0.08622693215707267,0
1832,0.07692385920439651,0
1833,0.14024220679815796,0
1834,2.9386259203165674,0
1835,6.627989689794162,0
1836,-2.311626180441498,0
1837,0.681795689745176,0
1838,-0.05788509635782376,0
1839,-0.05626780310144671,0
1840,-0.12609873229397958,0
1841,-0.006699888690560329,0
1842,-0.026509607336633968,0
1843,-0.045025313262717276,0
1844,-0.0022225713593342095,0
1845,-0.019949423608791525,0
1846,0.05244040647754292,0
1847,-0.00667599668848815,0
1848,-0.028437118666902537,0
1849,0.037997764532937545,0
1850,0.3492728267713594,0
1851,5.102451634302678,0
1852,4.223192224146277,0
1853,-2.845338627207874,0
1854,1.5732989646616875,0
1855,-0.7774028871608498,0
1856,0.35022504384172726,0
1857,-0.040349381887318146,0
1858,-0.0020191632229044285,0
1859,0.06705288187969546,0
1860,0.04138744694961521,0
1861,-0.024176778925973575,0
1862,-0.09449484598548957,0
1863,-0.06276440296384003,0
1864,0.022902464398240212,0
1865,0.05359672976282737,0
1866,0.019206602032069996,0
1867,1.2693999193393397,0
1868,6.719970688046568,0
1869,0.5585715546299602,0
1870,-1.5663714593899924,0
1871,1.0196442424367997,0
1872,-0.5787277584974485,0
1873,0.21326490124180375,0
1874,-0.21423530670090968,0
1875,-0.1440267476537869,0
1876,-0.03232091179696303,0
1877,-0.10084921047214454,0
1878,-0.0560173541876681,0
1879,-0.04808636880641322,0
1880,-0.12295310437416412,0
1881,-0.06247971646838581,0
1882,-0.0044327962129449006,0
1883,-0.017171586379217,0
1884,2.943536581500757,0
1885,6.6172362643674,0
1886,-2.3014684816057462,0
1887,0.5431190692025629,0
1888,-0.1734615476897862,0
1889,0.042739039687174234,0
1890,-0.01645450725382216,0
1891,0.17489458023372856,0
1892,-0.031883175217204164,0
1893,0.12262005197900067,0
1894,-0.0725329057829491,0
1895,0.02359589247866716,0
1896,0.027265522742837264,0
1897,-0.027723472691009783,0
1898,-0.031694346710121356,0
1899,-0.07617087807199982,0
1900,0.3826447279238629,0
1901,5.022494827615311,0
1902,4.265916465750591,0
1903,-2.9734805702192495,0
1904,1.4822038491428815,0
1905,-0.79433034534611,0
1906,0.3013551123818339,0
1907,-0.15372581065768512,0
1908,-0.11234055515332503,0
1909,0.0024823594588728876,0
1910,-0.12686805181393268,0
1911,0.010084811594215967,0
1912,-0.0071296728092888825,0
1913,-0.037366826889970554,0
1914,0.014664391224740878,0
1915,-0.015750014788285634,0
1916,-0.05195621064663594,0
1917,1.2599174873214356,0
1918,6.730600598543852,0
1919,0.6490432077250825,0
1920,-1.4897336882944092,0
1921,0.9646642296631258,0
1922,-0.5684465107617175,0
1923,0.183900685239344,0
1924,-0.20369224384054055,0
1925,-0.008763588233717073,0
1926,-0.04890285633538038,0
1927,-0.02678059895336192,0
1928,-0.15620233005962839,0
1929,-0.14577184090505113,0
1930,-0.1400702443923543,0
1931,0.0026933427632931245,0
1932,-0.09949356617625295,0
1933,-0.07048077932093241,0
1934,2.8955203794839997,0
1935,6.473405744635758,0
1936,-2.474876591449952,0
1937,0.662160785273577,0
1938,-0.3136882230463768,0
1939,-0.11161523388605568,0
1940,0.017661848961207566,0
1941,-0.018037791858570844,0
1942,0.009108344464160437,0
1943,-0.0458516074058926,0
1944,0.07516105491212896,0
1945,-0.028264388491234617,0
1946,0.05520172615564954,0
1947,-0.02901542914836638,0
1948,-0.09414093646258934,0
1949,0.12099455964748254,0
1950,0.3515759903684289,0
1951,5.142572852440272,0
1952,4.138296198024873,0
1953,-2.9695913460077015,0
1954,1.501023914093719,0
1955,-0.8868649709763533,0
1956,0.23604710964770279,0
1957,-0.26243248994341145,0
1958,-0.08894711593981434,0
1959,-0.1298846615383508,0
1960,-0.12879807276186414,0
1961,-0.13050419271249303,0
1962,-0.08943287112899412,0
1963,-0.0922713561713617,0
1964,-0.06591900832298012,0
1965,-0.03694824877090573,0
1966,-0.08717741512409809,0
1967,1.3006292740244767,0
1968,6.714516858440115,0
1969,0.5210276520800691,0
1970,-1.4340757765792067,0
1971,1.0077846764853604,0
1972,-0.6445777792732248,0
1973,0.21096056479392786,0
1974,-0.1002761030805269,0
1975,0.07212177388550652,0
1976,-0.065935266680952,0
1977,-0.0465165988494801,0
1978,-0.03621886355808051,0
1979,-0.09590830667393152,0
1980,-0.07024493367899963,0
1981,-0.12751568966975377,0
1982,-0.01127587792345864,0
1983,0.04179530397198542,0
1984,2.979502434280255,0
1985,6.573537330820967,0
1986,-2.4405281276590496,0
1987,0.6324864251351389,0
1988,0.008312198554639882,0
1989,0.015506497231296842,0
1990,-0.008332291650654501,0
1991,-0.029369697816883287,0
1992,-0.04551588133250209,0
1993,0.04798616631746684,0
1994,-0.024973813661950353,0
1995,-0.0373599647962197,0
1996,-0.09039529513633131,0
1997,-0.03410446231896587,0
1998,0.028945313719228115,0
1999,0.022612189014762224,0
2000,0.38455139156035106,0
2001,5.075490912077402,0
2002,4.215985137460019,0
2003,-2.9054652257798628,0
2004,1.5358381381251773,0
2005,-0.7971439229625534,0
2006,0.316827752579331,0
2007,-0.056358689170396895,0
2008,0.01097771158561862,0
2009,0.01742327053516956,0
2010,0.01480657157958757,0
2011,0.03737736421309362,0
2012,-0.08020914253489672,0
2013,-0.030365476823394556,0
2014,0.03658279792688563,0
2015,-0.0767828649216845,0
2016,0.08176092346640212,0
2017,1.3151611160268517,0
2018,6.718384931833565,0
2019,0.5096383774828445,0
2020,-1.4528700344827314,0
2021,1.0424641424195302,0
2022,-0.48864124730657976,0
2023,0.1719082405549708,0
2024,-0.01112782240393373,0
2025,0.018245149763925425,0
2026,0.011080433535721596,0
2027,0.03537653243839066,0
2028,-0.03513434810444048,0
2029,-0.007204073477288577,0
2030,-0.06403394389958095,0
2031,-0.0553404531484127,0
2032,-0.0006745830139642597,0
2033,0.08104983765242188,0
2034,2.941722637881686,0
2035,6.620314893679363,0
2036,-2.40824391804,0
2037,0.6960861846679844,0
2038,-0.2558300892460167,0
2039,0.0023931929542513157,0
2040,-0.06096243616335842,0
2041,0.03179539235934478,0
2042,-0.09552443144717679,0
2043,0.03706498923985375,0
2044,-0.056291820822136296,0
2045,-0.08035903635677916,0
2046,-0.03744840895368402,0
2047,-0.06390957469429848,0
2048,-0.05452861107638517,0
2049,-0.05475212772390618,0
2050,0.43690188614240877,0
2051,5.18797026877132,0
2052,4.1247887946455775,0
2053,-2.9171589757594436,0
2054,1.5759026578462094,0
2055,-0.7560531308643589,0
2056,0.35629115768856257,0
2057,-0.16767537494827953,0
2058,0.050244025696242006,0
2059,0.08088769791499982,0
2060,-0.052807233680968,0
2061,-0.009756172790486678,0
2062,-0.08649042891325606,0
2063,0.06716256691496711,0
2064,-0.05951771490075824,0
2065,0.01548184701606172,0
2066,-0.06417701996273889,0
2067,1.3416245823122792,0
2068,6.789040886637153,0
2069,0.5775873203219413,0
2070,-1.4211417097673908,0
2071,0.9820623086594678,0
2072,-0.5226448593192622,0
2073,0.25413059994580894,0
2074,-0.012675043238776499,0
2075,0.007183377525283412,0
2076,0.05282342719551828,0
2077,0.047370284810225295,0
2078,0.16417248444758392,0
2079,-0.15987013777702108,0
2080,-0.13818459713113562,0
2081,0.03736624870600701,0
2082,-0.10978656783211777,0
2083,-0.11598954466397192,0
2084,2.9334510709572057,0
2085,6.476440295741786,0
2086,-2.5290370553426156,0
2087,0.6340495991456226,0
2088,-0.23282513381646402,0
2089,-0.07538902297748346,0
2090,-0.17377820362998922,0
2091,-0.04085485496343526,0
2092,-0.038549368982436494,0
2093,-0.1009249246158973,0
2094,-0.0008340258484124466,0
2095,-0.028557729802838088,0
2096,-0.07037803662648545,0
2097,-0.0597222137223178,0
2098,-0.06324732689003024,0
2099,-0.0831976175014354,0
2100,0.44198319985742474,0
2101,5.0809489652182585,0
2102,4.040627674929148,0
2103,-2.9487551472209153,0
2104,1.5384745350451683,0
2105,-0.782837507697195,0
2106,0.29735455891649454,0
2107,-0.19758383177939182,0
2108,0.006072491882829831,0
2109,-0.08410419226705032,0
2110,-0.02771957940580253,0
2111,0.035530417212595686,0
2112,0.02595046472957921,0
2113,0.023692377268993134,0
2114,-0.03153980788395626,0
2115,0.016568005682440438,0
2116,0.02649487372622347,0
2117,1.3329887176994097,0
2118,6.829339223169478,0
2119,0.46831628968227035,0
2120,-1.4791687578938526,0
2121,0.9528305476130245,0
2122,-0.4837660361814358,0
2123,0.17377559712337742,0
2124,-0.12959529026004618,0
2125,-0.006990805181522074,0
2126,0.015438866645763452,0
2127,-0.03434344991559806,0
2128,-0.043968961915530354,0
2129,0.007758397061306609,0
2130,-0.0026939764991299638,0
2131,0.06444979939496363,0
2132,-0.07404801147180048,0
2133,0.11286484575296911,0
2134,3.0541136324517044,0
2135,6.539437088560293,0
2136,-2.4040033336954587,0
2137,0.6721043120022543,0
2138,-0.1207483228806987,0
2139,-0.030617859336060586,0
2140,-0.022669899467558978,0
2141,-0.10793018568022691,0
2142,-0.05838941286439559,0
2143,-0.05623633812178927,0
2144,-0.059632261643786606,0
2145,0.0257700308193409,0
2146,-0.04244212876463701,0
2147,-0.03375942699218017,0
2148,0.042582022291325065,0
2149,0.03080123415187994,0
2150,0.3262590788763401,0
2151,5.1714845954431,0
2152,4.043770398543882,0
2153,-2.873463708685587,0
2154,1.6547032852826222,0
2155,-0.8053058419251795,0
2156,0.25207641305822626,0
2157,-0.11893682315928106,0
2158,0.07378403478602291,0
2159,0.018847139756522732,0
2160,0.03503604643010948,0
2161,-0.0466372643129939,0
2162,0.013390356668549971,0
2163,0.08727931995171333,0
2164,-0.05794577888260343,0
2165,0.05272684923579933,0
2166,0.018923850328680592,0
2167,1.3351594893101073,0
2168,6.796731486800469,0
2169,0.5252813736710726,0
2170,-1.3696895897214425,0
2171,0.9342699219221506,0
2172,-0.5104064850060945,0
2173,0.1550365646240539,0
2174,-0.10250993753591554,0
2175,-0.022962073953309445,0
2176,0.020206107365937608,0
2177,-0.05580392207442553,0
2178,-0.011817486906229841,0
2179,0.03197039690450275,0
2180,-0.013035305108665993,0
2181,0.00974205129326497,0
2182,-0.0034803165264811844,0
2183,-0.009672867339719976,0
2184,3.081155748040574,0
2185,6.631737093902842,0
2186,-2.4387656250699346,0
2187,0.6698445521055298,0
2188,-0.20661494870785885,0
2189,-0.016555681616987207,0
2190,-0.055873579140066174,0
2191,0.10652727208671331,0
2192,-0.07038749559871009,0
2193,0.034054116976068034,0
2194,-0.003834482208411816,0
2195,-0.06519543683270129,0
2196,-0.0817344797185101,0
2197,0.03962252776256712,0
2198,0.04991876136081469,0
2199,0.029690084298861316,0
2200,0.4675202454014328,0
2201,5.170788657659853,0
2202,4.104761068842048,0
2203,-2.8903626301087493,0
2204,1.5241731517883426,0
2205,-0.7187534230415225,0
2206,0.34352168115506826,0
2207,-0.04535585726179757,0
2208,0.019128067435785507,0
2209,0.04738257099543282,0
2210,0.05947490528778723,0
2211,0.01617923353434311,0
2212,0.040629559298162594,0
2213,0.013425033544535723,0
2214,0.003766628363127719,0
2215,-0.033500995211290824,0
2216,-0.02390864091866585,0
2217,1.218855403704099,0
2218,6.809614084184413,0
2219,0.5453222330239968,0
2220,-1.3135818536873374,0
2221,1.0741414390613275,0
2222,-0.43893089209530717,0
2223,0.17002400916639593,0
2224,-0.07841329895438524,0
2225,0.06662919200476022,0
2226,0.049936975814469264,0
2227,0.11814675426911979,0
2228,-0.01499726635430335,0
2229,-0.03094091103541581,0
2230,-0.02888477653442894,0
2231,0.0648363844480539,0
2232,0.005897626267902873,0
2233,-0.02179198013183134,0
2234,3.1288080462250263,0
2235,6.615379021788035,0
2236,-2.4213818507412586,0
2237,0.8030462366576281,0
2238,-0.14411982221134786,0
2239,0.014757900209643869,0
2240,0.018018065689545115,0
2241,0.005979794502670145,0
2242,-0.0853501504687201,0
2243,-0.03391739363003134,0
2244,0.04232570330336757,0
2245,-0.03164139266193569,0
2246,-0.021423338273064356,0
2247,-0.01474457747952923,0
2248,0.09074646188978146,0
2249,0.061510492931149595,0
2250,0.45405740108623904,0
2251,5.199526828411779,0
2252,4.081615891036798,0
2253,-2.866503435954188,0
2254,1.5340854886161541,0
2255,-0.8839120749823035,0
2256,0.41562343429315796,0
2257,-0.04749211440378947,0
2258,0.06707168093286658,0
2259,0.039105083147569455,0
2260,0.05586662999759685,0
2261,0.02285605460102745,0
2262,0.023802832073864078,0
2263,0.09820803506690476,0
2264,0.13889588802215508,0
2265,0.05730962700628908,0
2266,-0.011683290966298242,0
2267,1.4001160662093908,0
2268,6.7818417853388935,0
2269,0.5486461089506723,0
2270,-1.3553656465717099,0
2271,1.022154902265869,0
2272,-0.5252362882334752,0
2273,0.262844172384343,0
2274,-0.1128790040804572,0
2275,0.007657295961494719,0
2276,-0.009947895248028266,0
2277,0.004725237356329423,0
2278,-0.015814767411791483,0
2279,-0.10722253764317323,0
2280,0.05851865431614296,0
2281,0.09465486946555642,0
2282,-0.0655747680170286,0
2283,0.10846527334574295,0
2284,3.116577832521015,0
2285,6.55122929525147,0
2286,-2.404583927502276,0
2287,0.7419698560096939,0
2288,-0.11427894938844879,0
2289,0.12772883268416302,0
2290,-0.023332640685333354,0
2291,0.10929050790573724,0
2292,-0.08805189403932613,0
2293,-0.012419980965556585,0
2294,-0.031677307181494745,0
2295,0.019563451914885996,0
2296,0.015883613351014066,0
2297,0.03634040849113475,0
2298,-0.053663844744045536,0
2299,-0.05136447915981749,0
2300,0.42424625878127664,0
2301,5.268968216781092,0
2302,4.1173846534274015,0
2303,-2.8648525296823832,0
2304,1.640952478103403,0
2305,-0.8498938824482112,0
2306,0.39620501129970587,0
2307,-0.1070300466434484,0
2308,-0.04686921437759854,0
2309,0.04203461651248282,0
2310,0.05132796640447828,0
2311,0.015408512417642186,0
2312,0.025854617438701294,0
2313,0.005635286261228185,0
2314,0.001881452429948461,0
2315,-0.010124530792051578,0
2316,0.08430419391907597,0
2317,1.4072309368035518,0
2318,6.824199516611535,0
2319,0.5023783078168108,0
2320,-1.35219929643985,0
2321,0.9807688905956589,0
2322,-0.5191528888990243,0
2323,0.21777387575626847,0
2324,0.006562287356292877,0
2325,0.058413702679415855,0
2326,0.06984059097090403,0
2327,0.08346462328837671,0
2328,0.033211040705857994,0
2329,0.051381539367854834,0
2330,0.09068244401818411,0
2331,0.00445493727365193,0
2332,0.07369924942119972,0
2333,0.03915632303567068,0
2334,3.1371923563191055,0
2335,6.549868403918922,0
2336,-2.4330086054694395,0
2337,0.8338326963758345,0
2338,-0.09850161154488529,0
2339,0.03899504153167141,0
2340,-0.007197309292794711,0
2341,0.0704049491140889,0
2342,0.10462849402240543,0
2343,0.004635233572383579,0
2344,0.007920767072914843,0
2345,-0.09213965309103311,0
2346,-0.03518857000454171,0
2347,0.0890090180081061,0
2348,0.07429907892807784,0
2349,-0.07399177358265385,0
2350,0.4386543596759794,0
2351,5.276191335246621,0
2352,4.004754818466108,0
2353,-2.8950517806416785,0
2354,1.613535979717817,0
2355,-0.7396342082660351,0
2356,0.4024979736274814,0
2357,-0.11854606633837894,0
2358,0.012707227709442201,0
2359,0.08271330204700234,0
2360,-0.015623898295060293,0
2361,0.10608776102861098,0
2362,0.03089874804338661,0
2363,0.05111051273859127,0
2364,0.06067556342490632,0
2365,0.024700229413222474,0
2366,-0.06676950800183515,0
2367,1.4637173431907722,0
2368,6.8477221615829755,0
2369,0.4204402039790899,0
2370,-1.3568486612414834,0
2371,0.936884690636497,0
2372,-0.468045020174558,0
2373,0.22792539304747703,0
2374,-0.11069854748562291,0
2375,0.0747299586478736,0
2376,-0.049752868325284666,0
2377,0.029728256881530822,0
2378,0.029495141602164276,0
2379,0.056976311425549014,0
2380,-0.05448560422136925,0
2381,0.08506744241309572,0
2382,0.01546799458209399,0
2383,0.11070133704201404,0
2384,3.226666834197113,0
2385,6.596215928692365,0
2386,-2.508531654611275,0
2387,0.8571233983061775,0
2388,-0.26771261504577104,0
2389,0.040886649034555,0
2390,0.004542331469384847,0
2391,0.03362357880618276,0
2392,0.010551714057175246,0
2393,0.08264891768137857,0
2394,0.06991702872821332,0
2395,0.03212437042004612,0
2396,-0.004945893939795849,0
2397,0.01705140559613698,0
2398,-0.060066425205320045,0
2399,0.013846277531622667,0
2400,0.48520399257131136,0
2401,5.209791624033216,0
2402,4.0800221651156,0
2403,-2.80561983622699,0
2404,1.6507543370783837,0
2405,-0.7110387725676146,0
2406,0.3110443175364526,0
2407,-0.22010146393552432,0
2408,0.10486093472680671,0
2409,-0.026951473257010743,0
2410,0.11209092274993139,0
2411,-0.014519977709615238,0
2412,0.08786463617842306,0
2413,-0.014264121259928514,0
2414,-0.041675342396075336,0
2415,-0.014576318579115843,0
2416,0.08824678808679373,0
2417,1.5948498821426957,0
2418,6.875612235358929,0
2419,0.27712991459702535,0
2420,-1.3256626580282502,0
2421,1.0105749133630846,0
2422,-0.4665166200537009,0
2423,0.3052841352452964,0
2424,0.010352896822127422,0
2425,0.013340967327906683,0
2426,0.05764145502646541,0
2427,0.006178444582999258,0
2428,0.12407795694054274,0
2429,0.06240492220760814,0
2430,0.021150401222402027,0
2431,0.11672873358318178,0
2432,0.05762114581295853,0
2433,0.12997658731490486,0
2434,3.146227254927328,0
2435,6.467362399387696,0
2436,-2.512849796088858,0
2437,0.8608298821831866,0
2438,-0.18619139761572265,0
2439,0.0034957519461910405,0
2440,-0.04146799517671274,0
2441,-0.009575727120308207,0
2442,-0.015862157334005672,0
2443,-0.030113545438743,0
2444,-0.019969043486642662,0
2445,0.05553755136963261,0
2446,-0.027152995352578813,0
2447,0.08471150047653409,0
2448,-0.03370502491669743,0
2449,0.11856154203634134,0
2450,0.3996495386302273,0
2451,5.316706843994879,0
2452,4.036189805904787,0
2453,-2.8454188525691952,0
2454,1.7369419607459835,0
2455,-0.7119043813430982,0
2456,0.3959188520580182,0
2457,-0.047636680423226066,0
2458,0.16190383745940523,0
2459,0.010230778231042268,0
2460,-0.001194463497344922,0
2461,-0.028671908736814293,0
2462,-0.0004553316213050246,0
2463,0.012799433895566883,0
2464,0.030665089721650034,0
2465,-0.006600280365609418,0
2466,0.005182958705502463,0
2467,1.3241587205993133,0
2468,6.835483149758396,0
2469,0.3375824697698582,0
2470,-1.1734313333601931,0
2471,0.9283631282257261,0
2472,-0.4043489469882699,0
2473,0.18404300459056827,0
2474,-0.014110755240975097,0
2475,0.07173688015145387,0
2476,0.02970486750634846,0
2477,-0.026241643120921775,0
2478,0.04302343325701787,0
2479,-0.033370809490585025,0
2480,-0.03216325016908,0
2481,0.000330917348000776,0
2482,0.08991522160080338,0
2483,0.08793740282250383,0
2484,3.1042587854194506,0
2485,6.4730483758596,0
2486,-2.5011328666922807,0
2487,0.8204306219097186,0
2488,-0.16993719894949114,0
2489,0.08599099059150404,0
2490,-0.015604478342688452,0
2491,-0.029531127173225355,0
2492,-0.05308070679282206,0
2493,-0.07069356403994481,0
2494,-0.03580565065272483,0
2495,-0.1173836024226971,0
2496,-0.06314484461236623,0
2497,0.047949280208911205,0
2498,0.03447960495183029,0
2499,-0.03682317721197244,0
2500,0.41938219924049797,0
2501,5.310748940587221,0
2502,3.9999982997946777,0
2503,-2.928747921927943,0
2504,1.6044425778476508,0
2505,-0.7615824746423654,0
2506,0.35407678021851346,0
2507,-0.06587855692785786,0
2508,0.05852765186564181,0
2509,-0.09885224454395856,0
2510,0.005246084726537543,0
2511,-0.011168782653141363,0
2512,-0.005606977305113751,0
2513,0.013089253352567564,0
2514,-0.06084043904786623,0
2515,-0.04473702792494167,0
2516,0.029225362561342103,0
2517,1.3412804788845083,0
2518,6.811594328518952,0
2519,0.37789841665426427,0
2520,-1.3392988012075233,0
2521,0.9559288668136658,0
2522,-0.47488383665103984,0
2523,0.2521818213956564,0
2524,-0.02481227244154339,0
2525,-0.024716346411475264,0
2526,-0.049201397864347025,0
2527,-0.10790767532952997,0
2528,-0.05048571296804723,0
2529,0.026853547303436427,0
2530,-0.010204882734077977,0
2531,0.0067138641186414326,0
2532,-0.011147945559420124,0
2533,0.1782712240628857,0
2534,3.249612940671473,0
2535,6.4404181864885,0
2536,-2.5477195343787775,0
2537,0.8002432106021161,0
2538,-0.19461251124266643,0
2539,0.02600598538615459,0
2540,-0.08762752437412322,0
2541,0.10895392596168076,0
2542,0.049431996682656396,0
2543,-0.008741165133185486,0
2544,-0.11568902240939744,0
2545,-0.08074432042392973,0
2546,-0.052116556905211275,0
2547,-0.08009650103509564,0
2548,0.035273603585807056,0
2549,0.05400833643838063,0
2550,0.3916083245501555,0
2551,5.2387030669156776,0
2552,3.8396780848067347,0
2553,-2.916127389454223,0
2554,1.5657908038606463,0
2555,-0.7832197302180631,0
2556,0.28777182502956994,0
2557,-0.1410089116255619,0
2558,0.06286408155272688,0
2559,-0.004420646926537869,0
2560,-0.0134016061231803,0
2561,0.027826457393517575,0
2562,-0.02832388936972398,0
2563,-0.015378681360315616,0
2564,0.06514394449008586,0
2565,-0.030937085862821994,0
2566,-0.07621401938896921,0
2567,1.4339782340714438,0
2568,6.865027661591608,0
2569,0.2792648835335384,0
2570,-1.354214640381226,0
2571,0.8784062650292999,0
2572,-0.47406367042169095,0
2573,0.11060573513321056,0
2574,-0.08617197075391829,0
2575,-0.11266209215383628,0
2576,0.05787102046344967,0
2577,0.04061739491861935,0
2578,0.0214644219566605,0
2579,-0.022808360064700765,0
2580,0.0057594472289587305,0
2581,0.012766381564149464,0
2582,0.0950171762673925,0
2583,0.13631440671716366,0
2584,3.157898758553938,0
2585,6.47253816535641,0
2586,-2.6774792342116314,0
2587,0.8103350222210224,0
2588,-0.27320133921095224,0
2589,0.043380717318882205,0
2590,-0.0007883857219764118,0
2591,-0.04347046624441696,0
2592,-0.07233655363282275,0
2593,-0.029364143370313265,0
2594,-0.019732163611376294,0
2595,-0.009114426506644104,0
2596,-0.036417736729843074,0
2597,0.05547793091063011,0
2598,-0.09203805143879258,0
2599,-0.08133076591476965,0
2600,0.43217453410785167,0
2601,5.32667640838486,0
2602,3.8658537885093343,0
2603,-2.8811363472040927,0
2604,1.5973512905818132,0
2605,-0.8933304334107088,0
2606,0.3745562458923604,0
2607,-0.2025896198182764,0
2608,-0.007490614869772955,0
2609,-0.05693214662087312,0
2610,-0.0441112871911105,0
2611,0.05124447937160545,0
2612,0.013568651411483494,0
2613,0.023764666861969253,0
2614,-0.02386161320840644,0
2615,0.024707720636809278,0
2616,-0.023842096208680705,0
2617,1.3263640173693418,0
2618,6.801863570530404,0
2619,0.23629561169021668,0
2620,-1.303935375352267,0
2621,0.9243779491028328,0
2622,-0.5390472622892386,0
2623,0.11732643651561328,0
2624,-0.0800338412057064,0
2625,-0.0488781438996997,0
2626,-0.06661156098207907,0
2627,0.0090936902894516,0
2628,0.02996418545750456,0
2629,-0.057547968839778724,0
2630,-0.054069560496262804,0
2631,-0.04431424256394051,0
2632,-0.04069512240704299,0
2633,0.0240241027380177,0
2634,3.0273635238390684,0
2635,6.397382908740947,0
2636,-2.6013226431403713,0
2637,0.947423438665141,0
2638,-0.24495971239734252,0
2639,0.04134452938017906,0
2640,-0.09260143991435946,0
2641,0.0619256111228585,0
2642,-0.05682972110217706,0
2643,-0.005232158405152966,0
2644,-0.1422480483647372,0
2645,-0.06020929522278216,0
2646,-0.16292204954629594,0
2647,-0.05841808289950521,0
2648,-0.05762434647285425,0
2649,-0.08257345550746478,0
2650,0.36159663523945684,0
2651,5.16189521615787,0
2652,3.829925829350633,0
2653,-2.9975898364361373,0
2654,1.598431268009484,0
2655,-0.8706750374997119,0
2656,0.3456750088385507,0
2657,-0.22705699994022566,0
2658,-0.08427781130923295,0
2659,-0.06728908038712833,0
2660,0.03475097274051708,0
2661,0.044350337218677253,0
2662,0.0018063803526293248,0
2663,0.02216051122214336,0
2664,-0.1029753930467281,0
2665,0.004141639964214738,0
2666,0.019477751869509757,0
2667,1.344584692244512,0
2668,6.8076654728773125,0
2669,0.18103702149881587,0
2670,-1.291441935528731,0
2671,0.9146598448605117,0
2672,-0.6267806844170827,0
2673,0.17422822003521496,0
2674,-0.09070759315315649,0
2675,-0.0037501244809900573,0
2676,-0.17552963000568106,0
2677,-0.10590819427445092,0
2678,-0.11123495383220167,0
2679,-0.09055651501127979,0
2680,0.03089299912285319,0
2681,-0.017567800424079877,0
2682,-0.017920104356442246,0
2683,0.0019163963340949192,0
2684,3.2388011905251473,0
2685,6.523009747008146,0
2686,-2.456426642419361,0
2687,0.8765227357144076,0
2688,-0.22225329020588283,0
2689,0.10506387453956914,0
2690,-0.05193543956049603,0
2691,-0.012494322474509108,0
2692,0.08747445528476565,0
2693,0.09876961978006353,0
2694,0.030332127376013804,0
2695,-0.003821368470159521,0
2696,-0.0056506992260128425,0
2697,0.08861967891608769,0
2698,-0.03487215930075086,0
2699,0.00849871619898214,0
2700,0.3965211965118102,0
2701,5.285728584472823,0
2702,3.8472661706462077,0
2703,-2.723371860085029,0
2704,1.5522518020264713,0
2705,-0.7969192970927769,0
2706,0.3776608511458359,0
2707,-0.023454109683619842,0
2708,0.018195568539093016,0
2709,0.014622758060897481,0
2710,0.0189973404583341,0
2711,-0.03438473672282004,0
2712,-0.03922891147958155,0
2713,0.03684144157315282,0
2714,0.058463053092872,0
2715,0.04415895177652791,0
2716,0.11948676816402985,0
2717,1.5321673087672787,0
2718,6.870786234521977,0
2719,0.22476672457781208,0
2720,-1.2494479853128448,0
2721,0.9029427585684862,0
2722,-0.38654855977927116,0
2723,0.2457373858337343,0
2724,-0.03883937725330239,0
2725,-0.06879085588492623,0
2726,0.019378809826141576,0
2727,0.03389945919061341,0
2728,0.04524577216403179,0
2729,0.06323285997499897,0
2730,0.047410693716295665,0
2731,-0.03367773925635176,0
2732,-0.013560172470700082,0
2733,-0.007647678164986474,0
2734,3.2644626623636714,0
2735,6.468457775920376,0
2736,-2.4729664356684404,0
2737,0.8620085628376517,0
2738,-0.22587666044048377,0
2739,0.04817488764881507,0
2740,-0.014493934616455394,0
2741,-0.031939419256703884,0
2742,-0.04665628885878571,0
2743,0.047358070576935765,0
2744,-0.03871861494105385,0
2745,-0.029180197898000342,0
2746,-0.05666314103261599,0
2747,0.023717915159733687,0
2748,0.05174692937711097,0
2749,-0.06426240790987485,0
2750,0.4958890933732882,0
2751,5.2829994860706675,0
2752,3.927817851776705,0
2753,-2.822455766446569,0
2754,1.5805468568016816,0
2755,-0.776280852677646,0
2756,0.3411539136550937,0
2757,-0.11351777539493024,0
2758,-0.012211201202439306,0
2759,-0.010371166351106843,0
2760,-0.08160327249393425,0
2761,-0.02832543592099459,0
2762,-0.08149221559480227,0
2763,0.03450845508347294,0
2764,0.01821547701644096,0
2765,-0.04604897772140512,0
2766,0.020804471964835355,0
2767,1.3817086443929214,0
2768,6.844652977882826,0
2769,0.18177360745383528,0
2770,-1.2118377877318167,0
2771,0.8446832500398176,0
2772,-0.4437690589988397,0
2773,0.19363231531336897,0
2774,-0.07724736532026442,0
2775,0.06749897902257292,0
2776,0.02171033441005936,0
2777,3.953041362401858e-05,0
2778,0.02208746866444442,0
2779,0.023988855807098308,0
2780,-0.019500196845125238,0
2781,-0.01883359622192058,0
2782,-0.01579932629528995,0
2783,0.021295570527692133,0
2784,3.2195383900559533,0
2785,6.4404059733756,0
2786,-2.5484534095832143,0
2787,0.9316705055138134,0
2788,-0.22640200987585687,0
2789,0.11478794413356133,0
2790,-0.09498413536273506,0
2791,-0.004172539037789271,0
2792,-0.01411142905100052,0
2793,0.03106121340555261,0
2794,0.023195871835967226,0
2795,-0.08686695613214226,0
2796,-0.08022243853740835,0
2797,-0.07047807470508304,0
2798,0.007118687069394614,0
2799,0.0484235268484019,0
2800,0.44430136817117954,0
2801,5.304761898509371,0
2802,3.788531073316998,0
2803,-2.833250208526976,0
2804,1.616167585375274,0
2805,-0.7811890390932239,0
2806,0.2206851510453255,0
2807,-0.14710622516136831,0
2808,-0.10566316061858605,0
2809,-0.04537984250951911,0
2810,0.025375044557073654,0
2811,-0.021482218637281225,0
2812,0.016972534079905625,0
2813,-0.0002322119194298096,0
2814,0.013541151605483328,0
2815,0.07198552795141946,0
2816,-0.06339428360856482,0
2817,1.4507092019953653,0
2818,6.77352984997427,0
2819,0.1769850412288486,0
2820,-1.3000780580791653,0
2821,0.8507468864324581,0
2822,-0.4951099459226812,0
2823,0.192282150510697,0
2824,-0.06583613392048737,0
2825,0.06549929486199567,0
2826,0.00764241545510321,0
2827,-0.004800228888724545,0
2828,-0.0064761587486376684,0
2829,-0.04312744453366918,0
2830,-0.00019670152976150428,0
2831,-0.06873727168163385,0
2832,-0.00226821884746279,0
2833,0.04861111280244464,0
2834,3.1291531614897146,0
2835,6.452324713438724,0
2836,-2.5488619606857905,0
2837,0.8899108502029304,0
2838,-0.2754996213842335,0
2839,-0.03794186357840196,0
2840,-0.044478331934432465,0
2841,0.10607301348834727,0
2842,-0.015711200512002317,0
2843,-0.006115085322107569,0
2844,-0.09264360140127062,0
2845,-0.025479953102928048,0
2846,-0.10727028217672337,0
2847,-0.02069254027461513,0
2848,0.10705794165935112,0
2849,-0.09213796101225857,0
2850,0.3748425358533551,0
2851,5.348547494910645,0
2852,3.8150409807566046,0
2853,-2.8424473631507183,0
2854,1.5471274935893105,0
2855,-0.9577772752167302,0
2856,0.33037069529019836,0
2857,-0.2049718899808822,0
2858,0.03509826705997798,0
2859,-0.06331972371427719,0
2860,-0.07816107486480753,0
2861,-0.13566072130328202,0
2862,-0.04793108355484167,0
2863,-0.013984536672150244,0
2864,0.009888811213746025,0
2865,-0.03318701703237912,0
2866,-0.08162336289444622,0
2867,1.431655709446488,0
2868,6.719477950383519,0
2869,0.17329247852694124,0
2870,-1.1993695765950376,0
2871,0.8045394452121812,0
2872,-0.40221330866869187,0
2873,0.14288738639803203,0
2874,-0.09969762140963255,0
2875,-0.02935375408788876,0
2876,-0.06374528458580295,0
2877,-0.061075698121986044,0
2878,-0.02807730750189153,0
2879,-0.052194443606798493,0
2880,-0.04989806536910492,0
2881,-0.02325633380309307,0
2882,0.025545698474047196,0
2883,0.03527937823992773,0
2884,3.2411206666649903,0
2885,6.49077084204802,0
2886,-2.6752307416219057,0
2887,0.8773513263250843,0
2888,-0.23211327343169091,0
2889,0.07764406087365006,0
2890,-0.08874963962538426,0
2891,-0.023146870057691178,0
2892,0.014069020435565863,0
2893,-0.04277446411981846,0
2894,-0.018712007123636923,0
2895,-0.02511726624284155,0
2896,-0.025843169621805787,0
2897,-0.12543009418722534,0
2898,-0.15019438360921405,0
2899,-0.09777424413155011,0
2900,0.3872525466758108,0
2901,5.340331690499434,0
2902,3.642365010498016,0
2903,-2.92938078918924,0
2904,1.4675172208144143,0
2905,-0.8580158137925498,0
2906,0.1638300348222564,0
2907,-0.04780552842013547,0
2908,-0.05429447605204979,0
2909,-0.03311272680890101,0
2910,-0.04605238549723188,0
2911,-0.11658353766748913,0
2912,-0.13080175443740247,0
2913,-0.07346708534384039,0
2914,0.019647220674614378,0
2915,-0.0202070178385576,0
2916,-0.01939635672224199,0
2917,1.4098881897920161,0
2918,6.757004604563895,0
2919,0.10598821999970111,0
2920,-1.2144702306308623,0
2921,0.8488772883667421,0
2922,-0.553949290870991,0
2923,0.06089034937948461,0
2924,-0.1386485247964093,0
2925,-0.06811784696225277,0
2926,-0.03777972457162668,0
2927,-0.07113293010814228,0
2928,-0.14399073461421613,0
2929,-0.0733048412053238,0
2930,-0.057764764120817734,0
2931,-0.12341148676396756,0
2932,-0.16840855677724548,0
2933,-0.0003839206389677184,0
2934,3.209726926787778,0
2935,6.298849618230809,0
2936,-2.6783696910493013,0
2937,0.8554078833259179,0
2938,-0.3272608981897629,0
2939,-0.015819902686409155,0
2940,-0.11487929143774742,0
2941,-0.07023188102058066,0
2942,-0.04861675125304698,0
2943,-0.11854988882155162,0
2944,0.04802568929192324,0
2945,0.05025442266967012,0
2946,-0.01063316048485673,0
2947,-0.0780341849525822,0
2948,-0.06254655518508126,0
2949,-0.04429781887743006,0
2950,0.40823242198421383,0
2951,5.389759817772418,0
2952,3.6431662449000473,0
2953,-2.9205919531878917,0
2954,1.5106968768209448,0
2955,-0.8856137929587665,0
2956,0.38297342955597985,0
2957,-0.19529793910038748,0
2958,-0.04429448835892236,0
2959,-0.13493051128979403,0
2960,-0.0173114534189847,0
2961,-0.1217437794993402,0
2962,-0.10230757389859682,0
2963,-0.16996799619879865,0
2964,-0.09744872982395682,0
2965,-0.0496019074054915,0
2966,-0.06294195277202326,0
2967,1.508497364616421,0
2968,6.769758867042747,0
2969,0.0725443608775558,0
2970,-1.3014341913507792,0
2971,0.8727851793415914,0
2972,-0.46073085720661827,0
2973,0.14515748873847828,0
2974,-0.0957509902465564,0
2975,0.016154407534536612,0
2976,0.03191819911199438,0
2977,-0.00032705238597190156,0
2978,0.007426196238136611,0
2979,-0.10049628502262659,0
2980,-0.09440323409673476,0
2981,-0.05975421615474479,0
2982,-0.01859068846906106,0
2983,0.1683919282250389,0
2984,3.266335757651454,0
2985,6.340441371883101,0
2986,-2.5476465103726404,0
2987,0.8958077197372779,0
2988,-0.314939441752791,0
2989,-0.0067927306712280075,0
2990,-0.07273312830543281,0
2991,0.03950811853790183,0
2992,-0.047769938230218786,0
2993,-0.03240687695910873,0
2994,0.08602996271113748,0
2995,-0.0005951378544684638,0
2996,-0.07833609937973685,0
2997,-0.15806536802076124,0
2998,-0.009696644001287447,0
2999,-0.0013729316618903281,0
3000,0.4212206138572953,0
3001,5.406495134120058,0
3002,3.858596668164888,0
3003,-2.81453702490381,0
3004,1.58067683527127,0
3005,-0.7804330262803723,0
3006,0.3732910368956622,0
3007,-0.09769196568732133,0
3008,0.03924289089654027,0
3009,0.05202625207854033,0
3010,0.08301822729042244,0
3011,0.032506303852722546,0
3012,0.050018254078727786,0
3013,0.04019424752772331,0
3014,0.03606173004786015,0
3015,0.05188743670629287,0
3016,0.07211478653038875,0
3017,1.57862693504736,0
3018,6.862190111128772,0
3019,0.08482408648733367,0
3020,-1.1244606059838298,0
3021,0.8415088324162014,0
3022,-0.4026136539468418,0
3023,0.23535506679812085,0
3024,-0.1308800322923998,0
3025,-0.04189568834679131,0
3026,0.06300756570382975,0
3027,0.01634697102832757,0
3028,0.007928445953099455,0
3029,-0.03233686920227932,0
3030,0.02477946494337572,0
3031,-0.0705145757740539,0
3032,-0.08919366041798968,0
3033,0.07994218459724274,0
3034,3.264939489639263,0
3035,6.411438142224135,0
3036,-2.6786810148008056,0
3037,0.943394531437989,0
3038,-0.27644226969398844,0
3039,0.10471342448695953,0
3040,-0.06680737953553408,0
3041,0.040982531905677556,0
3042,-0.03815735406647006,0
3043,0.04962024365340543,0
3044,-0.009211572087477415,0
3045,-0.07271802562262386,0
3046,0.0454160578536896,0
3047,-0.06309794521710949,0
3048,-0.09346688761620252,0
3049,0.009778828877371012,0
3050,0.5562585356398511,0
3051,5.4407048813665195,0
3052,3.7553725474345803,0
3053,-2.8408796251314534,0
3054,1.521022881157728,0
3055,-0.7386473517520341,0
3056,0.2834598625502468,0
3057,-0.02179559305968519,0
3058,0.08849401775781959,0
3059,0.022324668662736007,0
3060,-0.027918751356935938,0
3061,-0.06968216678953847,0
3062,0.009048943213757798,0
3063,0.077138485269876,0
3064,0.03304766514668309,0
3065,-0.02171719266582201,0
3066,0.09498849175130321,0
3067,1.4886491078074817,0
3068,6.840100405435863,0
3069,0.08726042316934787,0
3070,-1.1785051198831211,0
3071,0.8274465406414375,0
3072,-0.44784241083954235,0
3073,0.14125523697704934,0
3074,-0.12504541633885802,0
3075,0.0568762851506818,0
3076,-0.014021779451792449,0
3077,-0.00466918819662774,0
3078,0.007652780424490482,0
3079,-0.1179651053633122,0
3080,-0.06386978898411295,0
3081,0.025898461685232174,0
3082,0.02764010943194274,0
3083,0.05313977849852864,0
3084,3.1862398266469056,0
3085,6.258158689296022,0
3086,-2.601258576153438,0
3087,0.8899331631984161,0
3088,-0.25689010586847083,0
3089,0.1389569355432487,0
3090,-0.02042807886926102,0
3091,0.08434508247916943,0
3092,-0.005660280228434317,0
3093,-0.019431178744910866,0
3094,-0.015132746157668745,0
3095,-0.005422731862843696,0
3096,0.06282954694483185,0
3097,-0.001015638357683158,0
3098,0.02885332224029491,0
3099,0.006007205319258864,0
3100,0.5247747844090459,0
3101,5.486354756509328,0
3102,3.6901477183535087,0
3103,-2.80937096788601,0
3104,1.6339638315945038,0
3105,-0.6749054040606199,0
3106,0.2803472814582986,0
3107,-0.16365022225256953,0
3108,-0.008456306442297055,0
3109,-0.147170949441784,0
3110,-0.006733694824520287,0
3111,-0.008961957428738482,0
3112,-0.04815627985967249,0
3113,0.027355942082161973,0
3114,-0.08475815233143881,0
3115,-0.10437415486565405,0
3116,0.01687308488478726,0
3117,1.4741261599390625,0
3118,6.801146626575538,0
3119,-0.0105552875418537,0
3120,-1.120593564025436,0
3121,0.7812514030902398,0
3122,-0.4726067121997313,0
3123,0.09909212123977165,0
3124,-0.16111408950710326,0
3125,-0.0962138276773906,0
3126,-0.043903648516430464,0
3127,-0.10099160044503303,0
3128,-0.026389183695789874,0
3129,-0.07448044065044146,0
3130,-0.06464609298035628,0
3131,0.038790909550674844,0
3132,-0.1859665443840359,0
3133,0.09684514423115925,0
3134,3.3337416058149247,0
3135,6.286981137404742,0
3136,-2.648271878093445,0
3137,0.8698790338312034,0
3138,-0.3398884211565842,0
3139,0.058572166684443705,0
3140,-0.06254647265933681,0
3141,0.009537718329905777,0
3142,-0.11406642950184478,0
3143,-0.043679835741637064,0
3144,-0.10760387373404222,0
3145,-0.1162732766307406,0
3146,-0.0876775546603276,0
3147,-0.07020451777370006,0
3148,0.008586588171546866,0
3149,0.028894420025399326,0
3150,0.4335023396839579,0
3151,5.471177708487941,0
3152,3.570322204396319,0
3153,-2.90993823793906,0
3154,1.5172455164798302,0
3155,-0.8806183250717248,0
3156,0.2915484638431546,0
3157,-0.1481188479525209,0
3158,-0.04211217928632008,0
3159,-0.06415776087609265,0
3160,0.03102320166815717,0
3161,-0.010210125057178956,0
3162,-0.04402642753068622,0
3163,-0.03028309080293967,0
3164,-0.1402164267702608,0
3165,-0.045589320379166014,0
3166,-0.05348616646081257,0
3167,1.5485407797683663,0
3168,6.863410249684429,0
3169,0.01324130931394579,0
3170,-1.0715645743279376,0
3171,0.8851466894602995,0
3172,-0.508461386517257,0
3173,0.18008303205809326,0
3174,-0.10023264942379767,0
3175,-0.06019902071228235,0
3176,-0.12033590949189968,0
3177,-0.028518874674259703,0
3178,-0.08904307197195414,0
3179,-0.12475817607590438,0
3180,-0.0883696361685925,0
3181,-0.14354430589242215,0
3182,-0.0696907349512084,0
3183,-0.12426526868827369,0
3184,3.2586335123303725,0
3185,6.318112095943589,0
3186,-2.7734936191705644,0
3187,0.9087383095954303,0
3188,-0.4312569640102117,0
3189,-0.035886707851028696,0
3190,-0.066130416671305,0
3191,0.07661446903998409,0
3192,-0.0414783595375931,0
3193,0.024144317607210766,0
3194,0.053651532357658155,0
3195,-0.04574504097665781,0
3196,-0.1245956890346443,0
3197,-0.016306445270317445,0
3198,-0.03888391713897846,0
3199,-0.03831701253975908,0
3200,0.3500138021952573,0
3201,5.4303450771118325,0
3202,3.613901897983128,0
3203,-2.88768139803532,0
3204,1.5177849055500425,0
3205,-0.706393423305146,0
3206,0.3330550452640788,0
3207,-0.13888615512559446,0
3208,0.053300730881367414,0
3209,-0.07988683541796744,0
3210,0.016699843382572,0
3211,0.0013080239233781415,0
3212,-0.043463615875256476,0
3213,0.04113822698178786,0
3214,0.021886995171722844,0
3215,0.07688160373736111,0
3216,-0.005267471688587856,0
3217,1.5910471859160122,0
3218,6.924952280177254,0
3219,0.03576853909065639,0
3220,-1.1237350513783981,0
3221,0.8896614182727464,0
3222,-0.4881728682906629,0
3223,0.0846469416046749,0
3224,-0.12569508386749145,0
3225,-0.068148692427419,0
3226,-0.141377195960736,0
3227,-0.01290056049382629,0
3228,-0.09794337722192539,0
3229,-0.006438006236313076,0
3230,-0.05494110355791004,0
3231,-0.021942449726082752,0
3232,-0.010585294379651916,0
3233,0.10384565932787741,0
3234,3.26891899397717,0
3235,6.357576508694498,0
3236,-2.6851406095800154,0
3237,0.9843227818578164,0
3238,-0.3291253198771799,0
3239,0.16249803156305428,0
3240,-0.00301709168723217,0
3241,0.07355916544213749,0
3242,0.020045387857842885,0
3243,0.011744445600861297,0
3244,0.10711799386253881,0
3245,0.027174035996386316,0
3246,0.02284447803222977,0
3247,0.10185825017837269,0
3248,0.10680394081524677,0
3249,0.06470283875544423,0
3250,0.46428694956559513,0
3251,5.542839004312672,0
3252,3.5954133693018617,0
3253,-2.7731769185228297,0
3254,1.5505885859862658,0
3255,-0.8370705695835404,0
3256,0.33156020145845916,0
3257,-0.15092656425840276,0
3258,-0.039796475060369006,0
3259,-0.03216398167832223,0
3260,0.0007435368832369588,0
3261,-0.005567793196516985,0
3262,-0.019774933979936276,0
3263,-0.05278354005148741,0
3264,-0.033364003456315024,0
3265,0.017393440186533538,0
3266,0.010508271518064712,0
3267,1.5558086613961246,0
3268,6.926737058443309,0
3269,-0.04776037167810916,0
3270,-1.0188566783166677,0
3271,0.8197667509323794,0
3272,-0.39783844199633445,0
3273,0.1998198555898574,0
3274,-0.004729855432169635,0
3275,-0.033051479016173446,0
3276,0.036208985161754116,0
3277,0.08723736266143306,0
3278,0.10331266087513793,0
3279,0.147318033522677,0
3280,0.02393153605059274,0
3281,0.09003597397370522,0
3282,0.035249093737173665,0
3283,0.02363941232980371,0
3284,3.4768479059087953,0
3285,6.347627101249543,0
3286,-2.70324175458444,0
3287,0.9717582598895511,0
3288,-0.2891498804119043,0
3289,0.1581285616399915,0
3290,-0.025070839202300382,0
3291,0.07604463412946982,0
3292,0.031431714319262775,0
3293,0.045401979441744636,0
3294,-0.06690355357854344,0
3295,0.0004237534559293904,0
3296,0.018667200753661715,0
3297,0.04774676824244053,0
3298,-0.08757171585942942,0
3299,0.01476621259190269,0
3300,0.598615044764934,0
3301,5.423837242622624,0
3302,3.6220909812451927,0
3303,-2.8410791024616873,0
3304,1.5695191036879184,0
3305,-0.9307759271783158,0
3306,0.3912074790939647,0
3307,-0.13182683743078996,0
3308,0.11940964111761118,0
3309,-0.044444200515360285,0
3310,0.05049230708516439,0
3311,-0.08266489215706223,0
3312,0.035356883397206995,0
3313,0.02752134290227952,0
3314,0.027260980923016778,0
3315,0.016345249456104174,0
3316,0.030821082308976025,0
3317,1.4648858684589872,0
3318,6.888530484459502,0
3319,-0.09172794158163466,0
3320,-1.0307053165076552,0
3321,0.8683761933862759,0
3322,-0.40965306700450904,0
3323,0.22555826361361725,0
3324,-0.025205823458591785,0
3325,0.1626215218775303,0
3326,-0.013522750245638912,0
3327,0.007508939536454684,0
3328,0.01462823747711996,0
3329,0.0408224987449675,0
3330,0.022516492202419656,0
3331,0.027462013982918993,0
3332,0.06304344675300251,0
3333,0.09319973308109473,0
3334,3.408398056672098,0
3335,6.3037084743304925,0
3336,-2.6731722104728886,0
3337,1.0947576267626455,0
3338,-0.2713569045548823,0
3339,0.20404497861348653,0
3340,-0.015091495626876728,0
3341,0.08516908308949543,0
3342,0.024036460531577368,0
3343,0.01023441781996786,0
3344,0.010253406597622187,0
3345,0.06628592684548848,0
3346,0.013307232868723179,0
3347,0.03769309471549134,0
3348,0.02483947481985022,0
3349,0.08812868764789283,0
3350,0.5471677041605347,0
3351,5.532207963980761,0
3352,3.5868920460844986,0
3353,-2.8076617372942843,0
3354,1.5505268444997145,0
3355,-0.8047250947959688,0
3356,0.452629177926515,0
3357,-0.09213104940638585,0
3358,-0.02104944633663844,0
3359,-0.0008499180785475589,0
3360,-0.008864137759135176,0
3361,0.04114688180008962,0
3362,0.032196998770533294,0
3363,0.06734712610579915,0
3364,0.06150834409697472,0
3365,-0.010629403729576974,0
3366,0.010802612100486018,0
3367,1.6875079710555196,0
3368,6.985162742353227,0
3369,-0.03931133709542526,0
3370,-1.0178277463389198,0
3371,0.9239841236381293,0
3372,-0.40342273988368615,0
3373,0.13808752895808812,0
3374,-0.07413034046996671,0
3375,0.05017237177658589,0
3376,0.015830514109850025,0
3377,-0.02690373703160534,0
3378,0.015640031235963216,0
3379,0.045261829669359856,0
3380,-0.036862420733587024,0
3381,-0.042889632222354104,0
3382,0.01847150163110418,0
3383,0.13909989416995078,0
3384,3.3501960375434936,0
3385,6.242001609511202,0
3386,-2.6685954773403457,0
3387,0.9520215986894958,0
3388,-0.2737513597950132,0
3389,0.20850220945325723,0
3390,-0.11077917828672183,0
3391,0.04364071931949845,0
3392,0.06527849769879483,0
3393,0.04815940360766148,0
3394,0.036707539661562906,0
3395,0.056070823524913035,0
3396,0.0585823103604714,0
3397,0.07849292535014007,0
3398,0.03602090040601075,0
3399,0.01285674081391184,0
3400,0.509550555068631,0
3401,5.532700352950751,0
3402,3.662450149109628,0
3403,-2.7574935485854732,0
3404,1.6283132551098918,0
3405,-0.7435327823859164,0
3406,0.34306957341687716,0
3407,-0.05832187709202517,0
3408,0.1694181797614096,0
3409,0.09853848442303971,0
3410,0.07082771042071767,0
3411,0.00357473700788017,0
3412,0.112827442720457,0
3413,0.04567518588499196,0
3414,0.0682945735667377,0
3415,0.029772209621579913,0
3416,0.06493919779153406,0
3417,1.6157154395808437,0
3418,6.9367834475902646,0
3419,-0.030470936037039112,0
3420,-0.9379617647255925,0
3421,0.9001689172080756,0
3422,-0.3935802946703496,0
3423,0.20212077878209672,0
3424,-0.023220511537865494,0
3425,0.15119409523091754,0
3426,0.07545426042471852,0
3427,0.08410819675539792,0
3428,-0.03987616464776912,0
3429,0.08801969068948493,0
3430,0.071207576713877,0
3431,0.003978809971376819,0
3432,0.12024615772779994,0
3433,0.1917881851479462,0
3434,3.463122128109825,0
3435,6.395311682709238,0
3436,-2.6802032939054823,0
3437,1.0620057943575765,0
3438,-0.3029721698782262,0
3439,0.10687197500462033,0
3440,0.011418685363772859,0
3441,-0.01146229829632299,0
3442,0.05450972394118056,0
3443,0.14426079084882149,0
3444,0.0609673607358567,0
3445,0.012778678335610874,0
3446,0.021176987191151693,0
3447,0.03787120090429652,0
3448,0.11898570929746206,0
3449,-0.07002513738049204,0
3450,0.47434807631390385,0
3451,5.464059515475639,0
3452,3.617887274193005,0
3453,-2.677513247189631,0
3454,1.6179008782659485,0
3455,-0.7276336579067514,0
3456,0.33885905077120937,0
3457,-0.055794905070406325,0
3458,0.13726318245024316,0
3459,0.060938275335435124,0
3460,0.05587981691906722,0
3461,-0.08136195165859406,0
3462,0.08978145864846111,0
3463,0.04204489526199223,0
3464,0.10198753427350868,0
3465,0.04948003430375614,0
3466,0.045100126381997674,0
3467,1.5274666853513696,0
3468,6.8827055071565,0
3469,-0.16164104915011013,0
3470,-1.105253762797009,0
3471,0.8122040581422519,0
3472,-0.40385444451118996,0
3473,0.23527860304786313,0
3474,-0.06073346388196691,0
3475,-0.002030680778495216,0
3476,0.05228197210867028,0
3477,0.02770828519232583,0
3478,-0.01668895470242291,0
3479,-0.12613152628722146,0
3480,0.07435643713072605,0
3481,-0.0420720125719659,0
3482,0.03183585440577656,0
3483,0.07689650351845603,0
3484,3.455633292280205,0
3485,6.3831319908780255,0
3486,-2.6612442386375554,0
3487,1.0201303491149099,0
3488,-0.27920100368266393,0
3489,0.1444132903435622,0
3490,0.05975093315139605,0
3491,0.006814862611441749,0
3492,0.06545800622118692,0
3493,0.0661842124960921,0
3494,0.14007455610035924,0
3495,0.014488307357567926,0
3496,-0.006377609089899879,0
3497,0.07596736692131345,0
3498,0.04617327397704742,0
3499,0.06583939278834082,0
3500,0.5549447540446423,0
3501,5.526031846907029,0
3502,3.5147344861709477,0
3503,-2.709281308946436,0
3504,1.5173491921968207,0
3505,-0.7888607785386873,0
3506,0.30684307890780294,0
3507,-0.16806170850013002,0
3508,0.031104460233087793,0
3509,0.013774873964530442,0
3510,-0.04488443263240925,0
3511,0.040359384427967576,0
3512,0.005519757063260661,0
3513,0.010842307230675467,0
3514,-0.03419068377152712,0
3515,-0.00845692501502764,0
3516,0.05622049229065762,0
3517,1.4951922512575488,0
3518,6.961890176629574,0
3519,-0.17239466948001247,0
3520,-0.9651960865790508,0
3521,0.7412198953235295,0
3522,-0.3639579058399111,0
3523,0.21460302106462067,0
3524,-0.10402033138622288,0
3525,0.08101803743417042,0
3526,0.03701217416965831,0
3527,0.005783529004526658,0
3528,0.006249562459507522,0
3529,-0.037302741746112617,0
3530,0.019745642362259216,0
3531,-0.002037308249160187,0
3532,-0.050576060399123636,0
3533,0.13459383301786962,0
3534,3.6231614438170943,0
3535,6.340861168859446,0
3536,-2.7237187807264673,0
3537,0.9800749024450555,0
3538,-0.35207721082005244,0
3539,0.15224301468151083,0
3540,0.04252142842064419,0
3541,0.06635822112257136,0
3542,-0.008523124361429928,0
3543,0.027676832638402468,0
3544,0.009638690546452638,0
3545,0.022492302365826923,0
3546,-0.019894732745798362,0
3547,0.005966300718323558,0
3548,0.0472005563669326,0
3549,0.17214163351119358,0
3550,0.58631787774178,0
3551,5.587554955456029,0
3552,3.5841833308094087,0
3553,-2.7078388834999596,0
3554,1.6650009435450004,0
3555,-0.6694013886927214,0
3556,0.3577615115645022,0
3557,-0.10437691751092282,0
3558,0.18481884135165597,0
3559,0.06690386947885957,0
3560,0.12801318354227423,0
3561,0.0867702334942188,0
3562,-0.043019350214072646,0
3563,0.024093465365202234,0
3564,0.10157914966313075,0
3565,-0.05972743716411864,0
3566,0.025387255902618033,0
3567,1.5732108938489218,0
3568,6.865456281530161,0
3569,-0.19083493770115964,0
3570,-0.9391451664607272,0
3571,0.7541166154939141,0
3572,-0.38217102527972646,0
3573,0.14725404507540793,0
3574,-0.014792915394554504,0
3575,-0.026660646941572712,0
3576,-0.04772210756294325,0
3577,-0.07161006477694373,0
3578,-0.03252576293760007,0
3579,0.03998387905267516,0
3580,0.029541367030206787,0
3581,0.04079019518425053,0
3582,0.04770032693839218,0
3583,0.10040352213621725,0
3584,3.4668984460027006,0
3585,6.271171293724834,0
3586,-2.661602328032901,0
3587,1.0552238028659306,0
3588,-0.391776989520905,0
3589,0.15955652850346388,0
3590,-0.0066773940914562,0
3591,0.06298923319915921,0
3592,-0.01187209180515422,0
3593,0.08958984845870105,0
3594,0.05804518353847363,0
3595,0.0096988441052349,0
3596,0.07424446702019143,0
3597,-0.021097300935230937,0
3598,0.07333979442651167,0
3599,-0.007057602785673984,0
3600,0.5786290550757919,0
3601,5.602757702161568,0
3602,3.5083824226343006,0
3603,-2.701073107204377,0
3604,1.6432967242567647,0
3605,-0.7215579946425831,0
3606,0.32404312701162463,0
3607,-0.10985466248577273,0
3608,0.05571321569897184,0
3609,0.01879117070440851,0
3610,-0.06027247981903386,0
3611,0.05457890580128716,0
3612,-0.08015965488621152,0
3613,-0.015200880426612447,0
3614,0.0005783236944680303,0
3615,-0.042008789978399526,0
3616,-0.06318728535137288,0
3617,1.5921809447825717,0
3618,6.853778132105128,0
3619,-0.2513776518454463,0
3620,-1.0186894760605743,0
3621,0.7928304924060411,0
3622,-0.43181452933820375,0
3623,0.13421932088499913,0
3624,-0.012083712842800666,0
3625,0.0451746631931228,0
3626,-0.028575934376904776,0
3627,0.025524235576866786,0
3628,-0.0677489376458451,0
3629,0.03740073780398694,0
3630,-0.029188903922299655,0
3631,-0.0708023374559696,0
3632,-0.06595650295775071,0
3633,0.11765113373643753,0
3634,3.44580273963596,0
3635,6.256652115132843,0
3636,-2.7519439217605153,0
3637,1.0449139720402807,0
3638,-0.41580520395106235,0
3639,0.05602972381915404,0
3640,-0.031235479338626325,0
3641,-0.01860825552284905,0
3642,-0.03460574036542201,0
3643,0.08893827303977185,0
3644,0.013933586783522134,0
3645,-0.03588582908601196,0
3646,0.047435977717819294,0
3647,0.017469078852723183,0
3648,-0.06122164478602666,0
3649,-0.05533600634611911,0
3650,0.612284823982966,0
3651,5.502081667334235,0
3652,3.3687561031009343,0
3653,-2.7214551841247445,0
3654,1.525478035670291,0
3655,-0.873352350188359,0
3656,0.3449482326668788,0
3657,-0.048292468584782644,0
3658,-0.051262501834526665,0
3659,0.016319777282906695,0
3660,0.14216494514003508,0
3661,-0.05474413431875121,0
3662,0.07674190491779262,0
3663,0.025433326481532955,0
3664,0.04503309566133068,0
3665,-0.00963671824105409,0
3666,0.03316371218188881,0
3667,1.6499661855665517,0
3668,6.986313819145008,0
3669,-0.33432578282703856,0
3670,-1.0392281342425782,0
3671,0.7244887696760466,0
3672,-0.5167767689442675,0
3673,0.0746668844139108,0
3674,0.04404328012316196,0
3675,0.015162831594957552,0
3676,-0.018200791502030716,0
3677,-0.036746213425001416,0
3678,0.05275632634786215,0
3679,-0.05102230016390708,0
3680,0.001402621521492474,0
3681,-0.04320357133459958,0
3682,0.030471190577874927,0
3683,0.15260869948871733,0
3684,3.4817741647039524,0
3685,6.227129755459773,0
3686,-2.817229163508969,0
3687,1.086543037449066,0
3688,-0.4342132900808532,0
3689,0.07257668601955852,0
3690,-0.060039764585812706,0
3691,0.01763103757900302,0
3692,0.050418099753371845,0
3693,0.03163590696781159,0
3694,-0.026383830689914317,0
3695,-0.029507628057626963,0
3696,-0.0004944215983057471,0
3697,-0.045494996234028334,0
3698,-0.05580306895051486,0
3699,0.0005376470549066474,0
3700,0.5324993829190185,0
3701,5.572305220454295,0
3702,3.3262593369340947,0
3703,-2.7889383592670094,0
3704,1.511924188418785,0
3705,-0.7858769986794216,0
3706,0.2883662448070828,0
3707,-0.14195743341034886,0
3708,0.049691883726846825,0
3709,-0.02522406710641565,0
3710,-0.1315912234189497,0
3711,-0.00402241300564439,0
3712,-0.1149719339313271,0
3713,0.02430825823459324,0
3714,-0.013007597890392266,0
3715,-0.024723757357312377,0
3716,-0.06994787090781343,0
3717,1.6241843867535404,0
3718,7.050536112542608,0
3719,-0.20740245216221462,0
3720,-1.0065357979851188,0
3721,0.7682480843518406,0
3722,-0.4365959929667084,0
3723,0.11188264187050881,0
3724,-0.0640358985051143,0
3725,0.033623691969160985,0
3726,0.01676871628008545,0
3727,-0.015524976042466724,0
3728,-0.08220650841894599,0
3729,0.031002554114606437,0
3730,-0.06101329083757449,0
3731,-0.10790107807661325,0
3732,0.04340677913171961,0
3733,0.14964495878330397,0
3734,3.498826547229683,0
3735,6.194426485191866,0
3736,-2.75452309158485,0
3737,1.0048971074422683,0
3738,-0.38573586487855804,0
3739,0.0660532236202272,0
3740,-0.1452868766709708,0
3741,-0.08444900737822066,0
3742,0.024182900901411022,0
3743,0.006637008655772443,0
3744,-0.04590668067623056,0
3745,-0.015349706932067358,0
3746,-0.07542694519991569,0
3747,-0.062327029553560856,0
3748,0.07570884166819955,0
3749,0.03756953705888535,0
3750,0.6540832477696047,0
3751,5.596265994414168,0
3752,3.320329671690741,0
3753,-2.7386453563742528,0
3754,1.5509422290149395,0
3755,-0.8009801740076828,0
3756,0.35932584205324725,0
3757,-0.10038515240741751,0
3758,0.028929691607711572,0
3759,0.013566339867467261,0
3760,-0.029479067830330104,0
3761,-0.07911243089846362,0
3762,-0.14195231628276436,0
3763,-0.0785371793013009,0
3764,-0.025909768510948086,0
3765,-0.10949708948514818,0
3766,-0.023421356803588343,0
3767,1.6033701460293386,0
3768,6.9370677470579265,0
3769,-0.22685484879376044,0
3770,-0.904947842543314,0
3771,0.821226695311574,0
3772,-0.363508051142524,0
3773,0.13488361666853044,0
3774,-0.09537166128464303,0
3775,-0.0344607499736084,0
3776,0.03594718357094774,0
3777,0.04960232551122386,0
3778,-0.0035882217996919073,0
3779,0.009069094640470456,0
3780,-0.04253172705283274,0
3781,0.015015050032527087,0
3782,-0.02585949892996151,0
3783,0.06789505366763893,0
3784,3.5262528332717675,0
3785,6.188669197089729,0
3786,-2.764139091552997,0
3787,1.0876885772975595,0
3788,-0.315281675389896,0
3789,0.13193407004731156,0
3790,0.03343102524611809,0
3791,0.013654790926259285,0
3792,0.05489221586348466,0
3793,-0.003153143481166517,0
3794,-0.005632828717269698,0
3795,0.01067035127401742,0
3796,0.08712479127923238,0
3797,-0.05599119290192252,0
3798,0.01585694616464079,0
3799,0.008561145063090797,0
3800,0.5893272800204689,0
3801,5.646633003055293,0
3802,3.4174761621894945,0
3803,-2.7220251141886687,0
3804,1.5361459565970097,0
3805,-0.7302003592489104,0
3806,0.36356911332672104,0
3807,-0.08496155177444198,0
3808,0.12624966150343508,0
3809,0.04525737842641525,0
3810,0.03519905701522865,0
3811,-0.06554599523026336,0
3812,-0.06304525145321085,0
3813,0.02840287302258767,0
3814,-0.050180098397619,0
3815,-0.0198992033602299,0
3816,0.02376218705264401,0
3817,1.590966222189201,0
3818,6.921997438698124,0
3819,-0.21375896515941822,0
3820,-0.8361860453843951,0
3821,0.7150177054747862,0
3822,-0.4036873829083328,0
3823,0.11542536651410534,0
3824,0.0025593418455585396,0
3825,0.060140663849088685,0
3826,0.01166316400858912,0
3827,-0.053043312069461716,0
3828,-0.03360035696591907,0
3829,-0.08716570293834244,0
3830,-0.011129506297091939,0
3831,0.046415157212164514,0
3832,-0.04229589572776267,0
3833,0.09802706144286069,0
3834,3.6011397569428567,0
3835,6.23942623237913,0
3836,-2.751508834896099,0
3837,1.0731096953571764,0
3838,-0.45597212124288894,0
3839,0.126630032900623,0
3840,-0.08528804266416334,0
3841,0.04121194699137778,0
3842,-0.026251821027295317,0
3843,0.07047049697572923,0
3844,0.023593210813753665,0
3845,0.05643819139816754,0
3846,0.06737279878580323,0
3847,-0.022649847080485393,0
3848,-0.09733056532197246,0
3849,0.03366519206294346,0
3850,0.6307407015735417,0
3851,5.557289535499392,0
3852,3.326291000605847,0
3853,-2.6366088299869395,0
3854,1.534480120570418,0
3855,-0.8876163409371611,0
3856,0.38703839558361103,0
3857,-0.12013649688873818,0
3858,0.0774707165213221,0
3859,0.029382248712922422,0
3860,-0.026702190379097466,0
3861,0.0007744144582470282,0
3862,-0.005876698623460325,0
3863,-0.07253325031139538,0
3864,-0.012824914751143134,0
3865,0.016651977823516177,0
3866,0.014033141578749533,0
3867,1.6802661001001118,0
3868,6.9072922592081225,0
3869,-0.23974735629778926,0
3870,-0.8056181361065529,0
3871,0.7643427406910601,0
3872,-0.4148107801575428,0
3873,0.18159456701037877,0
3874,0.03159350728020863,0
3875,0.011460406552654033,0
3876,-0.036749681305553436,0
3877,0.022375090179387744,0
3878,0.03834394539898621,0
3879,-0.014535636255669447,0
3880,0.017983417245568067,0
3881,-0.06395313341409106,0
3882,0.08437209527991604,0
3883,0.015956870921946698,0
3884,3.513725683261315,0
3885,6.218837162698386,0
3886,-2.714352796779063,0
3887,1.1164222222089053,0
3888,-0.3517040257887917,0
3889,0.18474972497334322,0
3890,-0.01311722441448417,0
3891,0.12774981977469252,0
3892,0.08907423175693391,0
3893,0.04629169062433079,0
3894,0.1494956799815454,0
3895,0.037648965696384304,0
3896,-0.015480589584119658,0
3897,0.0793777067810285,0
3898,0.02306443514742377,0
3899,-0.06697226163962272,0
3900,0.6841751656858855,0
3901,5.706403471142623,0
3902,3.4555846176585585,0
3903,-2.677102899144428,0
3904,1.5445346894001464,0
3905,-0.783865930493124,0
3906,0.446742859357925,0
3907,-0.1093534492859713,0
3908,0.020278037881122243,0
3909,0.03629287467995575,0
3910,-0.02283337335488796,0
3911,-0.004781552334987138,0
3912,0.011305667916110436,0
3913,0.055990040512913265,0
3914,-0.034883228381708375,0
3915,0.09791429374915823,0
3916,0.01182101575559656,0
3917,1.650684765089557,0
3918,6.883594109501113,0
3919,-0.2033231764921967,0
3920,-0.9453310085319967,0
3921,0.7239274993479815,0
3922,-0.3679586584753749,0
3923,0.10433316054178106,0
3924,0.020635885953303693,0
3925,0.02699401648115242,0
3926,-0.012381647073708557,0
3927,-0.01611779061365154,0
3928,0.011093763903624012,0
3929,-0.0003421463203156696,0
3930,-0.03714450054533652,0
3931,0.03035774928603293,0
3932,0.07034317812370874,0
3933,0.128764402738655,0
3934,3.621071424716153,0
3935,6.170699023051111,0
3936,-2.6634384876113826,0
3937,1.1545630654383665,0
3938,-0.3841443254345601,0
3939,0.2148026771433419,0
3940,-0.0830620978816404,0
3941,0.13893077844366247,0
3942,-0.019071343050610645,0
3943,-0.07183451635057028,0
3944,0.0978014765224689,0
3945,0.07849315170596112,0
3946,0.05754723290982505,0
3947,0.09690597617433483,0
3948,0.0035567491564941368,0
3949,-0.03789268605702716,0
3950,0.6602565913138542,0
3951,5.599897028208466,0
3952,3.2546863101422705,0
3953,-2.5999075211873652,0
3954,1.606485089961424,0
3955,-0.6988167901237948,0
3956,0.2814039145663382,0
3957,-0.06654930100739888,0
3958,0.08994623783720077,0
3959,-0.03526398099125386,0
3960,-0.047413498538014034,0
3961,-0.020275435463941893,0
3962,0.04624127413249488,0
3963,0.05671322136861137,0
3964,-0.010599402936671137,0
3965,-0.02719458852874279,0
3966,0.04703224457119857,0
3967,1.7091995033870455,0
3968,6.893861760590842,0
3969,-0.34272149654756623,0
3970,-0.861695621911292,0
3971,0.7567419210416055,0
3972,-0.30917001899670193,0
3973,0.1744917523553664,0
3974,0.01602345058343406,0
3975,0.11768255758786421,0
3976,0.08920542751738525,0
3977,0.11786281980158053,0
3978,0.07246157180474029,0
3979,0.05981110694120645,0
3980,0.028071996925802194,0
3981,0.08907404192366258,0
3982,0.004818310953857187,0
3983,0.12797547458222047,0
3984,3.5253111072755803,0
3985,6.188598401902227,0
3986,-2.663925125234679,0
3987,1.121922506732239,0
3988,-0.4114517816158519,0
3989,0.12703894094839557,0
3990,0.005816227274874054,0
3991,0.06273944535879851,0
3992,0.02350402989042146,0
3993,-0.058641851121397894,0
3994,0.11228842953296117,0
3995,0.009000106305615402,0
3996,0.0970196113083471,0
3997,0.0761710851584975,0
3998,0.059787237524812145,0
3999,0.10830172276778048,0
4000,0.5535688662708258,0
4001,5.691199126884367,0
4002,3.2791235469141164,0
4003,-2.7130772297083827,0
4004,1.5789688807381765,0
4005,-0.713353495727985,0
4006,0.42689453498230645,0
4007,-0.12012356016867257,0
4008,0.10754860764327366,0
4009,-0.03162346650937653,0
4010,0.0718598508275496,0
4011,0.011983702409581859,0
4012,0.03917982357356626,0
4013,-0.06186057895957043,0
4014,0.09882546762123472,0
4015,0.01045889040584623,0
4016,-0.0470611892372062,0
4017,1.5686445804562568,0
4018,6.954617688083696,0
4019,-0.33703757583928784,0
4020,-0.85788800199277,0
4021,0.7649987655794533,0
4022,-0.37291439285079697,0
4023,0.16730475079082413,0
4024,0.0031922241540460403,0
4025,0.027379067372088367,0
4026,-0.00575588151586317,0
4027,-0.02126347803542883,0
4028,-0.0365471411884038,0
4029,-0.014912035050052133,0
4030,-0.08767630186135042,0
4031,-0.03616317669959615,0
4032,-0.028248234895175587,0
4033,0.10948320294008787,0
4034,3.5636233940721778,0
4035,6.228883092482236,0
4036,-2.6933098807592732,0
4037,1.1673904031910551,0
4038,-0.3071959390833861,0
4039,0.1963847521314972,0
4040,-0.06520952499962673,0
4041,0.11437931474417193,0
4042,0.007019105076393719,0
4043,-0.07549011034323078,0
4044,0.05026133238275553,0
4045,0.04455641409145449,0
4046,-0.028431291229292038,0
4047,0.0016685732104678146,0
4048,0.016919699088148266,0
4049,0.016119605242778612,0
4050,0.5263393093601022,0
4051,5.785017864161802,0
4052,3.3027138187343374,0
4053,-2.5695494245230264,0
4054,1.4914158237048152,0
4055,-0.7394195600307896,0
4056,0.4007630806789441,0
4057,-0.05412801468380762,0
4058,0.021600914377715746,0
4059,0.053448722778537384,0
4060,0.04936022332922613,0
4061,0.05321858350508683,0
4062,-0.01684340938936789,0
4063,0.04263948908297256,0
4064,-0.05129656014046681,0
4065,0.03343794248391582,0
4066,0.05929435015731599,0
4067,1.7152777134328838,0
4068,6.874134137235945,0
4069,-0.3779510551185068,0
4070,-0.8845521720855697,0
4071,0.7030573043331628,0
4072,-0.3458407560945024,0
4073,0.15006123581162725,0
4074,-0.10659936008550858,0
4075,-0.09184446917837984,0
4076,-0.07483803062831956,0
4077,0.050483873155367245,0
4078,0.03204518816021998,0
4079,-0.0059454041331402805,0
4080,-0.007111709404158973,0
4081,-0.09683013013686227,0
4082,-0.011418029706982257,0
4083,0.10194372343481747,0
4084,3.630867898591738,0
4085,6.095396276210519,0
4086,-2.7627345521071414,0
4087,1.1322010348005074,0
4088,-0.4373611256154842,0
4089,0.11584687103550773,0
4090,-0.06323194121143122,0
4091,-0.04184235194742206,0
4092,-0.15489957848569777,0
4093,0.0077313545026274615,0
4094,-0.05097915038440898,0
4095,-0.08173277146957986,0
4096,-0.03159513463574328,0
4097,0.061995322390623275,0
4098,0.02654175936929585,0
4099,0.0229554194095161,0
4100,0.6366852182370151,0
4101,5.721215414142741,0
4102,3.3349641525248104,0
4103,-2.5568066282514668,0
4104,1.6017379942243362,0
4105,-0.7453710474703877,0
4106,0.4689638657727848,0
4107,-0.16529911945723574,0
4108,0.10515972529221149,0
4109,0.012062605414043326,0
4110,0.09119976055792653,0
4111,0.08231167761133407,0
4112,0.08328148033053182,0
4113,-0.009371665519673038,0
4114,0.06805735537667838,0
4115,0.014756033337036073,0
4116,0.08897175347110303,0
4117,1.698197299408361,0
4118,6.955758334498743,0
4119,-0.4080213942656662,0
4120,-0.8805031421826576,0
4121,0.6317086171697628,0
4122,-0.33593671498316174,0
4123,0.11904229113247904,0
4124,-0.05624707173465736,0
4125,0.012502001367449951,0
4126,0.03987063162898413,0
4127,0.08918473207711834,0
4128,0.02974425992304647,0
4129,0.01548559963700215,0
4130,0.0895608843870313,0
4131,-0.04769083480156473,0
4132,-0.08743246508489126,0
4133,0.10375785273513076,0
4134,3.6672986516209303,0
4135,6.07716252380826,0
4136,-2.8018043619568966,0
4137,1.0762356763141208,0
4138,-0.36269877525114813,0
4139,0.0795707458822344,0
4140,-0.036932162943425516,0
4141,0.04365989951069066,0
4142,0.021744849976761876,0
4143,-0.06535751223711672,0
4144,0.010337399752471112,0
4145,-0.06671461293938012,0
4146,-0.013175130650151967,0
4147,-0.0703550175834254,0
4148,-0.05823159662804679,0
4149,0.0564261126802073,0
4150,0.6150353033607873,0
4151,5.710375784183485,0
4152,3.1657037498729816,0
4153,-2.6489883378118266,0
4154,1.4889779824400333,0
4155,-0.8360006396241788,0
4156,0.3899814418469316,0
4157,-0.17959395136862494,0
4158,0.0005478516586037907,0
4159,0.042121630485202136,0
4160,-0.080496861518841,0
4161,-0.01809684563549277,0
4162,-0.01940200101935258,0
4163,-0.025143419803431613,0
4164,-0.007476167823270912,0
4165,0.051032422428588034,0
4166,0.032470469591249974,0
4167,1.7001449165494922,0
4168,6.953412729423535,0
4169,-0.4109340882408659,0
4170,-0.7369317029856319,0
4171,0.729986665224137,0
4172,-0.25077074073621297,0
4173,0.12382634602933282,0
4174,0.0645502949827719,0
4175,0.07832218618664796,0
4176,-0.03803835960727113,0
4177,-0.07737621579707382,0
4178,0.033530161527903043,0
4179,0.05905013660130158,0
4180,-0.06422108690049125,0
4181,-0.04251054664460778,0
4182,-0.022729871332744237,0
4183,0.09439454758972272,0
4184,3.679347689511827,0
4185,6.071676847974779,0
4186,-2.8004069499445268,0
4187,1.218077887676548,0
4188,-0.3419711096304929,0
4189,0.13650792195174297,0
4190,-0.04289396366064986,0
4191,0.10334294919548104,0
4192,0.04594150925600672,0
4193,-0.015540845801920396,0
4194,0.050776217289003216,0
4195,0.13737078436182143,0
4196,0.05204293385140124,0
4197,0.14520908523011958,0
4198,0.10334221273007438,0
4199,0.054062216931962004,0
4200,0.5871670586476132,0
4201,5.7789562110691515,0
4202,3.225554328371092,0
4203,-2.546257170356679,0
4204,1.5738011568912866,0
4205,-0.7730429953710005,0
4206,0.2600938817036921,0
4207,-0.1261057850445549,0
4208,0.02551925363631592,0
4209,-0.003272966338522026,0
4210,-0.008989515418008222,0
4211,0.05991054105998527,0
4212,-0.025899536611437624,0
4213,-0.07445847247956237,0
4214,-0.009458553937061452,0
4215,0.04088513220355891,0
4216,0.06902774011988788,0
4217,1.7267820280951294,0
4218,7.076239890413436,0
4219,-0.42916906907851776,0
4220,-0.6824141316482919,0
4221,0.7203805271802997,0
4222,-0.18925037949629814,0
4223,0.19321945570707677,0
4224,0.021110201242959994,0
4225,0.126349374991966,0
4226,-0.0018734455854588702,0
4227,0.013539737718596699,0
4228,-0.026262510229290326,0
4229,-0.017426372522023528,0
4230,0.0961258383314243,0
4231,0.051524477824925446,0
4232,-0.046015603988543916,0
4233,0.18902757925376829,0
4234,3.687659224565617,0
4235,6.055257477401355,0
4236,-2.8625848870848674,0
4237,1.113229578932543,0
4238,-0.5092199226191388,0
4239,0.1891882052292443,0
4240,-0.11328594861842267,0
4241,0.03518949214450397,0
4242,0.0008256534226020861,0
4243,-0.047710113598532326,0
4244,0.03173660959673539,0
4245,-0.017019018694083326,0
4246,-0.010549259453941848,0
4247,-0.014523574688447062,0
4248,0.0653538342909192,0
4249,0.05075862440456931,0
4250,0.6049273288911884,0
4251,5.755431899467139,0
4252,3.282868112608765,0
4253,-2.642824568074924,0
4254,1.509123593874769,0
4255,-0.7393730802667882,0
4256,0.32751323381059805,0
4257,0.011422558619903503,0
4258,0.09230134847971722,0
4259,0.020591512557293908,0
4260,0.01844394415243172,0
4261,0.017113093843534707,0
4262,0.009809147656706579,0
4263,-0.018049946683408105,0
4264,-0.003316750516314807,0
4265,-0.046531994567898166,0
4266,0.12308082302805498,0
4267,1.7960770182711894,0
4268,7.036926029027267,0
4269,-0.49487061873976723,0
4270,-0.7045509119399491,0
4271,0.7117112228282566,0
4272,-0.23993847828563997,0
4273,0.21862605868052243,0
4274,-0.03701023548648443,0
4275,0.06217795958880559,0
4276,0.03625225550556859,0
4277,-0.011792808493142376,0
4278,0.02022910260718092,0
4279,-0.029020599660743517,0
4280,0.11999937188548217,0
4281,0.06357593536241381,0
4282,0.013481539668253242,0
4283,0.10682701208728328,0
4284,3.7088404503900185,0
4285,6.111283084460539,0
4286,-2.864624873686483,0
4287,1.2265119482697255,0
4288,-0.4481047802923087,0
4289,0.1417224361221347,0
4290,-0.1249349250377841,0
4291,0.03166103994554114,0
4292,0.006400831010483751,0
4293,0.0024379334707658505,0
4294,0.07724427810997896,0
4295,-0.07529480303286513,0
4296,-0.013441224141580768,0
4297,-0.08762270534850032,0
4298,-0.06964896646686418,0
4299,-0.10064253164925399,0
4300,0.5363808163612079,0
4301,5.658769941097415,0
4302,3.0320208321161126,0
4303,-2.6556360767098126,0
4304,1.5033046498834195,0
4305,-0.913688918566972,0
4306,0.3647736425503217,0
4307,-0.08652893250720559,0
4308,0.003555226562222867,0
4309,-0.012777360626634014,0
4310,-0.06195357651898633,0
4311,-0.05224165847507041,0
4312,0.023596127214591176,0
4313,0.02366875360656284,0
4314,0.025828403812191973,0
4315,-0.0008679703055360678,0
4316,0.05680879629462547,0
4317,1.722014832220203,0
4318,7.03293184049974,0
4319,-0.5807061624268725,0
4320,-0.7735330069260338,0
4321,0.6945135352459468,0
4322,-0.4071991961621859,0
4323,0.22607463369665715,0
4324,-0.09313332093113669,0
4325,-0.11767153919380885,0
4326,0.06224906040791073,0
4327,0.05249048799485739,0
4328,-0.04014907986901563,0
4329,-0.005300247241917386,0
4330,0.03232713501399414,0
4331,0.035425459239883036,0
4332,0.07934092971467842,0
4333,0.12702285809331343,0
4334,3.6959893201770297,0
4335,5.9714770955771606,0
4336,-2.7791428177344657,0
4337,1.1034858879571106,0
4338,-0.4237161957705809,0
4339,0.16064250526860918,0
4340,-0.003329433216088626,0
4341,0.040329295098832506,0
4342,0.11570319474823042,0
4343,0.0565444940692078,0
4344,0.021603000312510928,0
4345,-0.05235358945444331,0
4346,0.07989743607055964,0
4347,-0.035179454248391646,0
4348,-0.02147421052210026,0
4349,0.10125243088275608,0
4350,0.6878865503731272,0
4351,5.759875305770014,0
4352,3.1323224675493537,0
4353,-2.6556983013530857,0
4354,1.4445689729189548,0
4355,-0.9237262067084079,0
4356,0.3203513804025246,0
4357,-0.10101066309274603,0
4358,-0.0026108532709416474,0
4359,0.015081951856722241,0
4360,0.06054133397033307,0
4361,-0.1185445172760943,0
4362,-0.03353421054401204,0
4363,0.01694888614667499,0
4364,0.006572652125678858,0
4365,0.03753635067636106,0
4366,-0.0519032360887445,0
4367,1.8029386906244738,0
4368,7.030616388383419,0
4369,-0.5556031171605026,0
4370,-0.6742418466190133,0
4371,0.6279131471865496,0
4372,-0.35522041829680434,0
4373,0.16092137681904176,0
4374,0.05146220305320344,0
4375,0.02670529035807411,0
4376,0.04912800114645356,0
4377,-0.03159572059828248,0
4378,-0.033804521377103075,0
4379,0.08966927234674021,0
4380,0.0589867428775436,0
4381,0.04695602053283253,0
4382,0.0616009978891362,0
4383,0.20769938111125774,0
4384,3.706288314883549,0
4385,6.0805251064956,0
4386,-2.699811245483436,0
4387,1.1573021218738486,0
4388,-0.49143247549339125,0
4389,0.14094876265406148,0
4390,-0.09050731049124308,0
4391,0.07755759394885949,0
4392,-0.012498971219907748,0
4393,-0.007757593379487667,0
4394,0.038726920001707583,0
4395,-0.02043787724643456,0
4396,-0.012196632810593962,0
4397,-0.025717828803818503,0
4398,-0.00018513967569893514,0
4399,-0.06296310938639504,0
4400,0.5515930302518195,0
4401,5.722156586327177,0
4402,3.039741236278146,0
4403,-2.72867012871516,0
4404,1.5045992918360818,0
4405,-0.8479268235288095,0
4406,0.3721512202829321,0
4407,-0.10659955224319877,0
4408,-0.07184756809444647,0
4409,-0.07366650834374414,0
4410,0.05695632992227076,0
4411,0.07597180056853636,0
4412,0.09093823202506489,0
4413,0.014148784859931565,0
4414,0.13541918230326,0
4415,0.013435806178346232,0
4416,0.026469284734933377,0
4417,1.8426961489570965,0
4418,7.046803757527841,0
4419,-0.4837440822200481,0
4420,-0.6958248351921087,0
4421,0.6758646010201024,0
4422,-0.3910627774490948,0
4423,0.005296206593035285,0
4424,-0.15868223592784347,0
4425,0.019215481974626244,0
4426,-0.03029852588334249,0
4427,-0.026251608865491653,0
4428,-0.053698078065719794,0
4429,-0.04669983667211804,0
4430,-0.13622945627377608,0
4431,0.0508868900738229,0
4432,0.012007077863613956,0
4433,-0.02128306986584594,0
4434,3.696514085071564,0
4435,6.02794302470226,0
4436,-2.782418068316606,0
4437,1.1845548236710686,0
4438,-0.38838554449925455,0
4439,0.14752504614013215,0
4440,0.040355000683046954,0
4441,0.10038403449732419,0
4442,0.013867906559807,0
4443,0.012476361052912204,0
4444,0.09733602166096607,0
4445,0.026894152860720943,0
4446,-0.03039119189937805,0
4447,0.08085601637022218,0
4448,0.05474558391597327,0
4449,0.03137580010508986,0
4450,0.6647391855719259,0
4451,5.785796895612631,0
4452,3.115991254301147,0
4453,-2.5949858838968445,0
4454,1.4926304812463438,0
4455,-0.7855382498087397,0
4456,0.2454920040385397,0
4457,-0.08926366098768766,0
4458,-0.006939608530771357,0
4459,-0.06344565678150388,0
