timestamp,value-0,is_anomaly
0,0.19780959079486865,0
1,3.5082783124939607,0
2,6.815393405787476,0
3,-0.27133092948923826,0
4,-2.035921292845779,0
5,1.4235091120109493,0
6,-0.7271313464458995,0
7,0.14832528859752206,0
8,0.01609795659920256,0
9,-0.13325424551444434,0
10,-0.03342412458924991,0
11,-0.09559771010514644,0
12,-0.06187731694196077,0
13,-0.08322054633902029,0
14,-0.05700234969359794,0
15,-0.040639548121690086,0
16,-0.050854309367726044,0
17,-0.0780624946123166,0
18,-0.10299975866444505,0
19,-0.10031505174039117,0
20,0.21734522426116448,0
21,3.4038344596548407,0
22,6.790012821719965,0
23,-0.4086910935438211,0
24,-1.9977649199305905,0
25,1.5811916299484432,0
26,-0.7698380664619185,0
27,0.09681461705152693,0
28,-0.053679736548174366,0
29,-0.0926350110367843,0
30,-0.014769299693867824,0
31,-0.12349963217649032,0
32,-0.11060350481036137,0
33,-0.09058956909380067,0
34,-0.04202251024114238,0
35,-0.04527497040824474,0
36,0.08492357189848324,0
37,-0.04779135180480255,0
38,-0.02078510215276655,0
39,-0.06415312267950568,0
40,0.18974054666987575,0
41,3.4433592529926904,0
42,6.89846449168842,0
43,-0.2434488386132399,0
44,-1.9967444709224709,0
45,1.5515511646558946,0
46,-0.8013871841876354,0
47,0.1491486753199782,0
48,0.04220173318320327,0
49,-0.03893754185514123,0
50,-0.016232962811080283,0
51,0.001195528953376733,0
52,-0.005503081728448524,0
53,-0.066034412879657,0
54,0.029453828105799766,0
55,-0.0824084972677801,0
56,-0.1370181109285333,0
57,-0.08400553222137715,0
58,-0.07381527223529757,0
59,-0.08830489656230121,0
60,0.21555295896443705,0
61,3.4937037657296455,0
62,6.840467077841215,0
63,-0.37261970818463713,0
64,-2.0632133809907582,0
65,1.4605059901499147,0
66,-0.9134610577478616,0
67,0.043910304980143394,0
68,-0.06200766366587391,0
69,-0.12778256000504226,0
70,-0.07958227375160995,0
71,-0.06480420451719952,0
72,-0.06137096179115339,0
73,0.006473289427113674,0
74,-0.03745765470921271,0
75,-0.010659396862627464,0
76,-0.06554399863265935,0
77,0.021138449019392217,0
78,-0.04106142316303085,0
79,-0.030892005499706533,0
80,0.29732730356112747,0
81,3.540586460476746,0
82,6.8220142453289245,0
83,-0.32245306650340294,0
84,-1.9928745810781225,0
85,1.565472051556546,0
86,-0.8427443118821207,0
87,0.0687742958444949,0
88,-0.08099273160593479,0
89,-0.2721614710272131,0
90,-0.09378884022217923,0
91,-0.13925145507412762,0
92,0.007731620224207841,0
93,-0.1740831425440287,0
94,-0.04349792717932748,0
95,-0.12597010928179547,0
96,-0.1761782317354439,0
97,-0.10921621862122197,0
98,-0.1342755576030703,0
99,-0.0432232286036057,0
100,0.19391486467817,0
101,3.484074221027222,0
102,6.831032414608373,0
103,-0.31249579739969274,0
104,-2.100319735039697,0
105,1.4695640468567541,0
106,-0.8371401098420057,0
107,0.08111565497508595,0
108,0.006543626220340958,0
109,-0.03834683139578769,0
110,0.093783070578681,0
111,-0.15717992706752512,0
112,-0.1178148635582815,0
113,0.035203516476371106,0
114,0.009469153454809642,0
115,0.08577183142675604,0
116,-0.03561189750934435,0
117,0.07573389278233432,0
118,-0.029380509613329574,0
119,-0.07471072613950173,0
120,0.20987422009407694,0
121,3.4773305736595144,0
122,6.855953634410025,0
123,-0.3660125639565418,0
124,-2.006162497529951,0
125,1.4992926266720732,0
126,-0.755473110820718,0
127,0.011751110457890752,0
128,-0.04836794799183433,0
129,-0.18466304264040365,0
130,-0.06205178309623611,0
131,-0.16047085846845455,0
132,-0.09121930191978506,0
133,-0.15423078040632404,0
134,-0.10234280430782036,0
135,-0.09825014176344865,0
136,-0.042801265071630554,0
137,-0.13307695967933414,0
138,-0.05870270930520269,0
139,0.022424337185660996,0
140,0.3537666840806742,0
141,3.535562996281257,0
142,6.830240998493578,0
143,-0.27330162721855794,0
144,-2.0201656377692334,0
145,1.5967663653705615,0
146,-0.6484756489896818,0
147,0.1476002083959687,0
148,0.021502830689343867,0
149,-0.06436726191435334,0
150,-0.026758043231848397,0
151,0.060900397569205275,0
152,0.03906660677512979,0
153,0.020810818722949938,0
154,-0.05042785429376809,0
155,0.03441816216037554,0
156,-0.0009363684630830892,0
157,0.05065539299974001,0
158,0.0042309642037930435,0
159,-0.0669923281501835,0
160,0.26826861287801596,0
161,3.549513891613269,0
162,6.861612515382785,0
163,-0.3121334198200595,0
164,-2.001111484145495,0
165,1.51164760939854,0
166,-0.7104956144020377,0
167,0.0848343356573525,0
168,-0.0017257419355823714,0
169,-0.03953319998789707,0
170,0.06690697856735374,0
171,-0.11953505954448809,0
172,-0.015200822973357259,0
173,-0.10895705578806096,0
174,0.002564802985506343,0
175,-0.01072462952950678,0
176,-0.0950803987675232,0
177,0.0037460303675030705,0
178,-0.05738209459183063,0
179,0.02857033690093864,0
180,0.24548339229313293,0
181,3.5558064102885405,0
182,6.860333511482062,0
183,-0.18173748483730956,0
184,-1.9122320173743492,0
185,1.6059968409668546,0
186,-0.6365927697705684,0
187,0.12003011078923229,0
188,0.048348091169292326,0
189,-0.014896336478155766,0
190,0.02486511910746069,0
191,0.046871315407059244,0
192,0.11159598362972424,0
193,0.04756513754666192,0
194,-0.00455925381838734,0
195,0.03228691518809004,0
196,0.08982105107358643,0
197,0.07513053028526467,0
198,0.027711170256965893,0
199,0.021325331011297112,0
200,0.2277703661392975,0
201,3.587951986065166,0
202,6.84497275731251,0
203,-0.24830282569981632,0
204,-1.9981618331426023,0
205,1.4778166593977526,0
206,-0.7513957547416161,0
207,0.14586709623603777,0
208,0.0035870266755750474,0
209,-0.0734547044517482,0
210,-0.007317297380927609,0
211,-0.060294678817671345,0
212,0.060740754418324265,0
213,0.017092340431052348,0
214,-0.0011538899892279296,0
215,0.04385888949201411,0
216,-0.01748607396463986,0
217,-0.05801865701644115,0
218,0.028592438659264925,0
219,0.009686855014998049,0
220,0.25470180962501315,0
221,3.6306666632694813,0
222,6.827722360087891,0
223,-0.32524221933929415,0
224,-1.8219986669851458,0
225,1.4915052437953342,0
226,-0.7023811703311822,0
227,0.17329466523252413,0
228,0.03262942328692775,0
229,-0.05202017140417477,0
230,-0.05650556320591606,0
231,-0.14453430789618643,0
232,-0.08628602374739558,0
233,-0.052438351679602424,0
234,0.05240955406433514,0
235,-0.1104336455986985,0
236,-0.05594695223728192,0
237,-0.10678463021717363,0
238,-0.08194994039204781,0
239,-0.0407234404843973,0
240,0.2593032889207131,0
241,3.5497544830792354,0
242,6.873102344587437,0
243,-0.2952064466086669,0
244,-1.8814682318583884,0
245,1.5749272842308326,0
246,-0.8762514861135527,0
247,0.12448732352356547,0
248,0.016844871437653782,0
249,-0.016179608325714044,0
250,-0.025785981539881597,0
251,0.04904189068942322,0
252,0.05281988205933121,0
253,-0.00785991614009875,0
254,-0.012831963159426113,0
255,-0.019305262200693275,0
256,0.07315256155977325,0
257,0.08149679177476554,0
258,-0.034213840232019975,0
259,0.1118802535504825,0
260,0.302178361098325,0
261,3.5621211164576936,0
262,6.961337070440976,0
263,-0.3256697294259654,0
264,-1.8838870231931493,0
265,1.5883188308941094,0
266,-0.7113735690207221,0
267,0.18562320305290259,0
268,-0.027380802802355962,0
269,-0.08228097846059501,0
270,0.05382916563917019,0
271,0.0541440437123223,0
272,-0.06983528314570892,0
273,0.023247511945098893,0
274,-0.026324276011896037,0
275,-0.11207591307432481,0
276,-0.025788055544381634,0
277,0.05480065260980061,0
278,0.020266879222648942,0
279,0.10107969037525096,0
280,0.27973562641510835,0
281,3.6720392276671823,0
282,6.896829687886153,0
283,-0.32040842884930454,0
284,-1.9773998347836832,0
285,1.532512178862011,0
286,-0.6646746294916517,0
287,0.15938443936145608,0
288,0.08618849375901041,0
289,0.0007911030682472495,0
290,0.009937458069418804,0
291,-0.05188952661881449,0
292,0.0018424761864790813,0
293,-0.009432860370696931,0
294,-0.04178330332973337,0
295,-0.07863812349491289,0
296,-0.12745208276450903,0
297,0.033082535927012484,0
298,-0.050029028443069654,0
299,0.008366874002910172,0
300,0.29065667391374417,0
301,3.5667780286099395,0
302,6.7517296318252304,0
303,-0.2844446044454337,0
304,-1.9344069923444864,0
305,1.5202816572415707,0
306,-0.6707307074510609,0
307,0.12800873798941761,0
308,0.05699502547580468,0
309,-0.025294342923337848,0
310,0.04579116016636284,0
311,0.009314884650923522,0
312,0.00621373752849517,0
313,-0.12033918511564715,0
314,0.0002955259516969899,0
315,-0.023487661610223285,0
316,-0.050963973289950115,0
317,-0.03767421767518235,0
318,-0.11007394017734373,0
319,-0.11958363613983414,0
320,0.22578610283143288,0
321,3.547748705389054,0
322,6.746605245604965,0
323,-0.33845023315691636,0
324,-1.9276335998739962,0
325,1.4989518360953573,0
326,-0.7712812237165303,0
327,0.09724024131608894,0
328,-0.03744308261591379,0
329,-0.09111098696024239,0
330,-0.0738805106362857,0
331,-0.05074869902119922,0
332,-0.038949410459179296,0
333,0.036197786375060666,0
334,0.036923680411512824,0
335,0.017260883965790248,0
336,-0.064363608646281,0
337,0.05165240761228571,0
338,0.010252452510516121,0
339,-0.03308292279507026,0
340,0.35292571255706073,0
341,3.6001768416011948,0
342,6.85369237902662,0
343,-0.3328936693410212,0
344,-1.9774843643614382,0
345,1.5077233132541166,0
346,-0.7964925475740974,0
347,0.08526050421017714,0
348,-0.05787221157752892,0
349,-0.06869725641912397,0
350,0.06673448878149586,0
351,-0.05505781158650271,0
352,0.03355895580905417,0
353,-0.04248208451780758,0
354,-0.13432760693730642,0
355,-0.10794455711529179,0
356,0.06453427503419759,0
357,-0.11768693140367975,0
358,-0.06245965106817027,0
359,0.04554281655577132,0
360,0.36810020713533054,0
361,3.6195170159757533,0
362,6.854169744977347,0
363,-0.37056614710400826,0
364,-1.8792483468753756,0
365,1.4468045475492646,0
366,-0.7441589861769112,0
367,0.11733818569466627,0
368,-0.06268219127870767,0
369,-0.0747423543922963,0
370,0.038035010653348966,0
371,-0.023562344320915186,0
372,-0.15603195440081438,0
373,-0.014948972247298443,0
374,-0.048890420264451694,0
375,0.026766393400151953,0
376,0.09725112325682864,0
377,-0.03890669817346365,0
378,0.03047422398256128,0
379,0.04007004419222984,0
380,0.2091140863045862,0
381,3.569112314984791,0
382,6.758882246137244,0
383,-0.33628048410288985,0
384,-1.87327618538792,0
385,1.504598399447655,0
386,-0.7745269738573645,0
387,0.09768046783378288,0
388,0.044227024224192085,0
389,-0.1182066089950906,0
390,0.04507725229940826,0
391,-0.08439089326362419,0
392,-0.028827604352174872,0
393,-0.057180661700663424,0
394,-0.07302483121268193,0
395,-0.026690980491307276,0
396,-0.02954144561262536,0
397,-0.013596066738402888,0
398,-0.053469302969120974,0
399,-0.042427689851025,0
400,0.2744725550232089,0
401,3.4479033762237465,0
402,6.7905101551574765,0
403,-0.3822062703523343,0
404,-1.8982862301207868,0
405,1.531415894343656,0
406,-0.7069669332400057,0
407,0.14789373838234526,0
408,-0.007856540382630828,0
409,-0.05511696435595719,0
410,0.07700359198990153,0
411,0.024885044924915667,0
412,0.008687682352402248,0
413,-0.1141726331445744,0
414,0.042690126068656485,0
415,-0.0073894453551122214,0
416,0.030730572058746387,0
417,-0.06456046536444321,0
418,0.05903577420003221,0
419,0.01793430672422137,0
420,0.1973449207366077,0
421,3.5200881713169294,0
422,6.877150087772903,0
423,-0.41255104633578166,0
424,-1.99070160292455,0
425,1.5957028352579508,0
426,-0.795845531922121,0
427,0.16930321470903975,0
428,0.0038255560112052797,0
429,-0.09046149562434307,0
430,0.027194992918287048,0
431,-0.07695617135095298,0
432,0.015096187820911891,0
433,-0.08176338950384546,0
434,-0.07727656058151947,0
435,0.013160600526053022,0
436,-0.046868434276205226,0
437,-0.08870386132515301,0
438,-0.06865558102678312,0
439,-0.04672517779673478,0
440,0.2967103789706418,0
441,3.481889655265993,0
442,6.856924186607024,0
443,-0.38609864979080877,0
444,-1.8804534717050334,0
445,1.491093910471719,0
446,-0.7295335643913579,0
447,0.13549290711700857,0
448,0.029267551730651025,0
449,-0.028288412813890385,0
450,-0.009638753248548817,0
451,-0.07766938376966487,0
452,-0.039722202667819874,0
453,-0.07983205102300556,0
454,-0.09255669475889822,0
455,0.029625357456261568,0
456,0.07788745080154363,0
457,-0.03770945077395052,0
458,-0.010879554915534072,0
459,-0.12309232453793309,0
460,0.33718743514375826,0
461,3.4922362809627936,0
462,6.853839903852011,0
463,-0.35730007633175564,0
464,-1.9381262302942839,0
465,1.502521066384542,0
466,-0.7662478195519263,0
467,0.05545754620226996,0
468,0.01803398611529628,0
469,-0.12070972102533727,0
470,-0.022451837298606732,0
471,-0.056319619903585,0
472,-0.1362063012476319,0
473,0.01289958000435168,0
474,-0.08477281277890306,0
475,-0.05768773389413299,0
476,0.04430660745612393,0
477,-0.019002072868147285,0
478,-0.0471106532851267,0
479,-0.07622322181717617,0
480,0.21957805292696753,0
481,3.5213912749127068,0
482,6.96919739092174,0
483,-0.3720170427290365,0
484,-1.9539366975546975,0
485,1.5297256233371581,0
486,-0.7729302124301676,0
487,-0.013798587872391493,0
488,0.02034619774787685,0
489,-0.022192879847252246,0
490,0.03860879485442288,0
491,0.011108368790012646,0
492,0.031622033313530085,0
493,-0.06445968221107512,0
494,-0.017986540050411802,0
495,0.046782354393878095,0
496,-0.1127944827108381,0
497,-0.1266835833980922,0
498,-0.12181540620966742,0
499,-0.06422990009326454,0
500,0.10484350686183516,0
501,3.4947832122935254,0
502,6.707626872745066,0
503,-0.41174371471314186,0
504,-1.9987632353437312,0
505,1.4010050381255525,0
506,-0.7378172342961338,0
507,0.12696664145233716,0
508,-0.07988485162509355,0
509,-0.11140977738778476,0
510,-0.06717982601444952,0
511,-0.05171660281087429,0
512,-0.08757464820061055,0
513,-0.03865479475031995,0
514,0.010347361780697666,0
515,-0.07991448883072003,0
516,0.02061786578319148,0
517,-0.10792427727150902,0
518,-0.04151059004856413,0
519,-0.051079929817468596,0
520,0.25131531367801235,0
521,3.601591125172585,0
522,6.795626563249562,0
523,-0.4392522367830473,0
524,-1.9388359248609994,0
525,1.4827188202620367,0
526,-0.8565689627983992,0
527,0.1393474294633854,0
528,-0.03366810715559095,0
529,-0.053023078348315766,0
530,-0.04383537272623009,0
531,-0.02047219988629305,0
532,-0.04723171465824848,0
533,-0.10048450148816625,0
534,-0.07771455244763485,0
535,-0.09121888448903248,0
536,-0.07778797836934627,0
537,-0.07039320441225799,0
538,-0.09181447030870846,0
539,-0.05654253930598097,0
540,0.17795962874263968,0
541,3.6291544736688306,0
542,6.8082361470541395,0
543,-0.51125334606706,0
544,-1.903778518849309,0
545,1.4376066883702119,0
546,-0.7886166833031168,0
547,0.09615963406829302,0
548,0.047538473463385675,0
549,-0.11954710218932664,0
550,0.027141934543565296,0
551,0.08059994270773489,0
552,0.0025535525199134185,0
553,-0.13802151445965194,0
554,-0.11529001579569506,0
555,-0.07440344434251081,0
556,0.0028996459389419513,0
557,-0.07590653535945477,0
558,0.0018222188896429986,0
559,-0.15960221857432996,0
560,0.20709199892143362,0
561,3.6121467304594153,0
562,6.814524185010196,0
563,-0.4781794224174995,0
564,-1.9384370643262303,0
565,1.4256357536720896,0
566,-0.8145190659636977,0
567,0.035793774122781195,0
568,-0.015233094123886444,0
569,-0.1971839612507572,0
570,-0.05958221236296986,0
571,-0.04112872604183459,0
572,0.023803437043290396,0
573,-0.09437647669184407,0
574,-0.09271409401940056,0
575,0.04005039252159297,0
576,0.02444857296381049,0
577,-0.08683070825418378,0
578,-0.03486974239140418,0
579,-0.03750077472682239,0
580,0.17126823276880715,0
581,3.561020558943118,0
582,6.766366939076186,0
583,-0.4328447085023438,0
584,-1.9451956697641541,0
585,1.461218513566322,0
586,-0.7806708094752298,0
587,0.08333899931050309,0
588,0.01826332990662201,0
589,-0.10382503595863363,0
590,-0.007747817806578693,0
591,-0.015485500805498952,0
592,-0.0770303289375449,0
593,-0.052746487950084686,0
594,0.08347871754392845,0
595,-0.06116545972694945,0
596,0.029092028918580006,0
597,-0.10708982235069016,0
598,0.030193268141857528,0
599,0.00633973472308144,0
600,0.31205571688125533,0
601,3.6804890776308983,0
602,6.912024061727594,0
603,-0.41543749673535435,0
604,-1.851264457830695,0
605,1.5795541781535252,0
606,-0.7293770178017545,0
607,0.09727493319579344,0
608,0.13239024771967028,0
609,0.038225875294965905,0
610,0.005114409074098849,0
611,-0.010011372410427676,0
612,-0.0073629349488272405,0
613,-0.04491724789069064,0
614,0.03477172722593913,0
615,0.009937424862759862,0
616,0.08795920345671676,0
617,-0.00935632625767211,0
618,-0.11172322621488269,0
619,0.06034576273735599,0
620,0.2838253852297268,0
621,3.611838211804236,0
622,6.851918965793203,0
623,-0.403858464009727,0
624,-1.8916773754662208,0
625,1.539522455291928,0
626,-0.7057785686699365,0
627,0.16118218462091455,0
628,0.13278182491432683,0
629,-0.12540609707517708,0
630,-0.07632706544943885,0
631,-0.052688220335980654,0
632,-0.022663825521974816,0
633,-0.07845712791545549,0
634,-0.02827653770135112,0
635,0.09106200595011499,0
636,-0.04562967245438766,0
637,-0.023200860613727833,0
638,0.001541175340628453,0
639,-0.06633363710508469,0
640,0.2794569482855069,0
641,3.541450679922342,0
642,6.87132137421376,0
643,-0.4823019686130619,0
644,-1.9317760744191717,0
645,1.5209532597262612,0
646,-0.734558449060815,0
647,0.05853343160939281,0
648,-0.03682412241482198,0
649,-0.16714109325018756,0
650,-0.15566156020551145,0
651,-0.08369968477789803,0
652,-0.06376175226485349,0
653,-0.07407667172165157,0
654,0.013360567989525951,0
655,-0.07652005512509988,0
656,-0.026715923141214314,0
657,-0.08657645666720279,0
658,-0.04246567683731794,0
659,-0.009615902406713842,0
660,0.29437729575827576,0
661,3.6333806265657267,0
662,6.943089139480559,0
663,-0.4434797184992123,0
664,-1.8812345214148476,0
665,1.5312055197865315,0
666,-0.7605758775108992,0
667,0.14952491266536738,0
668,-0.0001434234769054077,0
669,-0.06433507998950734,0
670,-0.027224785999028063,0
671,-0.04379885470980307,0
672,-0.04690102432299776,0
673,-0.04927326884160997,0
674,-0.03846059843901689,0
675,-0.06921950528133344,0
676,-0.11084295164042011,0
677,-0.06307723081819006,0
678,-0.01599987054929501,0
679,0.019860383044032363,0
680,0.3168484231226616,0
681,3.535795768892683,0
682,6.804239218869908,0
683,-0.45986554314854233,0
684,-1.8589612418798314,0
685,1.5386006217944195,0
686,-0.6789219894281895,0
687,0.133431878228254,0
688,-0.06705504994052812,0
689,-0.1050934120417468,0
690,-0.05055355505922979,0
691,-0.029177167856855205,0
692,-0.06747772940145623,0
693,0.09217124946695987,0
694,-0.00018071409456984003,0
695,0.035340988924923586,0
696,0.03982678564383562,0
697,-0.061132174933910655,0
698,0.025074648783010703,0
699,0.02468418051245812,0
700,0.37244138237688323,0
701,3.524848731650177,0
702,6.8585104118242715,0
703,-0.4520919551795265,0
704,-1.785048075511988,0
705,1.5517786726124176,0
706,-0.7197362516010127,0
707,0.06265868839609086,0
708,0.0385286894390114,0
709,-0.04164130516533457,0
710,-0.01752326885328019,0
711,-0.0011893470691905703,0
712,-0.016507678106897412,0
713,0.012855317729043698,0
714,-0.07045316419605606,0
715,0.0037560853669009325,0
716,-0.019950797923792216,0
717,-0.035356297725571625,0
718,-0.008905665319362502,0
719,0.019972483465420562,0
720,0.23782690007015037,0
721,3.588095180972455,0
722,6.82070750754404,0
723,-0.5059323982167359,0
724,-1.8258593032912147,0
725,1.4438312671345712,0
726,-0.7731890260782376,0
727,0.16672419465420102,0
728,-0.020048149901642626,0
729,-0.12768778267344752,0
730,0.06982436656659777,0
731,0.006427254961090125,0
732,-0.03577171451851444,0
733,0.007447808227679251,0
734,0.024588936492043367,0
735,0.089553377909638,0
736,0.0741891724421473,0
737,0.033963857946012505,0
738,0.06148875581065753,0
739,-0.027187535377836324,0
740,0.2931192180857628,0
741,3.6255080414863294,0
742,6.917131384611904,0
743,-0.4497739974025119,0
744,-1.8445160433932977,0
745,1.5885521389139368,0
746,-0.7057799275111698,0
747,0.10030495493523653,0
748,0.05624276292460974,0
749,0.005524555590605225,0
750,-0.005270273216040108,0
751,0.049412330922616175,0
752,0.0037497703405599673,0
753,-0.025027643480118135,0
754,-0.006253336728291983,0
755,-0.00011241522066273921,0
756,0.02223545251335922,0
757,-0.07528253389953624,0
758,0.02687271399333233,0
759,0.011420254815111833,0
760,0.25005935029126647,0
761,3.5738484584101764,0
762,6.804064784677503,0
763,-0.442443009708044,0
764,-1.8308370072056388,0
765,1.4703210976115297,0
766,-0.7191294660631655,0
767,0.09848748242306077,0
768,0.104314331210065,0
769,-0.018858926884648478,0
770,0.013408505184786371,0
771,0.09373162505532268,0
772,0.03865614875321399,0
773,0.0184311089794613,0
774,-0.003655340339768512,0
775,-0.06936327706072562,0
776,-0.07494993578712797,0
777,-0.008187198508411037,0
778,0.007946639471923584,0
779,0.038592718680249674,0
780,0.3362504109170607,0
781,3.7410444132255645,0
782,6.887787928251578,0
783,-0.4769781769520544,0
784,-1.8499583026117514,0
785,1.5023798019176091,0
786,-0.7716606851534906,0
787,0.13318447443468096,0
788,0.014137875155674101,0
789,-0.04737582601952297,0
790,0.06011715578226161,0
791,0.044164011936475636,0
792,0.012425540667476911,0
793,0.07922320798844339,0
794,-0.03691335161978736,0
795,-0.05073280978786599,0
796,-0.09763831791976144,0
797,-0.02265049530872289,0
798,0.02667404612837523,0
799,0.015656049026905764,0
800,0.24541730897488384,0
801,3.6184596206291264,0
802,6.8638656772877,0
803,-0.41048431597152046,0
804,-1.8573268794192184,0
805,1.5383302423727916,0
806,-0.7244227032484827,0
807,0.06071754189283571,0
808,0.02401668195968891,0
809,-0.03456346087945134,0
810,0.03534870584308439,0
811,-0.084494237396637,0
812,0.039122383521126416,0
813,-0.05345544585686724,0
814,0.00886184835644524,0
815,0.014835981741598116,0
816,0.026108868265120898,0
817,0.06713549674685783,0
818,0.04097386833661007,0
819,0.01173912440573558,0
820,0.3332928516811352,0
821,3.6220208987380347,0
822,6.878946598145639,0
823,-0.4609791959351897,0
824,-1.9184697726590128,0
825,1.4898959054021201,0
826,-0.7774372457705357,0
827,0.09502868240105111,0
828,0.023380129769235456,0
829,0.009899250063215057,0
830,-0.002465655041554153,0
831,-0.06102772618176401,0
832,0.015326694632229888,0
833,-0.10683027982492829,0
834,-0.041519150781532524,0
835,0.03662274372218078,0
836,0.09360946276362733,0
837,0.011805213986014706,0
838,-0.05999969612047412,0
839,0.030574216705821465,0
840,0.3274512242707112,0
841,3.70671224734049,0
842,6.885530439910014,0
843,-0.400896646450802,0
844,-1.8350732685224356,0
845,1.5040350562692018,0
846,-0.6504019704857897,0
847,0.1948075671074997,0
848,0.04106716270981575,0
849,-0.06910242146592167,0
850,0.09074572786165769,0
851,0.06892669713243901,0
852,0.10186732762033313,0
853,0.03747576663064345,0
854,0.03634129019196368,0
855,0.04132212743828815,0
856,0.1300052676507924,0
857,0.011291248402683723,0
858,0.026452894216362256,0
859,0.01272796431397035,0
860,0.3591150364425202,0
861,3.6845849412718614,0
862,6.821388419118331,0
863,-0.500656211106444,0
864,-1.7459639679924035,0
865,1.5817865687531467,0
866,-0.7739407853245575,0
867,0.006940407441055341,0
868,-0.06043768091641789,0
869,-0.08704838029477265,0
870,-0.003844805421749102,0
871,0.008341423242413794,0
872,0.008101917000387517,0
873,-0.04845578791853375,0
874,-0.04698842573962778,0
875,-0.09667656093554744,0
876,0.016428972251793492,0
877,-0.13731525774562256,0
878,-0.006779778175516463,0
879,-0.007289002101712861,0
880,0.30187249874695987,0
881,3.6289293420697533,0
882,6.828151254582697,0
883,-0.49667881306314027,0
884,-1.814081351444337,0
885,1.4967757079236437,0
886,-0.7017798723240383,0
887,0.14834584447620533,0
888,0.04732654339920572,0
889,-0.12611070314721068,0
890,0.11473273477915917,0
891,0.05542133124760486,0
892,0.06790687027056752,0
893,0.02646740706698511,0
894,-0.007604829043648545,0
895,-0.014525682260340352,0
896,-0.11268792183162302,0
897,-0.08835342580579936,0
898,-0.00864917522170906,0
899,-0.03776948420634238,0
900,0.33924749346792227,0
901,3.615428273567859,0
902,6.700940178575185,0
903,-0.5434431057919948,0
904,-1.8440834908438057,0
905,1.524835159970383,0
906,-0.7660105541343664,0
907,0.1542341510721457,0
908,-0.02996817553989472,0
909,-0.16125625557214346,0
910,-0.059473029601368084,0
911,0.08292629884608514,0
912,0.028780800793382588,0
913,-0.012562118348235079,0
914,0.07081083245753292,0
915,-0.07629171191800455,0
916,-0.05149057742546868,0
917,-0.004471494008858032,0
918,-0.017852849342107607,0
919,-0.011167406204145153,0
920,0.34063165773467974,0
921,3.650556630107041,0
922,6.88547627930877,0
923,-0.5246443229246207,0
924,-1.757717279939285,0
925,1.4924732621251533,0
926,-0.7327575285076973,0
927,0.1826245181800159,0
928,-0.06348883778388197,0
929,0.033852389734665755,0
930,-0.04081128688973429,0
931,-0.0009473863051362631,0
932,-0.0026877769435694485,0
933,0.06766574552513208,0
934,-0.055455271792310225,0
935,-0.029610309112644104,0
936,-0.04145107344035953,0
937,0.0018383370221205023,0
938,0.02230809112545276,0
939,-0.022216611666326422,0
940,0.21002151551392417,0
941,3.526330764209084,0
942,6.640595045268688,0
943,-0.5308361367097885,0
944,-1.7938823267398094,0
945,1.4554377062376724,0
946,-0.749533112169401,0
947,0.1265898665298277,0
948,-0.053114350439728474,0
949,-0.1901272617446075,0
950,0.06627632689040965,0
951,-0.047089202366155464,0
952,-0.06663483911533662,0
953,-0.033952584538205884,0
954,-0.04526249306078852,0
955,-0.01711546161077333,0
956,0.015732961142968335,0
957,-0.06455970357074761,0
958,0.012907953767756802,0
959,0.054651347408696906,0
960,0.210592014040982,0
961,3.691990697100341,0
962,6.840657308592574,0
963,-0.4962229712105793,0
964,-1.7539050773086626,0
965,1.4819472721304345,0
966,-0.7568598076145255,0
967,0.09932140859126468,0
968,-0.034897999134717014,0
969,-0.06454952156659476,0
970,0.012947929099155596,0
971,0.01688445132179351,0
972,-0.056316156339190106,0
973,0.0015848512490687916,0
974,-0.024243874869850083,0
975,0.05842190038641775,0
976,-0.04361003103653828,0
977,0.07545574199706809,0
978,0.06014366073926357,0
979,-0.0813682395129886,0
980,0.23402116030438158,0
981,3.6315637250945905,0
982,6.816047018763711,0
983,-0.5019785606362126,0
984,-1.7677138440420452,0
985,1.450317839796737,0
986,-0.7604935736037644,0
987,0.10232931227361432,0
988,-0.10174307096195154,0
989,-0.05966074852427777,0
990,-0.0415064093669419,0
991,-0.04939431066273948,0
992,0.036875986094627417,0
993,-0.07393407712859547,0
994,-0.08098926523354211,0
995,-0.04727848931735957,0
996,-0.02190748246878344,0
997,-0.053688784976916606,0
998,-0.045349556942767655,0
999,-0.07261248618832696,0
1000,0.09096247855709177,0
1001,3.5399009611147245,0
1002,6.757461573375507,0
1003,-0.5695252051757546,0
1004,-1.9252287040682157,0
1005,1.5766970290986593,0
1006,-0.7233226617878972,0
1007,0.12872081854317757,0
1008,-0.07107703480917794,0
1009,-0.11220780794057233,0
1010,-0.08812618419512039,0
1011,-0.10810813892813942,0
1012,-0.07713946293997515,0
1013,-0.12671867716721633,0
1014,-0.029193103001919667,0
1015,-0.06483550368507492,0
1016,-0.0059812756552258695,0
1017,-0.011953694863491264,0
1018,-0.02750751433693087,0
1019,0.06312822946492361,0
1020,0.2908123928715468,0
1021,3.6488829501972555,0
1022,6.760370406960406,0
1023,-0.5553992798699634,0
1024,-1.8475944613253366,0
1025,1.5678508233348865,0
1026,-0.6984200377830444,0
1027,0.08687469429046284,0
1028,0.06624969385593486,0
1029,-0.03641469284819254,0
1030,0.0447241964979069,0
1031,-0.01974628625921045,0
1032,0.008415690008793685,0
1033,-0.0507606543231691,0
1034,-0.08222170590860214,0
1035,-0.0763850964207537,0
1036,-0.049830677205853276,0
1037,-0.0723145333105881,0
1038,-0.03842776052749457,0
1039,-0.0800705902180688,0
1040,0.2633059350626321,0
1041,3.4659378688933926,0
1042,6.570267988521912,0
1043,-0.5417830165617742,0
1044,-1.880532598179986,0
1045,1.44741593657732,0
1046,-0.9249893847024309,0
1047,0.11697454480422724,0
1048,-0.046138386102722195,0
1049,-0.1158739836877987,0
1050,0.026150414442126197,0
1051,-0.09488687461930871,0
1052,-0.02278561330825734,0
1053,-0.01404426734002888,0
1054,-0.0021184981105552454,0
1055,0.09093734467929832,0
1056,-0.004818066205865008,0
1057,0.08649357006754832,0
1058,0.05979152220498843,0
1059,0.0003928853646756672,0
1060,0.2286818447178508,0
1061,3.540451732668548,0
1062,6.825558116351892,0
1063,-0.6078598081151716,0
1064,-1.8722379662036914,0
1065,1.558188124928361,0
1066,-0.7644336440259799,0
1067,0.07303198681492715,0
1068,-0.09533709140097135,0
1069,-0.06991171978875713,0
1070,-0.04990026942825253,0
1071,0.04236207739898266,0
1072,0.08630073483895098,0
1073,0.044097998550171144,0
1074,-0.0714039540678121,0
1075,0.10878846990465815,0
1076,-0.05093563670687142,0
1077,-0.04249495037517807,0
1078,-0.01824751114335812,0
1079,0.04064837081076328,0
1080,0.26536389861528614,0
1081,3.615556692354462,0
1082,6.848103374683849,0
1083,-0.6134879813903726,0
1084,-1.8976572453850824,0
1085,1.5287823950660808,0
1086,-0.8230565442695512,0
1087,0.14090909402823193,0
1088,-0.04044276765829134,0
1089,-0.15910744408092636,0
1090,-0.022257040014503796,0
1091,0.056091418149975,0
1092,-0.04250187644501753,0
1093,-0.027465269238400657,0
1094,-0.02296899954934928,0
1095,-0.0999127792490493,0
1096,-0.08441353098448459,0
1097,-0.033189285679713076,0
1098,0.027632871433995843,0
1099,-0.04019109985813171,0
1100,0.35197040545986913,0
1101,3.618207242739016,0
1102,6.7701414773390365,0
1103,-0.6359101197663237,0
1104,-1.8443935308783699,0
1105,1.3898896827824392,0
1106,-0.7589391114619919,0
1107,0.131374808950193,0
1108,-0.015901240363989558,0
1109,-0.04948758277726479,0
1110,-0.06481939150674607,0
1111,0.013407148773179431,0
1112,0.07739285457573279,0
1113,-0.037250836201476206,0
1114,0.006633877579381187,0
1115,-0.04007910080825995,0
1116,0.0501293880421696,0
1117,0.03129353490428778,0
1118,0.06904651458980557,0
1119,0.1718792510076931,0
1120,0.39255102546259,0
1121,3.667734775270943,0
1122,6.826317969753828,0
1123,-0.46426683271736335,0
1124,-1.744759741975181,0
1125,1.6063820034784877,0
1126,-0.7753478994633636,0
1127,0.11669479131275584,0
1128,-0.013883435025686936,0
1129,-0.11018755482136108,0
1130,0.02262201723597347,0
1131,0.020232944981114075,0
1132,-0.01298678907990169,0
1133,-0.01031073522947205,0
1134,-0.014795546812393198,0
1135,-0.0820953460755249,0
1136,-0.06496723231756343,0
1137,-0.031056197728361004,0
1138,0.10550939244035214,0
1139,0.025556493203808775,0
1140,0.27177131128953314,0
1141,3.7254705068464795,0
1142,6.878742406810408,0
1143,-0.5799862592196458,0
1144,-1.7200969415212217,0
1145,1.5993678456828935,0
1146,-0.6993092332330214,0
1147,0.129498289681192,0
1148,0.09702381097578137,0
1149,-0.03500934125436765,0
1150,0.06890460583412754,0
1151,0.006924579513640238,0
1152,0.008305140074455243,0
1153,0.12284882225468216,0
1154,-0.021862415007174625,0
1155,0.05080434815279099,0
1156,0.01962916585788135,0
1157,0.06116069336247504,0
1158,-0.06737832515643948,0
1159,-0.018747520110244862,0
1160,0.21786647351149474,0
1161,3.6963043585394604,0
1162,6.757882426488792,0
1163,-0.6823698210209269,0
1164,-1.7699512592203757,0
1165,1.5084866558454562,0
1166,-0.7297630546129945,0
1167,0.1872893239730269,0
1168,0.05972651442640864,0
1169,0.023139485667925605,0
1170,0.013797973182566106,0
1171,0.05333709203973141,0
1172,0.030918809743110478,0
1173,0.007676256983213298,0
1174,-0.02905898202076748,0
1175,0.05111854371580474,0
1176,0.10634083665864211,0
1177,-0.016930429205301536,0
1178,0.014852363920092274,0
1179,0.00816360696022162,0
1180,0.37258622007098197,0
1181,3.776326685412875,0
1182,6.818461929093732,0
1183,-0.5945185101007864,0
1184,-1.7845297929090294,0
1185,1.5582101690928143,0
1186,-0.7144337565772334,0
1187,0.18104148417227345,0
1188,0.12090809843319304,0
1189,0.11844123963265338,0
1190,0.06424908403061674,0
1191,0.09003336387215048,0
1192,0.17537286278173592,0
1193,0.12039930555390833,0
1194,0.07641793729678181,0
1195,0.054456668803378794,0
1196,0.10781575862874372,0
1197,0.00010048087720894439,0
1198,0.07263328394599208,0
1199,0.023592753720333308,0
1200,0.4016307390386724,0
1201,3.714320024104571,0
1202,6.835049951580217,0
1203,-0.535480959875593,0
1204,-1.7330922175949812,0
1205,1.5197983517950335,0
1206,-0.6938988681206029,0
1207,0.10231603361624797,0
1208,0.09825662809296008,0
1209,0.030201988156602994,0
1210,0.06188443201374584,0
1211,0.15617396859287264,0
1212,0.13269195509384218,0
1213,0.06716762988297541,0
1214,0.09311824580611938,0
1215,-0.07140421718916315,0
1216,0.12682568675773495,0
1217,0.03360251698278141,0
1218,0.07677059191114108,0
1219,0.0888849438770434,0
1220,0.3197933376459247,0
1221,3.854576795017908,0
1222,6.786501505045933,0
1223,-0.5566848816680505,0
1224,-1.7347039159310536,0
1225,1.4589808913838427,0
1226,-0.7257189450502519,0
1227,0.18620200619711996,0
1228,0.0336802932561331,0
1229,-0.06958186994018889,0
1230,0.12028812113140093,0
1231,0.05560196267348455,0
1232,0.07069666536548162,0
1233,-0.10581065257243241,0
1234,0.03724595834457694,0
1235,-0.010363203815469166,0
1236,0.11891634644586056,0
1237,0.08212295087426597,0
1238,0.10044658634055036,0
1239,0.031561459946087854,0
1240,0.39063486758299953,0
1241,3.6905840009098108,0
1242,6.792694720578031,0
1243,-0.5293081638329794,0
1244,-1.7288976364845994,0
1245,1.6062541018855776,0
1246,-0.6560236400873392,0
1247,0.09947076685655387,0
1248,0.05182091545016398,0
1249,-0.0338466375738912,0
1250,0.10252372608329134,0
1251,0.10846554154841237,0
1252,-0.01808331441830069,0
1253,0.027076040238295795,0
1254,0.09236080017711255,0
1255,0.007658231385617158,0
1256,0.1113787416810311,0
1257,-0.019433013836459928,0
1258,0.04276963010001796,0
1259,0.09623944922440669,0
1260,0.4113295482038712,0
1261,3.753885064883102,0
1262,6.906581767320837,0
1263,-0.5419611747339855,0
1264,-1.7506583149390667,0
1265,1.5591366845840389,0
1266,-0.7230720294621432,0
1267,0.3135624548632944,0
1268,0.05855713878985325,0
1269,0.07951756048914844,0
1270,0.04566294153958986,0
1271,0.07199702847829856,0
1272,0.1041202462151832,0
1273,0.12949225664295932,0
1274,0.03580932897196476,0
1275,0.08083207358434268,0
1276,0.05691576207370696,0
1277,0.17121014979454943,0
1278,0.13110915835627268,0
1279,0.1446685804329163,0
1280,0.3242621211645818,0
1281,3.7700097894171605,0
1282,6.934464395457445,0
1283,-0.5829297732034532,0
1284,-1.6139850205312867,0
1285,1.5960494348155883,0
1286,-0.6906592487853712,0
1287,0.27169176994992983,0
1288,0.13472473620535996,0
1289,-0.028929578079698894,0
1290,0.07440066857901104,0
1291,0.0033556947986289037,0
1292,0.07270215546811776,0
1293,-0.011337534668572562,0
1294,0.017091565309112745,0
1295,0.05441347908778701,0
1296,-0.05086103011422707,0
1297,-0.0030043143309504035,0
1298,0.030686251621910878,0
1299,-0.009820132443347392,0
1300,0.3672882619205046,0
1301,3.7902869602965548,0
1302,6.935667979153861,0
1303,-0.5585869395372032,0
1304,-1.7317808495974596,0
1305,1.6293109827974759,0
1306,-0.7126324582441644,0
1307,0.16902851113706022,0
1308,-0.061210504066085,0
1309,-0.10721355541297381,0
1310,0.03176359050263175,0
1311,0.07119495643526447,0
1312,-0.07984588111133772,0
1313,-0.03872797170274499,0
1314,0.038414562781568684,0
1315,0.02747456620269185,0
1316,0.03286141547454718,0
1317,0.0013334448944627136,0
1318,-0.031322519211459565,0
1319,-0.03991112392352404,0
1320,0.28983317111293844,0
1321,3.7638947844357977,0
1322,6.7271034704640735,0
1323,-0.6070745677804289,0
1324,-1.6762492444884287,0
1325,1.5214622242287619,0
1326,-0.775094253805795,0
1327,0.20319349263490138,0
1328,0.04401916650337194,0
1329,-0.07956777355348504,0
1330,-0.014926990060332351,0
1331,0.07992094584432308,0
1332,0.03942326851973085,0
1333,0.037721468129271886,0
1334,0.0732850923212936,0
1335,-0.022238871917567064,0
1336,0.06899585396420077,0
1337,0.10398484226203167,0
1338,0.0935690132092181,0
1339,0.009802281281965544,0
1340,0.2849524212575759,0
1341,3.746318615018841,0
1342,6.855502359284526,0
1343,-0.5744430672722655,0
1344,-1.7049127562719089,0
1345,1.5504219761815798,0
1346,-0.7077717130129564,0
1347,0.20542830359536696,0
1348,-0.02446102714754641,0
1349,0.05018714574097531,0
1350,0.10494620565315256,0
1351,0.09159920432555924,0
1352,-0.03789582423692779,0
1353,0.029279716419674258,0
1354,-0.012072685099002424,0
1355,-0.042730605892508516,0
1356,0.1290578347037583,0
1357,0.04095522083060017,0
1358,0.1027869237924281,0
1359,0.07479358669170241,0
1360,0.34399446356853675,0
1361,3.8426529857876397,0
1362,6.802272399992448,0
1363,-0.6044072349975501,0
1364,-1.7075069078056064,0
1365,1.5685443985220082,0
1366,-0.7305340109922881,0
1367,0.09633267803838289,0
1368,0.04561025349658103,0
1369,-0.08621545218154984,0
1370,-0.04407966963985145,0
1371,-0.03483279124939724,0
1372,-0.09470336974368436,0
1373,0.03433566901787241,0
1374,-0.043165230258413345,0
1375,-0.06173219445780145,0
1376,-0.08356651911795701,0
1377,0.020708482795388276,0
1378,-0.021207978243324557,0
1379,-0.015835835141568756,0
1380,0.3283982116994189,0
1381,3.7737486800651174,0
1382,6.877399716330251,0
1383,-0.591755143212781,0
1384,-1.698292696219508,0
1385,1.5185866810257187,0
1386,-0.7426623320755203,0
1387,0.2165596416496561,0
1388,0.017954813173159972,0
1389,-0.02529069107039469,0
1390,0.0712156292051834,0
1391,0.028456317817047445,0
1392,0.005619144681322949,0
1393,0.008018546767140158,0
1394,0.07833978011903014,0
1395,-0.08026320347626585,0
1396,-0.049771385185191815,0
1397,0.032412195184934676,0
1398,-7.797209187940593e-05,0
1399,0.013778915607644208,0
1400,0.3308431705983275,0
1401,3.677723700757211,0
1402,6.705508681420165,0
1403,-0.6981761923565202,0
1404,-1.8199989310192297,0
1405,1.4640442015197725,0
1406,-0.8155945441448459,0
1407,0.042731106845711936,0
1408,-0.038555051942352286,0
1409,-0.08550421507950547,0
1410,-0.03415130737066709,0
1411,-0.026641653672004814,0
1412,-0.03618723094285945,0
1413,0.029905444061256895,0
1414,-0.0723923486976314,0
1415,0.04381969271018524,0
1416,-0.07162412881595283,0
1417,-0.04038313349543537,0
1418,-0.1226665816818701,0
1419,-0.04302326850421486,0
1420,0.26722967126684805,0
1421,3.7378307086673934,0
1422,6.7050153026069585,0
1423,-0.6760631336919071,0
1424,-1.788155973404642,0
1425,1.5293813958144664,0
1426,-0.7928360319433003,0
1427,0.17977361212835308,0
1428,0.027214492319270252,0
1429,-0.01980524876351645,0
1430,0.07267255642559649,0
1431,-0.01410476412299836,0
1432,-0.10197145580134728,0
1433,-0.08544142044342282,0
1434,0.047500702268678335,0
1435,0.08225064210589432,0
1436,0.06484346325639981,0
1437,-0.009750966403558554,0
1438,-0.05337844481820572,0
1439,0.0436856304898568,0
1440,0.3194495564740064,0
1441,3.833538370876634,0
1442,6.86469353167462,0
1443,-0.5639371855280537,0
1444,-1.6560243430130281,0
1445,1.5096726879074707,0
1446,-0.7904294201967407,0
1447,0.18710754478047625,0
1448,-0.0011295899385755787,0
1449,-0.025492051401737582,0
1450,0.030075819746093392,0
1451,0.0541027954289115,0
1452,0.01383359469325908,0
1453,-0.005592840342510744,0
1454,0.02624018128987736,0
1455,0.10960390441144323,0
1456,-0.04304570025265031,0
1457,0.009725111763403935,0
1458,-0.04505036252948589,0
1459,-0.03354049660262518,0
1460,0.41054580477921987,0
1461,3.765597741903733,0
1462,6.817422379637345,0
1463,-0.634011463301342,0
1464,-1.7725705100878406,0
1465,1.53273478583743,0
1466,-0.6898769380570465,0
1467,0.20242387022179026,0
1468,0.017416580549304887,0
1469,-0.06820201204110939,0
1470,0.029847667072516914,0
1471,-0.16804001946950392,0
1472,-0.005678830031039223,0
1473,-0.036856518092202604,0
1474,-0.08383986152490866,0
1475,-0.04134574342774728,0
1476,0.08471507787031007,0
1477,-0.04085495225615948,0
1478,-0.055081113500973417,0
1479,0.09738511468193524,0
1480,0.44542579466728777,0
1481,3.7674913699753114,0
1482,6.805890828043419,0
1483,-0.6608670853440727,0
1484,-1.7038215004969761,0
1485,1.5175755623455032,0
1486,-0.7435632766520124,0
1487,0.22121689176644962,0
1488,0.02867587823109989,0
1489,-0.10856463314566783,0
1490,0.10111066172937239,0
1491,-0.011757604635445128,0
1492,0.0332383242120669,0
1493,0.013181388162231706,0
1494,0.0488836827966473,0
1495,0.045036040977744815,0
1496,-0.014854558760170394,0
1497,0.08923924780705661,0
1498,0.08112927558981595,0
1499,-0.009183180198010996,0
1500,0.2846092565050921,0
1501,3.8471176433397773,0
1502,6.7048486437429435,0
1503,-0.6472602126249744,0
1504,-1.6495800548888262,0
1505,1.5181712493894186,0
1506,-0.8169127745078699,0
1507,0.19449602869178775,0
1508,0.055414689110540184,0
1509,-0.06786811470739537,0
1510,0.12466385550295589,0
1511,-0.009514711163216092,0
1512,0.019990251385663946,0
1513,-0.0068481878059679455,0
1514,0.040483545270409475,0
1515,-0.03704639891835149,0
1516,-0.01989565431505947,0
1517,-0.043311376007608926,0
1518,0.08227717076302979,0
1519,-0.05841805045283285,0
1520,0.28214320461657627,0
1521,3.8116124072723485,0
1522,6.78947043701427,0
1523,-0.6947293019881474,0
1524,-1.7481518980078792,0
1525,1.6276468053026363,0
1526,-0.7700301972660293,0
1527,0.12576582622130583,0
1528,-0.08247002973495358,0
1529,-0.01453467359883773,0
1530,0.042832648185065,0
1531,0.008427719926770862,0
1532,0.11568302736467896,0
1533,0.08119343843345854,0
1534,0.007746393111383813,0
1535,0.07000825391572102,0
1536,-0.060794405997857244,0
1537,-0.01888414448458748,0
1538,-0.014987624832803447,0
1539,-0.0637036196856191,0
1540,0.39478921499443137,0
1541,3.8371950262780494,0
1542,6.843489394210538,0
1543,-0.6580866205665026,0
1544,-1.698936507992171,0
1545,1.5017074582622871,0
1546,-0.8528150071431341,0
1547,0.15037222428186278,0
1548,0.07924383998810719,0
1549,-0.05281984600184347,0
1550,0.014653851117573932,0
1551,0.11610649383908966,0
1552,-0.04003213587964996,0
1553,0.07040142627447332,0
1554,0.039740082462552895,0
1555,-0.0470147729582504,0
1556,0.13849457175784985,0
1557,0.021943191254821408,0
1558,0.04637265606520888,0
1559,0.047465616456664306,0
1560,0.4560775034168816,0
1561,3.6788111800099745,0
1562,6.837095182640397,0
1563,-0.689739936676605,0
1564,-1.7665126881211934,0
1565,1.4849333909586637,0
1566,-0.7383597498722054,0
1567,0.13846293713760208,0
1568,-0.018965531659271388,0
1569,0.014841922903456366,0
1570,0.00578432113532556,0
1571,0.013453733020195736,0
1572,-0.0164948100887271,0
1573,0.009701676943812519,0
1574,-0.02719008860750616,0
1575,0.026854700613617822,0
1576,-0.07179622628439179,0
1577,0.05622765119603357,0
1578,0.0002232997962238999,0
1579,0.0466664789840417,0
1580,0.4205420486743697,0
1581,3.836483107136937,0
1582,6.8238179820947815,0
1583,-0.6354274005669289,0
1584,-1.690811333406638,0
1585,1.4579134937108273,0
1586,-0.8225174643396621,0
1587,0.19847498721262993,0
1588,0.10545395439970501,0
1589,0.08107242335326287,0
1590,0.06730660904473541,0
1591,0.031110596226422628,0
1592,0.033614518172519,0
1593,0.02113103386393403,0
1594,0.1299291329539064,0
1595,0.025577104705402844,0
1596,0.01935447901928865,0
1597,-0.10713648101677946,0
1598,-0.04059203955427764,0
1599,-0.03693195785848752,0
1600,0.38973937760119065,0
1601,3.713806174448183,0
1602,6.70926238201419,0
1603,-0.5946129153705789,0
1604,-1.837798401034635,0
1605,1.5333902223114309,0
1606,-0.712444978223205,0
1607,0.18693005205707408,0
1608,0.08332218283699874,0
1609,-0.049152682036807734,0
1610,0.08508860245895117,0
1611,0.05098649650684574,0
1612,0.027927096581542993,0
1613,0.03532016209444374,0
1614,0.14849810858473678,0
1615,0.10233347174308836,0
1616,0.04632498837867298,0
1617,0.007146107587208045,0
1618,0.0969304166241907,0
1619,0.09333094616352636,0
1620,0.32580768949355776,0
1621,3.8796521868721108,0
1622,6.830170665627292,0
1623,-0.6385169511657048,0
1624,-1.7311194829115635,0
1625,1.5235890919859234,0
1626,-0.7238804490306071,0
1627,0.3512297800869782,0
1628,-0.04714878907884033,0
1629,0.06916183254710992,0
1630,-0.010836086825690441,0
1631,0.03854018339329299,0
1632,0.04596044024073099,0
1633,0.075660917282831,0
1634,0.06256927557680042,0
1635,0.14515174330485542,0
1636,0.05766971582092692,0
1637,0.05888744765503428,0
1638,0.07568149765602632,0
1639,0.12411730730885324,0
1640,0.42546843507686666,0
1641,3.973598756587076,0
1642,6.821647730460562,0
1643,-0.6778641336934307,0
1644,-1.7101950694833221,0
1645,1.559225988734191,0
1646,-0.7108033820432519,0
1647,0.21580729511006308,0
1648,0.05932585127077578,0
1649,-0.019228366606559952,0
1650,0.13816070637683664,0
1651,0.1778003373094466,0
1652,0.030637440550216992,0
1653,0.01803964505874457,0
1654,0.15026778157409132,0
1655,0.03310057056830794,0
1656,0.05248943102750375,0
1657,0.12258079228125704,0
1658,0.16539030391550708,0
1659,0.07034144690920473,0
1660,0.4331687037653851,0
1661,3.809464679966558,0
1662,6.837024657145092,0
1663,-0.5654720426902387,0
1664,-1.6217490632004106,0
1665,1.5584363148233233,0
1666,-0.726486682779843,0
1667,0.22915510124982702,0
1668,-0.020309307616372868,0
1669,-0.001220322908118748,0
1670,0.10020629112492092,0
1671,-0.016041504690416677,0
1672,0.03063521962330162,0
1673,0.06249995329824516,0
1674,0.015902335637146863,0
1675,0.0642886820875195,0
1676,0.028084690119760898,0
1677,0.08887576454359356,0
1678,0.01120328289327633,0
1679,0.0814820478319931,0
1680,0.4734514880386215,0
1681,3.887011673360399,0
1682,6.813446449210477,0
1683,-0.7779524500576694,0
1684,-1.6102505177114659,0
1685,1.673932109125218,0
1686,-0.7416594897373624,0
1687,0.2542925320701077,0
1688,0.046978348074015644,0
1689,0.03704015882017153,0
1690,0.060261067175597025,0
1691,0.10953652556263913,0
1692,0.14933807871609167,0
1693,0.08810913548850567,0
1694,0.10155488254974347,0
1695,0.06487392935001396,0
1696,0.08930409791507994,0
1697,0.09402758746001771,0
1698,0.08090302345543735,0
1699,0.09647193583643579,0
1700,0.3946106920971338,0
1701,3.8761496334497174,0
1702,6.830629717859722,0
1703,-0.5733038894209188,0
1704,-1.5814961475998883,0
1705,1.5684362498939683,0
1706,-0.6720534122466814,0
1707,0.30293993888739135,0
1708,0.1232615440128217,0
1709,0.019845225093670663,0
1710,0.09373047080682415,0
1711,0.13930876282016452,0
1712,0.043011754422414,0
1713,0.13916193745917851,0
1714,0.058505557343230485,0
1715,0.1374427896231172,0
1716,0.12527890362257718,0
1717,0.14411965907616653,0
1718,0.044060724228943506,0
1719,0.09747107545252372,0
1720,0.5014940366072826,0
1721,3.900093814657842,0
1722,6.867229611374395,0
1723,-0.5350349682691945,0
1724,-1.6064823511770099,0
1725,1.573675699219965,0
1726,-0.6356166373248082,0
1727,0.32493430502146375,0
1728,0.019571130727505673,0
1729,0.11847717511897714,0
1730,0.11525230244223596,0
1731,0.06857407106893057,0
1732,-0.009963672445792243,0
1733,0.03485484556375355,0
1734,-0.03056340885800974,0
1735,-0.07671878506041026,0
1736,-0.06175665323565211,0
1737,-0.018555136334677702,0
1738,0.08377786294123782,0
1739,-8.036881220864836e-06,0
1740,0.3800976805137951,0
1741,3.7383568470036495,0
1742,6.792342476938101,0
1743,-0.721426970647859,0
1744,-1.632711762987451,0
1745,1.493499834786731,0
1746,-0.7856322546606056,0
1747,0.23505113427306867,0
1748,-0.0019621783840584484,0
1749,-0.15002784194040603,0
1750,0.02684385935264927,0
1751,0.02138283474436742,0
1752,-0.03363978775816863,0
1753,-0.05689089304600822,0
1754,0.009844768081798128,0
1755,-0.019423888358190734,0
1756,0.030233054125282897,0
1757,0.05770054927517424,0
1758,-0.023971618612467577,0
1759,0.08452370841384083,0
1760,0.33886751214059574,0
1761,3.757320219051738,0
1762,6.6714782554127074,0
1763,-0.7578336889420129,0
1764,-1.728447447695097,0
1765,1.5539594884806185,0
1766,-0.7478108981025351,0
1767,0.1671307512759886,0
1768,0.000269596787029841,0
1769,-0.005764765276596879,0
1770,-0.07726254868745705,0
1771,-0.03634443473539621,0
1772,0.07863589348923694,0
1773,-0.01706783649386684,0
1774,0.005306940701962361,0
1775,-0.011383460033664038,0
1776,-0.11957159614312793,0
1777,-0.01848297864204264,0
1778,-0.006385196770530229,0
1779,-0.07860290655479385,0
1780,0.32846240182794684,0
1781,3.8067412589024165,0
1782,6.592460746566107,0
1783,-0.7769606525690139,0
1784,-1.7081453831099611,0
1785,1.557078630580081,0
1786,-0.8813639304716256,0
1787,0.15699784495011612,0
1788,-0.013943368063120548,0
1789,-0.06356468214582596,0
1790,0.0400779085810533,0
1791,0.013849958673516965,0
1792,-0.04993208513562706,0
1793,0.03810676172862408,0
1794,0.019225669177935466,0
1795,-0.01507048119255347,0
1796,0.05831243847297367,0
1797,0.029430505530755872,0
1798,-0.028511398029105822,0
1799,0.004799032864180613,0
1800,0.4062638222142111,0
1801,3.872556039685585,0
1802,6.725136967405787,0
1803,-0.8081534478303909,0
1804,-1.5970190416566468,0
1805,1.491264751841168,0
1806,-0.7228680966265252,0
1807,0.12821687930188613,0
1808,-0.08184893034120405,0
1809,-0.03620103930161771,0
1810,0.05412242980114357,0
1811,-0.013123824872184286,0
1812,-0.046335584378562965,0
1813,-0.12255077515676892,0
1814,-0.058010123876101834,0
1815,-0.045553479777184505,0
1816,-0.02589765427449022,0
1817,-0.039732651987171935,0
1818,-0.12629966480490334,0
1819,-0.05715843853936759,0
1820,0.2770848897013171,0
1821,3.713677929144111,0
1822,6.668621639109823,0
1823,-0.7341897657698324,0
1824,-1.7132979409113644,0
1825,1.4130996855702886,0
1826,-0.8300130770288321,0
1827,0.040357002960759794,0
1828,0.025999346568258933,0
1829,-0.1129960774138743,0
1830,-0.025353330063336704,0
1831,-0.06762106434373355,0
1832,0.0228707571729534,0
1833,-0.07618355514553535,0
1834,-0.01750323007157316,0
1835,-0.06986399893127244,0
1836,0.05498644008235004,0
1837,-0.015840556190571852,0
1838,-0.010037547642920051,0
1839,0.08060838274242513,0
1840,0.36247576412999954,0
1841,3.8968605341672506,0
1842,6.765478812748127,0
1843,-0.6232678249443766,0
1844,-1.5761286593396027,0
1845,1.5535607805182774,0
1846,-0.7281257792809246,0
1847,0.18246467705389277,0
1848,-0.028315434101768514,0
1849,0.030351776557677568,0
1850,-0.05510248720732708,0
1851,-0.13065590377369804,0
1852,-0.0026969489587211695,0
1853,-0.03709603193461893,0
1854,-0.0714548316304658,0
1855,-0.13273384637486296,0
1856,-0.09251607160842695,0
1857,-0.0774937494783349,0
1858,-0.030163832698194806,0
1859,0.005276579490927268,0
1860,0.2627419863023694,0
1861,3.766216031062351,0
1862,6.759032821095861,0
1863,-0.8454836372548912,0
1864,-1.6179903176500654,0
1865,1.3892877249608104,0
1866,-0.7913029513441312,0
1867,0.13919978461142876,0
1868,0.04598668423526036,0
1869,-0.10851425674254753,0
1870,0.029620800745627677,0
1871,-0.02375524758373568,0
1872,0.007221725611178353,0
1873,-0.04118141449123412,0
1874,-0.02200798089443718,0
1875,-0.04106151935776861,0
1876,-0.052523646938742924,0
1877,-0.11236948014701004,0
1878,-0.06218344264684413,0
1879,-0.1096232816144922,0
1880,0.3301256989852942,0
1881,3.866137394207016,0
1882,6.715395544872913,0
1883,-0.8125767250177974,0
1884,-1.7411025942946983,0
1885,1.414975173926262,0
1886,-0.7923682453511708,0
1887,0.13192526686962444,0
1888,0.024744912264090917,0
1889,-0.017749482467203828,0
1890,-0.03888095685807585,0
1891,-0.027300869954794874,0
1892,-0.04948390753226992,0
1893,-0.06486148148275812,0
1894,-0.016548551391280898,0
1895,0.033338514292493966,0
1896,-0.009190740736758386,0
1897,-0.044282471016252704,0
1898,-0.033955521744904134,0
1899,0.022265534741730205,0
1900,0.33105446678484707,0
1901,3.8245065929912747,0
1902,6.841958539323426,0
1903,-0.6531265048998288,0
1904,-1.6498587061309953,0
1905,1.5166628140141456,0
1906,-0.7137283637311476,0
1907,0.12590801754207223,0
1908,0.02893190337748908,0
1909,0.049559009519105045,0
1910,0.03017964496152195,0
1911,-0.009273004211637268,0
1912,-0.05572573166260859,0
1913,-0.0849742952006082,0
1914,0.08497797836287735,0
1915,-0.06840128226425232,0
1916,0.03374225263812272,0
1917,-0.004466055084470339,0
1918,-0.05192632734897316,0
1919,-0.00034157750677283466,0
1920,0.2853556000059142,0
1921,3.842050734599382,0
1922,6.666292031235627,0
1923,-0.7053552781409723,0
1924,-1.7013854787488099,0
1925,1.499949422392543,0
1926,-0.8077262381192292,0
1927,0.20212988899714002,0
1928,-0.05772722826148424,0
1929,-0.0008531590356917335,0
1930,-0.08390532625608084,0
1931,-0.03311478505555347,0
1932,0.04273953300860235,0
1933,0.06715074673196833,0
1934,-0.02771782189894466,0
1935,-0.013184960614615496,0
1936,-0.044295922669313384,0
1937,0.08712953106292803,0
1938,-0.011536566086088683,0
1939,0.027953840217687848,0
1940,0.43775665595304275,0
1941,3.7731990132138074,0
1942,6.7786563093213115,0
1943,-0.6452058107582189,0
1944,-1.5710906953131876,0
1945,1.5951138271579246,0
1946,-0.7874744236224899,0
1947,0.2867073143906579,0
1948,0.004579525235036609,0
1949,0.04407717801962022,0
1950,0.08906835579192315,0
1951,0.019537822076162826,0
1952,-0.005594222766857913,0
1953,0.05760299606909473,0
1954,-0.009467523540150364,0
1955,-0.02093081936771431,0
1956,-0.027081340810872524,0
1957,0.0323516612780316,0
1958,0.030635983259764563,0
1959,-0.09196488328382028,0
1960,0.29040756290778635,0
1961,3.8940118656257674,0
1962,6.830415469804298,0
1963,-0.708279850245601,0
1964,-1.5633108675163738,0
1965,1.5149697725172846,0
1966,-0.665407083830967,0
1967,0.20832350853743706,0
1968,0.08721806714125052,0
1969,0.0029702428334481418,0
1970,0.11725750848602619,0
1971,0.07320529426843418,0
1972,0.09801211311160424,0
1973,0.026512005206302487,0
1974,0.01958422897515706,0
1975,0.0016827349318946083,0
1976,0.10549344323448065,0
1977,0.06830179168670418,0
1978,0.05376235821867367,0
1979,0.1418535210151117,0
1980,0.4023219620649966,0
1981,3.938475590419296,0
1982,6.763626757086609,0
1983,-0.8133051705338089,0
1984,-1.530918886093501,0
1985,1.5570550814164887,0
1986,-0.7628197931784928,0
1987,0.2188330524939007,0
1988,-0.09745621077788005,0
1989,0.006556044579834296,0
1990,-0.0007533487622783659,0
1991,0.060049079074020156,0
1992,0.02644828378654543,0
1993,0.06989498931028063,0
1994,-0.0068179259747618865,0
1995,0.03779896924281935,0
1996,-0.042294716118504744,0
1997,-0.03700127803159278,0
1998,0.020827445474841205,0
1999,0.1101927115793133,0
2000,0.35026462211090326,0
2001,3.959063562849151,0
2002,6.761568912746824,0
2003,-0.7156689258734332,0
2004,-1.6537403919699194,0
2005,1.5965240444266102,0
2006,-0.6837594714900925,0
2007,0.26484644605118907,0
2008,-0.003088027673324917,0
2009,0.08325909617603337,0
2010,0.14003489016583143,0
2011,0.027757454531859814,0
2012,0.06197405860822057,0
2013,0.029110633382138037,0
2014,0.08391775809790103,0
2015,0.05761476628772918,0
2016,0.13941505054024225,0
2017,-0.0002887317132057865,0
2018,0.03551233748568965,0
2019,0.11104651479711797,0
2020,0.3070194098419353,0
2021,3.9391410838124967,0
2022,6.7452615802173375,0
2023,-0.8094674558674912,0
2024,-1.5736488004397777,0
2025,1.4782968835069525,0
2026,-0.7990856080763467,0
2027,0.11666520470500329,0
2028,0.09443417290154854,0
2029,0.0007750049576929416,0
2030,-0.014907404233243826,0
2031,0.04840327881494151,0
2032,0.04891996277202608,0
2033,0.032394317308239204,0
2034,0.01611611413303124,0
2035,0.11495090876732861,0
2036,-0.046948614370745385,0
2037,0.052743462508729515,0
2038,0.008899037979776515,0
2039,0.16249973701984832,0
2040,0.44882340889780636,0
2041,3.9156235572351177,0
2042,6.835493307534896,0
2043,-0.7487091036882066,0
2044,-1.5640488822593117,0
2045,1.5465378908545881,0
2046,-0.7990256480772744,0
2047,0.24412258612303944,0
2048,0.07614862197195844,0
2049,-0.06734077057960651,0
2050,0.05081498254197463,0
2051,-0.053806578603653066,0
2052,0.02042184277498254,0
2053,0.08431827972478509,0
2054,-0.027072739309631444,0
2055,0.09005456352354138,0
2056,0.06977382867385952,0
2057,0.03908717769895719,0
2058,-0.02683754946329891,0
2059,0.0799415473188228,0
2060,0.38745216716476005,0
2061,3.936978240955907,0
2062,6.787616560685304,0
2063,-0.723238975687034,0
2064,-1.6766377601969435,0
2065,1.454504969260988,0
2066,-0.7450145809858685,0
2067,0.21570318217343845,0
2068,-0.016031809537640503,0
2069,-0.10101099960548801,0
2070,0.021530385472418898,0
2071,0.03830358820285262,0
2072,0.01854032135014734,0
2073,-0.06948116407909619,0
2074,0.029489473617539626,0
2075,0.04584131467196799,0
2076,0.07966991398185827,0
2077,0.01793918690084744,0
2078,0.011432512098882814,0
2079,0.10871219983881479,0
2080,0.4438862953621864,0
2081,3.944031898737792,0
2082,6.746747306098693,0
2083,-0.7089918747585481,0
2084,-1.5820321047852652,0
2085,1.4132554266355255,0
2086,-0.672921781401325,0
2087,0.15192542136476092,0
2088,0.06348317581842888,0
2089,0.0734309282923626,0
2090,0.08196901971228046,0
2091,0.06689528137726282,0
2092,-0.033257587047298434,0
2093,0.0888782484328618,0
2094,0.057510879532397655,0
2095,-0.023585447765616774,0
2096,0.00724906103227883,0
2097,0.08372769297496355,0
2098,0.052974002363321684,0
2099,0.13271312372861874,0
2100,0.47020469775155516,0
2101,3.964490194302964,0
2102,6.6975505685062675,0
2103,-0.7968825644991357,0
2104,-1.5407183030597267,0
2105,1.5470043365084252,0
2106,-0.7451381277117776,0
2107,0.1743364373368432,0
2108,0.10781400800146948,0
2109,-0.03997905336454826,0
2110,0.038032899691075706,0
2111,0.08170149617910073,0
2112,0.10460199724529337,0
2113,0.035457566818629105,0
2114,-0.01878723827771847,0
2115,0.018423658985397835,0
2116,0.09312010735966929,0
2117,0.11124476859750396,0
2118,0.0724970250917111,0
2119,-0.004850403134911148,0
2120,0.4526710047075705,0
2121,3.932926074010961,0
2122,6.675096070176253,0
2123,-0.6422919107438669,0
2124,-1.6626533498022338,0
2125,1.46544599858926,0
2126,-0.7608136420311811,0
2127,0.2893850027767987,0
2128,0.06875328047668046,0
2129,-0.01018342787176665,0
2130,-0.022629786206893578,0
2131,0.034952129066008295,0
2132,-0.011818220826324426,0
2133,0.08362497010975292,0
2134,0.04104098579853979,0
2135,0.013431775770892919,0
2136,0.02065538595946641,0
2137,-0.042399406290658324,0
2138,0.01770928360177283,0
2139,-0.02549988639286483,0
2140,0.42899977246108284,0
2141,3.8646355920873354,0
2142,6.611364398111288,0
2143,-0.8109853045917269,0
2144,-1.5481949241953417,0
2145,1.5292608275681288,0
2146,-0.8128163401863394,0
2147,0.11881150287787583,0
2148,0.04665798094108792,0
2149,-0.06492031891669488,0
2150,0.11334434715716962,0
2151,0.003034843598105628,0
2152,-0.0044028627668039125,0
2153,-0.05605031664954737,0
2154,-0.03478200408849464,0
2155,0.03495152453187358,0
2156,0.04710957396522744,0
2157,-0.022172662532063393,0
2158,0.04396766459830497,0
2159,0.1217654236472488,0
2160,0.3681203337611962,0
2161,3.9853409718548805,0
2162,6.737669074950818,0
2163,-0.7988681523105925,0
2164,-1.584053987574229,0
2165,1.4802626451344083,0
2166,-0.7457045537386935,0
2167,0.21237214557320128,0
2168,-0.12434719629197548,0
2169,-0.03288750495572154,0
2170,0.0034473461043880104,0
2171,0.004681969835048004,0
2172,-0.06895467795176013,0
2173,-0.11051220120317538,0
2174,-0.03476853756522724,0
2175,-0.06033484788766716,0
2176,-0.08895040918118943,0
2177,-0.03973201592697105,0
2178,-0.04305992676861213,0
2179,-0.1429220135830876,0
2180,0.3066484258928645,0
2181,3.8973399386871095,0
2182,6.658832721325196,0
2183,-0.9401429439830975,0
2184,-1.6778795148800691,0
2185,1.458972103665165,0
2186,-0.7551076887032527,0
2187,0.164914970358752,0
2188,-0.014324664883455698,0
2189,-0.09875877741156147,0
2190,-0.07182455962438763,0
2191,-0.0903230023068993,0
2192,0.06032939622221053,0
2193,-0.02174022700349575,0
2194,-0.05517551050604941,0
2195,-0.02590883780837409,0
2196,-0.10602329388364834,0
2197,-0.035428857146825726,0
2198,0.02212919028747514,0
2199,0.02705400235317903,0
2200,0.3074861355269284,0
2201,3.8671957450866494,0
2202,6.7176678274726545,0
2203,-0.9319649490067655,0
2204,-1.7041440358811464,0
2205,1.4090077525326592,0
2206,-0.808776801188363,0
2207,0.06934398496249827,0
2208,-0.05954079517914042,0
2209,-0.0587936909248664,0
2210,-0.06711029918811438,0
2211,-0.11060430836394125,0
2212,-0.10287147008772544,0
2213,-0.12143626130892993,0
2214,-0.03987426040043871,0
2215,-0.047302599015829075,0
2216,-0.0673071531993143,0
2217,-0.038630873030907315,0
2218,-0.026375572540900963,0
2219,0.07214778903749135,0
2220,0.2854213183950819,0
2221,3.8153587243352085,0
2222,6.660789769836849,0
2223,-0.9238782413022928,0
2224,-1.5802081567218405,0
2225,1.5283580967978998,0
2226,-0.8482199990322848,0
2227,0.23710547433987406,0
2228,0.01723378231439654,0
2229,0.00286712567975176,0
2230,0.0939816144390477,0
2231,0.04070722138935597,0
2232,-0.018468699613257426,0
2233,0.020446526952431383,0
2234,-0.028708550832500908,0
2235,-0.014063136544702034,0
2236,0.02296278771425561,0
2237,0.052559529729398216,0
2238,0.04686165826601171,0
2239,-0.03422041418766014,0
2240,0.40284167759918355,0
2241,3.831235365248723,0
2242,6.659167492760132,0
2243,-0.8744346806633303,0
2244,-1.6024390158993091,0
2245,1.5026233762847752,0
2246,-0.7065802247718113,0
2247,0.18354544622664112,0
2248,-0.012778056227418289,0
2249,-0.06498742815088525,0
2250,-0.01499134901180167,0
2251,-0.1230246487314932,0
2252,-0.027190246426324602,0
2253,0.027016225560830782,0
2254,0.0331413594337225,0
2255,-0.0452371042631155,0
2256,-0.051974198225407955,0
2257,-0.054998037132945196,0
2258,-0.026091793820024998,0
2259,0.013286379702679,0
2260,0.3192881968374464,0
2261,3.8280176728152644,0
2262,6.645210812213132,0
2263,-0.8792138981455309,0
2264,-1.699219214111171,0
2265,1.4833243716318627,0
2266,-0.8134891610057597,0
2267,0.2197838973781896,0
2268,0.03337944601967012,0
2269,-0.048989851702098,0
2270,-0.016026826826750523,0
2271,-0.02432504145816093,0
2272,-0.05499545291694147,0
2273,-0.044509456130291135,0
2274,0.026894593061952257,0
2275,0.0434919860169372,0
2276,-0.035509047414871577,0
2277,0.006797879000036183,0
2278,0.03627469296164865,0
2279,-0.06510227799325141,0
2280,0.34198043667078304,0
2281,3.885627640148585,0
2282,6.649476635156461,0
2283,-0.9087474970363502,0
2284,-1.6298359283083568,0
2285,1.4100061517821734,0
2286,-0.7542553254166986,0
2287,0.24814412308918665,0
2288,0.0424432566563918,0
2289,-0.018696547904406443,0
2290,-0.050317748563927026,0
2291,-0.10100988784599378,0
2292,-0.05779395349271992,0
2293,0.04805863537795786,0
2294,0.032232707375051246,0
2295,-0.05106743510124765,0
2296,-0.10551864186622224,0
2297,0.08881009916099342,0
2298,-0.005114771168241265,0
2299,-0.02082193635564353,0
2300,0.2625251554755237,0
2301,3.787129018718519,0
2302,6.619329770294154,0
2303,-0.8717313159851596,0
2304,-1.674563766619034,0
2305,1.6030968525619054,0
2306,-0.7891500131128797,0
2307,0.16342017450907623,0
2308,0.007540004981849136,0
2309,-0.16685092960755776,0
2310,0.06764957120159984,0
2311,-0.008581489145134326,0
2312,-0.013853375745670112,0
2313,-0.041859866209229254,0
2314,-0.020275871868603582,0
2315,0.09084152442914314,0
2316,-0.0017589133770863838,0
2317,0.04553788600401067,0
2318,0.07107992186623732,0
2319,0.01479472630488178,0
2320,0.41783152749992963,0
2321,4.060471527973938,0
2322,6.802144813899894,0
2323,-0.7935401357382398,0
2324,-1.4381724145956898,0
2325,1.4443629268719325,0
2326,-0.6604498405708833,0
2327,0.2710168259105527,0
2328,0.039150261545892025,0
2329,0.017815075278786313,0
2330,0.06785171452862471,0
2331,-0.04878032551740486,0
2332,0.06806742463328593,0
2333,0.04920016166323604,0
2334,0.03260241798534168,0
2335,0.04705644101630779,0
2336,-0.07276058078970278,0
2337,0.07157015723131446,0
2338,0.00949355409466899,0
2339,-0.018106630814673612,0
2340,0.32656725624876853,0
2341,3.9612479596266534,0
2342,6.729835943712451,0
2343,-0.8677463560793617,0
2344,-1.5658451352284448,0
2345,1.4845702494609807,0
2346,-0.8146373438194675,0
2347,0.13414130124355733,0
2348,-0.03748172078238478,0
2349,0.005049914185844488,0
2350,-0.04358112089806515,0
2351,0.0042166385877178796,0
2352,0.000504694333925926,0
2353,0.04548728853144093,0
2354,0.04908083549056604,0
2355,-0.042444622863370356,0
2356,0.0367348497723735,0
2357,0.057094037937232923,0
2358,-0.09711004057360986,0
2359,-0.09707678791033719,0
2360,0.38287897507369034,0
2361,3.876745779813354,0
2362,6.637023413851344,0
2363,-0.9144350059460747,0
2364,-1.5920630224093455,0
2365,1.5369147338566695,0
2366,-0.7068785574219529,0
2367,0.13869117395053837,0
2368,-0.05519758068408552,0
2369,-0.06278290177864881,0
2370,0.005100206247152114,0
2371,0.011403419092562277,0
2372,0.10305821270589877,0
2373,-0.046644423395701504,0
2374,-0.03214215531078959,0
2375,0.06343025355733098,0
2376,-0.03281638608029851,0
2377,0.016938338892281295,0
2378,-0.08219554778011712,0
2379,-0.051596487051002504,0
2380,0.2780968178069846,0
2381,3.8390244787792094,0
2382,6.608605428079723,0
2383,-0.9922825831592859,0
2384,-1.6837712822883686,0
2385,1.457686546731107,0
2386,-0.7973096110549653,0
2387,0.17210666265289018,0
2388,0.03030015249018901,0
2389,-0.05326685126178199,0
2390,-0.012934963305736239,0
2391,0.018669025571444987,0
2392,-0.012924567354080672,0
2393,-0.018854185673998502,0
2394,-0.014416944313049846,0
2395,-0.013432427711439158,0
2396,0.08927723543915536,0
2397,0.01657511549521061,0
2398,-0.01919007476693738,0
2399,-0.10565546331604224,0
2400,0.4359365070352381,0
2401,3.92030742512772,0
2402,6.616990485555468,0
2403,-1.018586931701471,0
2404,-1.614897798552897,0
2405,1.4766693687134298,0
2406,-0.7908085332544181,0
2407,0.13041458477919848,0
2408,-0.0390437115310303,0
2409,-0.05713115859718632,0
2410,0.040138896344627806,0
2411,-0.05322750547257648,0
2412,-0.049578041628375626,0
2413,-0.018943653282422302,0
2414,0.07338609629541516,0
2415,0.008358816686903619,0
2416,-0.034402369142495955,0
2417,0.02269783546891559,0
2418,0.04317080325347524,0
2419,-0.046338256605110165,0
2420,0.3202265318845368,0
2421,3.989833897187891,0
2422,6.710050207680536,0
2423,-1.0197977611980933,0
2424,-1.5792691802621395,0
2425,1.6155190787033522,0
2426,-0.7489580519476456,0
2427,0.25696905018134925,0
2428,0.11348792767865941,0
2429,-0.016241643300091212,0
2430,0.01147192779581511,0
2431,-0.04101830922394537,0
2432,0.021323112038101336,0
2433,0.06703756078440777,0
2434,0.10921617563354995,0
2435,0.021930595648361,0
2436,-0.06526654778209928,0
2437,0.03529837170985574,0
2438,0.04206137213357619,0
2439,-0.054580097528956636,0
2440,0.3364730736948844,0
2441,3.8420395851354825,0
2442,6.659651722995946,0
2443,-0.9643254131278416,0
2444,-1.5627579279519128,0
2445,1.4712919770698467,0
2446,-0.8196059969519198,0
2447,0.1557108670492605,0
2448,0.07012564496299789,0
2449,-0.0655101888333998,0
2450,-0.008751267685588614,0
2451,-0.03787017745072964,0
2452,-0.06730571829349129,0
2453,0.004490835260414685,0
2454,-0.11954199772370126,0
2455,0.015741492629446817,0
2456,-0.0712924859000132,0
2457,-0.039288999415238036,0
2458,0.008709641542491584,0
2459,-0.013032925169392424,0
2460,0.39104026157618793,0
2461,3.9320565664706226,0
2462,6.646811921741853,0
2463,-0.9687616800003951,0
2464,-1.5300559275716628,0
2465,1.4673969925038357,0
2466,-0.8043559950647606,0
2467,0.13717943959737006,0
2468,0.10434137683796088,0
2469,0.025477327506570623,0
2470,0.09980325316044744,0
2471,0.0719936049659657,0
2472,-0.08854093834742416,0
2473,0.05228731141688304,0
2474,0.04782812343674556,0
2475,-0.02139805559431502,0
2476,-0.05979683323162814,0
2477,0.06833375982777126,0
2478,0.090504099948298,0
2479,0.0712071465755965,0
2480,0.3825526240015449,0
2481,3.977211043360946,0
2482,6.7336554014850645,0
2483,-0.8838917165268816,0
2484,-1.5561025838694793,0
2485,1.5169328258222639,0
2486,-0.791574294491016,0
2487,0.23681216975159375,0
2488,-0.06058767341794655,0
2489,-0.015137309763298652,0
2490,-0.06525545309537073,0
2491,0.0617552226056043,0
2492,-0.03231561238948956,0
2493,-0.027769091526819875,0
2494,-0.12163111929742108,0
2495,-0.06466155212255208,0
2496,-0.056166633353029356,0
2497,0.003538942862767725,0
2498,-0.028919484962121246,0
2499,-0.1193552669277792,0
2500,0.35861825889880083,0
2501,3.9025718187749874,0
2502,6.640488675288414,0
2503,-0.9797878305832126,0
2504,-1.6063279848503775,0
2505,1.392986329321623,0
2506,-0.8272202763857786,0
2507,0.20269368137202987,0
2508,-0.05537496429191083,0
2509,-0.02786504787454238,0
2510,0.017310983279346576,0
2511,-0.009459038164685827,0
2512,0.016508207949180988,0
2513,-0.012159327576776645,0
2514,0.0029604064755586225,0
2515,-0.11394513470525292,0
2516,0.06353522998488043,0
2517,0.021900944445943742,0
2518,0.054532226795627955,0
2519,0.06953468443437476,0
2520,0.35634508066772524,0
2521,4.0134309588723625,0
2522,6.6161014968014955,0
2523,-0.9309020803360722,0
2524,-1.5710013072956996,0
2525,1.5018943955017032,0
2526,-0.7888479297527718,0
2527,0.20421039769972732,0
2528,0.0015713102087969886,0
2529,0.039505029907525774,0
2530,-0.026573070264959607,0
2531,-0.03953867787896294,0
2532,0.010518875172523324,0
2533,0.04344807628055851,0
2534,-0.07711105190626841,0
2535,-0.05541631459678409,0
2536,-0.045573073612209546,0
2537,0.06739127258603127,0
2538,0.03933528716615413,0
2539,-0.0799110996582685,0
2540,0.3425043865144562,0
2541,3.916070726407624,0
2542,6.670862108263811,0
2543,-0.9762248683667423,0
2544,-1.5427072004228786,0
2545,1.464200038863665,0
2546,-0.7900576828311245,0
2547,0.15928905590933218,0
2548,-0.009892899136466984,0
2549,0.004456986911971522,0
2550,0.08047501408813229,0
2551,0.014305443571305951,0
2552,-0.005698870019456671,0
2553,0.049516377750310175,0
2554,0.014931008716530032,0
2555,-0.03287926508318304,0
2556,-0.00941852189779175,0
2557,0.018446264849500005,0
2558,0.07870954473523466,0
2559,0.05776778541818837,0
2560,0.32343197949801716,0
2561,3.9423992199315907,0
2562,6.57021878826627,0
2563,-1.0374201272714443,0
2564,-1.5637090662205952,0
2565,1.4311541048936396,0
2566,-0.8574550109870982,0
2567,0.2556666547303442,0
2568,-0.011491854870140894,0
2569,-0.04346084013599254,0
2570,-0.05828198987713225,0
2571,0.03839039512419254,0
2572,-0.0015247868307824812,0
2573,0.07956405228358766,0
2574,0.02132775078704044,0
2575,0.01727065024212236,0
2576,0.09044383098337642,0
2577,0.07209942176773425,0
2578,0.01946425430676288,0
2579,0.09451537754960777,0
2580,0.3234046039660546,0
2581,3.952148953071699,0
2582,6.667471925894661,0
2583,-0.9653826830433313,0
2584,-1.4941703862725906,0
2585,1.4734137887586947,0
2586,-0.8030580352819288,0
2587,0.21440105306239984,0
2588,-0.036993545593952966,0
2589,-0.10768330889253153,0
2590,-0.08416714146070231,0
2591,-0.07755761781618407,0
2592,0.06815431217985693,0
2593,-0.011864175751035929,0
2594,-0.008614321302787817,0
2595,0.02299191097217939,0
2596,0.04166468253530648,0
2597,0.09033669666330749,0
2598,-0.072809996716765,0
2599,-0.023067571990167957,0
2600,0.3485217475511573,0
2601,3.916285582868084,0
2602,6.648936908303725,0
2603,-0.9234159545706386,0
2604,-1.5354271507137338,0
2605,1.4308862834517642,0
2606,-0.8386475013186729,0
2607,0.16022167962876435,0
2608,-0.030031562757165564,0
2609,0.011588040763792926,0
2610,0.040379272863666535,0
2611,-0.03504021110379402,0
2612,-0.03378496136811117,0
2613,-0.01931226145186976,0
2614,0.00437676348862932,0
2615,0.07365246036662865,0
2616,0.017277450563524515,0
2617,-0.002996036351131739,0
2618,-0.015424007684119587,0
2619,-0.0716911036942479,0
2620,0.22896505454762225,0
2621,3.884876598967435,0
2622,6.712341849292746,0
2623,-0.8954478184427782,0
2624,-1.497957333458228,0
2625,1.42625016305789,0
2626,-0.7534863136131962,0
2627,0.20625973911655993,0
2628,0.056732080403958655,0
2629,-0.06644487990641651,0
2630,0.10529590669061656,0
2631,-0.0454933590232976,0
2632,0.005428928709490598,0
2633,0.02442171308106192,0
2634,0.00820698335229572,0
2635,-0.0616504954776594,0
2636,-0.07759779037056899,0
2637,-0.06665650675706927,0
2638,0.012937857431657446,0
2639,-0.02815132678574689,0
2640,0.4503459913385736,0
2641,3.9427222331859184,0
2642,6.555906973488087,0
2643,-0.9298144323577592,0
2644,-1.4999989554834299,0
2645,1.47056986892433,0
2646,-0.730281414935519,0
2647,0.21886317959211737,0
2648,0.0244482234172359,0
2649,0.04510431370230374,0
2650,-0.07045456583784998,0
2651,-0.0006778391249676295,0
2652,0.026781462299406103,0
2653,0.086052327422103,0
2654,0.01905406991293786,0
2655,-0.005388770234066129,0
2656,-0.05320050889896773,0
2657,0.032641578114534726,0
2658,0.007090806177060947,0
2659,-0.05928847177595171,0
2660,0.33634724140748495,0
2661,4.081357994925421,0
2662,6.7243949362072275,0
2663,-0.9793263039808076,0
2664,-1.545960252191912,0
2665,1.3698502295891652,0
2666,-0.8341369243165806,0
2667,0.1316994866908955,0
2668,-0.026399099715285007,0
2669,-0.03096577820614644,0
2670,-0.04102009057767097,0
2671,-0.11765426707428285,0
2672,0.07748059014092999,0
2673,-0.07491644399239099,0
2674,-0.01338099550646702,0
2675,-0.044595129891827054,0
2676,0.011367924282244852,0
2677,0.049383655782366566,0
2678,0.07663480007207615,0
2679,-0.009017297252764955,0
2680,0.4394079830545161,0
2681,3.9808739765906416,0
2682,6.642059253191514,0
2683,-0.928705265185513,0
2684,-1.5100055734633153,0
2685,1.36493903287325,0
2686,-0.8099595014306619,0
2687,0.176363368856994,0
2688,-0.05846150450193175,0
2689,-0.019095528833270186,0
2690,0.03845488795687381,0
2691,-0.012882931547727173,0
2692,0.07404352106380473,0
2693,0.0337969140852932,0
2694,-0.1304781095227724,0
2695,-0.002736783708342898,0
2696,-0.10845758837497196,0
2697,-0.0381606232790322,0
2698,-0.04503692838516715,0
2699,0.046082153452532006,0
2700,0.40939583453468853,0
2701,3.993899847069892,0
2702,6.666903737253904,0
2703,-0.9677803473230756,0
2704,-1.4832488364198646,0
2705,1.455885479067997,0
2706,-0.7700206246026029,0
2707,0.13738439156286725,0
2708,-0.002980911571268563,0
2709,-0.027300992757077994,0
2710,0.035946296445246724,0
2711,-0.07251421107776301,0
2712,-0.08628650581639577,0
2713,-0.008565408974092588,0
2714,-0.03133968408811433,0
2715,-0.005553298667022956,0
2716,-0.11496560237209613,0
2717,-0.08289247689133125,0
2718,-0.11380142398925522,0
2719,-0.030847874821426608,0
2720,0.41426977367429296,0
2721,3.9447056025940146,0
2722,6.671244422043272,0
2723,-0.9880967379795637,0
2724,-1.5814080769496286,0
2725,1.3723282074103815,0
2726,-0.8613275818735768,0
2727,0.04507160561240095,0
2728,-0.047434976452430985,0
2729,-0.0735700176583307,0
2730,-0.01677594574096255,0
2731,-0.12280192151155628,0
2732,-0.029030628463458195,0
2733,0.0017587368477770607,0
2734,-0.05223124255198815,0
2735,-0.0884561847045147,0
2736,0.004060843256049267,0
2737,-0.14022906917982583,0
2738,0.02232161435045485,0
2739,0.045613971826503036,0
2740,0.4397869929417559,0
2741,4.057083884617094,0
2742,6.68950578727329,0
2743,-0.9257719998193878,0
2744,-1.4186498270670989,0
2745,1.5633920864471604,0
2746,-0.8376975892969091,0
2747,0.20733902201301807,0
2748,0.023966618477356955,0
2749,-0.011673271675583524,0
2750,0.018136117570938148,0
2751,0.05730988413271796,0
2752,-0.049216569990619546,0
2753,-0.07974573844879368,0
2754,0.03331567405904409,0
2755,-0.08332538350216995,0
2756,-0.02541342707590133,0
2757,-0.05713639240620474,0
2758,-0.05491936929365256,0
2759,-0.055292578793614384,0
2760,0.36345981178188136,0
2761,4.0251664882347145,0
2762,6.672671274586025,0
2763,-1.055340297919179,0
2764,-1.585037618601974,0
2765,1.5061775271295639,0
2766,-0.7215206001947071,0
2767,0.20169811459558878,0
2768,-0.02665928820753143,0
2769,0.03160898289529458,0
2770,-0.01772272641453547,0
2771,0.019919016572321972,0
2772,0.07559624069942726,0
2773,0.05022776944995028,0
2774,0.03737597115743002,0
2775,0.034750136058361185,0
2776,0.0569924650137477,0
2777,0.049229427493361844,0
2778,0.010957942213673195,0
2779,-0.004646972269256679,0
2780,0.4003965890752093,0
2781,4.01165621563976,0
2782,6.685975573453062,0
2783,-0.9398661840064577,0
2784,-1.4973494631886426,0
2785,1.437956968730513,0
2786,-0.7959694242372807,0
2787,0.2134340751703766,0
2788,0.0047158585149859565,0
2789,-0.05880157630818689,0
2790,-0.01682073334874143,0
2791,0.012149768311962038,0
2792,0.0816524068574896,0
2793,0.04026221240285698,0
2794,-0.07319513263302499,0
2795,0.03323385006576466,0
2796,0.027564701802041472,0
2797,0.09896450374153824,0
2798,-0.006926823880567187,0
2799,0.08449178214161701,0
2800,0.37845753396436904,0
2801,4.115551889396813,0
2802,6.612905435307561,0
2803,-1.0223620906056148,0
2804,-1.5090820692069267,0
2805,1.3469993852860007,0
2806,-0.7263704382630024,0
2807,0.1568755433957133,0
2808,0.01835378360546236,0
2809,-0.001334783071280654,0
2810,0.041533038163233026,0
2811,0.009580680970864484,0
2812,0.07964373974194675,0
2813,-0.0619447794732018,0
2814,-0.014804104697828054,0
2815,-0.039429084829737227,0
2816,0.06786520983411196,0
2817,0.07618599886238678,0
2818,0.0314802921599591,0
2819,0.05288722364635593,0
2820,0.49957368281667347,0
2821,4.061825427322869,0
2822,6.664424161944826,0
2823,-0.9368389618977393,0
2824,-1.4691827033768723,0
2825,1.485537180634826,0
2826,-0.7366538703404959,0
2827,0.29041921670205756,0
2828,-0.02059579752149346,0
2829,-0.07555774361307331,0
2830,0.050372270891207584,0
2831,0.06943767422959263,0
2832,0.09924035642472824,0
2833,0.07917564755397961,0
2834,0.010841132356702374,0
2835,-0.02958871341729772,0
2836,0.004669027228708409,0
2837,0.07133338606967597,0
2838,-0.05973764115955786,0
2839,-0.07151927055705486,0
2840,0.3435301053103001,0
2841,4.014958843067429,0
2842,6.624041955067989,0
2843,-1.0868839359577613,0
2844,-1.5392264077524986,0
2845,1.303304182501305,0
2846,-0.7491237415733428,0
2847,0.24548467461060614,0
2848,-0.06714980361404373,0
2849,-0.06386051501585674,0
2850,7.59002520226259e-05,0
2851,-0.004847288839324425,0
2852,-0.027903815728649375,0
2853,-0.08526514925829297,0
2854,0.02391577385444727,0
2855,-0.0040280294741624825,0
2856,0.04783536127511444,0
2857,0.08551346093219846,0
2858,0.07883194429407556,0
2859,0.11260748072293228,0
2860,0.3728382575753307,0
2861,4.134913118609605,0
2862,6.733445548238036,0
2863,-0.9892593399484957,0
2864,-1.4403876192989755,0
2865,1.5600370099080059,0
2866,-0.6218925267721047,0
2867,0.30318021627775754,0
2868,-0.014068955246752883,0
2869,0.011855549802234213,0
2870,0.04100113060263233,0
2871,-0.030889558272830617,0
2872,-0.0757305825126834,0
2873,0.0411522327008307,0
2874,0.031162500890234514,0
2875,0.021607643247605193,0
2876,-0.07494872383849982,0
2877,-0.04960173662080084,0
2878,-0.00932406661920892,0
2879,-0.060878519556411555,0
2880,0.29481977432836415,0
2881,4.003901749711282,0
2882,6.627589844259588,0
2883,-1.0982952595138844,0
2884,-1.48418357115655,0
2885,1.4005162921296244,0
2886,-0.8464332932375529,0
2887,0.1315661200812125,0
2888,-0.005269008476852386,0
2889,-0.09002210562210936,0
2890,-0.01708540968256959,0
2891,-0.024820690868527277,0
2892,-0.008728729144013004,0
2893,-0.043901862966278696,0
2894,-0.07807446382545025,0
2895,-0.031075502928949904,0
2896,-0.02473167970437394,0
2897,0.012074270417365317,0
2898,0.06552294697705856,0
2899,0.11040122278105001,0
2900,0.36829976867045955,0
2901,3.974781641777085,0
2902,6.558144690695833,0
2903,-1.0398997452208476,0
2904,-1.5761395529708986,0
2905,1.2962970047690014,0
2906,-0.8089471804707555,0
2907,0.2092914944673055,0
2908,0.014392721495389317,0
2909,-0.004407428940641674,0
2910,-0.040006121265737625,0
2911,0.03717598047861578,0
2912,0.025194369986726084,0
2913,0.009644141181572967,0
2914,0.010782762549666682,0
2915,-0.10281094653363348,0
2916,-0.06358402356711425,0
2917,-0.010126433877255772,0
2918,0.03178636517107707,0
2919,-0.16844336459000994,0
2920,0.31986945516248066,0
2921,3.949064091631367,0
2922,6.537016487590335,0
2923,-1.216012740049351,0
2924,-1.6168389150570734,0
2925,1.3364358112193064,0
2926,-0.8391356450024261,0
2927,0.007699628918224094,0
2928,-0.0351839836138063,0
2929,-0.177557472976167,0
2930,-0.054754926305358546,0
2931,-0.030830287117000685,0
2932,0.06641560108073497,0
2933,-0.011620059580722552,0
2934,-0.0065113731077936846,0
2935,-0.1126066320016362,0
2936,0.0239348544059129,0
2937,0.017340522052320194,0
2938,-0.04844884063269074,0
2939,0.01404564355283857,0
2940,0.34195110742124385,0
2941,3.9319900033945885,0
2942,6.540036188140627,0
2943,-1.1021910716326468,0
2944,-1.4943957855338457,0
2945,1.3670112053434824,0
2946,-0.8117451921371024,0
2947,0.10274913389461857,0
2948,-0.05123451708018986,0
2949,0.03447283923466361,0
2950,-0.08398472632340903,0
2951,-0.028502824709793387,0
2952,-0.004766358270968902,0
2953,-0.003915824947547917,0
2954,-0.0482796431660111,0
2955,0.009434390826558246,0
2956,0.07983837200882257,0
2957,-0.001606890309910321,0
2958,-0.12824436649771812,0
2959,-0.04050758039281825,0
2960,0.40177139995578415,0
2961,4.034211536781188,0
2962,6.597036011989482,0
2963,-1.0623048212402935,0
2964,-1.511809752539279,0
2965,1.4266226810296474,0
2966,-0.8782289950325215,0
2967,0.2687883597738438,0
2968,-0.05015354407582743,0
2969,-0.07447493132858278,0
2970,-0.06818446514635686,0
2971,-0.019428282940262637,0
2972,0.0568210319991402,0
2973,-0.0942592612778681,0
2974,0.013925586381632014,0
2975,-0.12116410074621471,0
2976,0.013521623722793565,0
2977,0.008672502949675243,0
2978,0.08696748740291596,0
2979,-0.07593571861618381,0
2980,0.3870251388846982,0
2981,3.9705934041906055,0
2982,6.579942800211286,0
2983,-0.998417524217995,0
2984,-1.4923205899523562,0
2985,1.4526732501012412,0
2986,-0.8082424030839854,0
2987,0.16672071629123658,0
2988,0.03129207355818307,0
2989,-0.07374785608049728,0
2990,0.10779300715592942,0
2991,0.009918593837813232,0
2992,-0.026742653079122568,0
2993,-0.04746496641685776,0
2994,-0.00572217923732429,0
2995,-0.02403458525596598,0
2996,0.04476483677563584,0
2997,0.04909169535482165,0
2998,0.012499135982022782,0
2999,0.002375063910121366,0
3000,0.44907050843020396,0
3001,4.10576902247359,0
3002,6.659081122421821,0
3003,-1.0974888508760936,0
3004,-1.466943147904216,0
3005,1.4453093712022724,0
3006,-0.7459394017806098,0
3007,0.2507106518639117,0
3008,0.001040526892949355,0
3009,-0.07131235710760161,0
3010,-0.07519867646284575,0
3011,-0.044346412089886024,0
3012,-0.05324048441843453,0
3013,-0.06761641623092922,0
3014,0.007175273740356313,0
3015,0.01404349124622429,0
3016,-0.10019160339073747,0
3017,0.074846626482679,0
3018,-0.057172482021287205,0
3019,0.10585174802037303,0
3020,0.39967077918070587,0
3021,4.070752621930898,0
3022,6.5927698079608295,0
3023,-1.0482570758039502,0
3024,-1.3949842104862444,0
3025,1.455206345519972,0
3026,-0.6927259579295454,0
3027,0.2455210149139335,0
3028,0.05030586574346799,0
3029,-0.030592515109704836,0
3030,-0.04808526516340907,0
3031,0.019879581084924595,0
3032,0.0063948687611297345,0
3033,0.017990904249993882,0
3034,-0.0302301349246381,0
3035,0.06363478114647737,0
3036,0.021375435408568032,0
3037,0.0266664184190934,0
3038,0.01292048654995076,0
3039,-0.012862398928241502,0
3040,0.2975432980978014,0
3041,4.107283535968305,0
3042,6.5505186546804,0
3043,-1.0359765428380938,0
3044,-1.4704334321550838,0
3045,1.5349009528062743,0
3046,-0.7946950115543363,0
3047,0.19655220038500784,0
3048,0.04165597712241739,0
3049,-0.06010487916575564,0
3050,0.049397852344704576,0
3051,0.04445448316143264,0
3052,-0.014524397123461312,0
3053,-0.006868043391530881,0
3054,0.11450399103064925,0
3055,0.027768204031372198,0
3056,-0.0387871393014814,0
3057,0.005223059107170448,0
3058,0.05772859695699675,0
3059,-0.025489087971410612,0
3060,0.3705214030632353,0
3061,4.071193395025351,0
3062,6.671688900203467,0
3063,-1.004199293141602,0
3064,-1.37384129181085,0
3065,1.4758085704348884,0
3066,-0.7625272084289361,0
3067,0.2233263344364155,0
3068,-0.04487880709320376,0
3069,-0.020737929466030414,0
3070,0.011761288712708722,0
3071,0.058120419359956994,0
3072,0.02778481537793793,0
3073,0.12577009966108574,0
3074,0.043005200949805346,0
3075,0.03974086962014028,0
3076,0.1186429484721491,0
3077,0.02014071639938602,0
3078,-0.034834511243940755,0
3079,0.10861242213962904,0
3080,0.3931521680750112,0
3081,4.008946055216072,0
3082,6.60073161962272,0
3083,-1.1012423422457152,0
3084,-1.480608546646188,0
3085,1.4062649722950455,0
3086,-0.8158643263535,0
3087,0.15663047229572463,0
3088,-0.04673328792054551,0
3089,-0.04955533677870333,0
3090,0.01313003214302225,0
3091,0.08967166030679981,0
3092,0.09025975240096347,0
3093,-0.07504063382416165,0
3094,0.028930069132019183,0
3095,0.09271873282796839,0
3096,0.021884290376389375,0
3097,0.05611821974153266,0
3098,-0.06062038894635467,0
3099,0.008250412920551252,0
3100,0.3761242361707224,0
3101,4.050059181546565,0
3102,6.607281430131851,0
3103,-1.0297600972422922,0
3104,-1.407285399656191,0
3105,1.4696479987773081,0
3106,-0.8086010166559553,0
3107,0.2500238944707783,0
3108,-0.021973408545348704,0
3109,0.043964697490327095,0
3110,0.0338035408981986,0
3111,0.038742935585364895,0
3112,-0.03743897464099328,0
3113,-0.013289425573695925,0
3114,0.07325555247222049,0
3115,0.09297400081401934,0
3116,0.008443040001355744,0
3117,0.008469275946078124,0
3118,0.027654206243354372,0
3119,0.049765252667598535,0
3120,0.4871851056811827,0
3121,4.239298723569227,0
3122,6.691316849464496,0
3123,-1.093692458754479,0
3124,-1.5412644174487544,0
3125,1.433467075373538,0
3126,-0.7273042093432708,0
3127,0.24621792744151713,0
3128,0.08903439477511063,0
3129,-0.03225418015182584,0
3130,-0.08014272192645114,0
3131,0.03070497596038241,0
3132,0.026697037743405358,0
3133,0.040261703853733614,0
3134,0.03611123910183097,0
3135,-0.007544991187600026,0
3136,0.055996599867984706,0
3137,0.06042688275540399,0
3138,0.07307073538230444,0
3139,-0.00804128591886507,0
3140,0.3750455793147478,0
3141,4.035835916315189,0
3142,6.598449561772146,0
3143,-1.1233783620975086,0
3144,-1.4407178254539366,0
3145,1.5133276935648765,0
3146,-0.7260592251655638,0
3147,0.2529414478119175,0
3148,-0.02008139673920492,0
3149,-0.036661577236081364,0
3150,0.15118123547599627,0
3151,0.08820175301395006,0
3152,0.013874295128313341,0
3153,-0.06495517186609562,0
3154,0.03255619707056803,0
3155,0.050607616156075064,0
3156,-0.022038874492509967,0
3157,0.04514516591050638,0
3158,0.027463920634615478,0
3159,-0.13242176817780205,0
3160,0.5059146481640875,0
3161,4.03218311194478,0
3162,6.660806084904276,0
3163,-1.1003660896844936,0
3164,-1.422325499032181,0
3165,1.3607911499971355,0
3166,-0.6978411912667717,0
3167,0.29751048476574865,0
3168,0.033548271604371925,0
3169,-0.06898003005033353,0
3170,0.027446727502678195,0
3171,-0.06964230319383435,0
3172,-0.036943101775554016,0
3173,-0.011354889650878771,0
3174,-0.009716771870998349,0
3175,0.025328455870457567,0
3176,-0.02662990341652343,0
3177,-0.04116900533427124,0
3178,0.018718584164805666,0
3179,0.053628393249695705,0
3180,0.42752588874574526,0
3181,4.159472954611361,0
3182,6.682942966871265,0
3183,-1.053989609147632,0
3184,-1.2500531855245196,0
3185,1.4202370209026653,0
3186,-0.7449919059285882,0
3187,0.28537181195709416,0
3188,0.08015634621270216,0
3189,-0.0013461966970202167,0
3190,0.048370494811400364,0
3191,0.07980240505184075,0
3192,-0.04946431434578292,0
3193,0.0486950816846236,0
3194,-0.10064650938311566,0
3195,-0.02644612935186537,0
3196,-0.04029583186709598,0
3197,-0.014465722602546562,0
3198,-0.04268885940773285,0
3199,0.03196342342493876,0
3200,0.39607804250479917,0
3201,4.052014066496413,0
3202,6.58643891435166,0
3203,-1.125369308188932,0
3204,-1.427982009436922,0
3205,1.4200999081931962,0
3206,-0.8315973930900005,0
3207,0.10230038901737298,0
3208,0.08716888871619684,0
3209,-0.06240517404563281,0
3210,-0.012534339143464596,0
3211,-0.11150450414073748,0
3212,-0.01969651126026334,0
3213,-0.049345787345148794,0
3214,-0.007945927100134483,0
3215,0.01806038448489386,0
3216,-0.09236651070531252,0
3217,-0.03538866385414587,0
3218,-0.026518339957974712,0
3219,-0.06307096695179275,0
3220,0.37439357119028804,0
3221,3.9982992456114435,0
3222,6.551067214528314,0
3223,-1.1777188131972411,0
3224,-1.4654747873964493,0
3225,1.4301785163792444,0
3226,-0.7222470175405511,0
3227,0.2484908305592154,0
3228,-0.09396942040646064,0
3229,-0.11340033187916876,0
3230,-0.004978997627698392,0
3231,-0.0011022941016669528,0
3232,-0.06723173205378201,0
3233,0.050918811907589415,0
3234,0.053203282197341065,0
3235,-0.057678875311120203,0
3236,-0.15787894409531383,0
3237,-0.05975095167652805,0
3238,-0.02598720112932162,0
3239,0.04239303568181286,0
3240,0.36664763589238863,0
3241,3.9521164505654394,0
3242,6.5010984139563375,0
3243,-1.1955441984194948,0
3244,-1.4867371293895943,0
3245,1.3745108523948903,0
3246,-0.7869024556258619,0
3247,0.10059052223120792,0
3248,-0.015468368267712654,0
3249,-0.09811833711413386,0
3250,-0.06855411914852015,0
3251,-0.02103782654340609,0
3252,-0.07403077658941304,0
3253,-0.07493113439178357,0
3254,-0.04281880435251877,0
3255,-0.05029592420385927,0
3256,-0.04930002058005895,0
3257,-0.07775712026752751,0
3258,-0.15629329432556482,0
3259,-0.088574656631032,0
3260,0.40350962923388123,0
3261,4.027443518980711,0
3262,6.420487451942864,0
3263,-1.206509521782895,0
3264,-1.5408364080576473,0
3265,1.373960952793099,0
3266,-0.8467775778137112,0
3267,0.10758362756075986,0
3268,-0.029939489412789913,0
3269,-0.03045145266153687,0
3270,-0.10109013463093687,0
3271,-0.08928058972595529,0
3272,-0.056436730510529866,0
3273,0.021504191836871855,0
3274,0.03991052758154097,0
3275,0.046777620400698924,0
3276,-0.05447340885122791,0
3277,-0.011529639467045764,0
3278,-0.06832962598966894,0
3279,-0.014865708508333193,0
3280,0.35168430630244674,0
3281,4.087660475420351,0
3282,6.528946462972745,0
3283,-1.2502930634837832,0
3284,-1.5240846972437874,0
3285,1.3923259114020272,0
3286,-0.8635692905117148,0
3287,0.24588589991903664,0
3288,-0.03698604234396422,0
3289,-0.12542150300677732,0
3290,-0.00037281143555607105,0
3291,0.014568537931602885,0
3292,-0.017945143125720504,0
3293,0.09293229557963181,0
3294,-0.057432245674262666,0
3295,-0.07135145105265073,0
3296,-0.029034111491207732,0
3297,-0.04831030875605796,0
3298,-0.004233852680296503,0
3299,-0.014899548822299572,0
3300,0.4687807506972569,0
3301,4.02222119918198,0
3302,6.622064112442721,0
3303,-1.117889102417189,0
3304,-1.4252816157369033,0
3305,1.4003587344365616,0
3306,-0.8305466555060073,0
3307,0.22601232462519982,0
3308,-0.08407007723383059,0
3309,-0.12306886743643732,0
3310,-0.05141703201370773,0
3311,-0.05276829445127256,0
3312,0.04545545799969791,0
3313,0.003496852173225432,0
3314,-0.09001367982927916,0
3315,-0.02427933846557396,0
3316,-0.04470187009872496,0
3317,0.07382174043547414,0
3318,0.017193986282519717,0
3319,-0.021404818843243367,0
3320,0.41190571051812497,0
3321,4.019547773396489,0
3322,6.547178643327959,0
3323,-1.1049158719194783,0
3324,-1.4477095982955308,0
3325,1.4215677128803839,0
3326,-0.7628722806010083,0
3327,0.17318699144563074,0
3328,-0.05835369495993925,0
3329,-0.0007637969860862931,0
3330,-0.11636330928187215,0
3331,-0.08933602987141626,0
3332,-0.011627890830627291,0
3333,-0.11970181797125376,0
3334,-0.02040638364414024,0
3335,-0.07892328211838803,0
3336,-0.0646806314109841,0
3337,0.006415582881112734,0
3338,-0.053939312187293156,0
3339,-0.04304077441682885,0
3340,0.37813314183011154,0
3341,4.113580397520417,0
3342,6.566356989282995,0
3343,-1.2134392775812548,0
3344,-1.4250348714006864,0
3345,1.44724311762762,0
3346,-0.7431104112914168,0
3347,0.28261932178862537,0
3348,-0.034001234794173274,0
3349,0.015395013701534569,0
3350,0.026159945784904576,0
3351,-0.006605470795759759,0
3352,0.06215936202812285,0
3353,0.09781596086465022,0
3354,-0.05619484689916622,0
3355,0.05193913684660824,0
3356,0.012892762299857047,0
3357,0.021250396366138423,0
3358,-0.05119417805425063,0
3359,0.04161835150684285,0
3360,0.34747954322890595,0
3361,4.1261587323486575,0
3362,6.50148413245066,0
3363,-1.1737889597012254,0
3364,-1.4474873803903823,0
3365,1.3223638376782607,0
3366,-0.838289067969788,0
3367,0.19497212340922618,0
3368,-0.023639608272189985,0
3369,-0.12906722518989255,0
3370,0.001902559906131981,0
3371,0.061430993926861494,0
3372,-0.03633332955570301,0
3373,0.03884747659575724,0
3374,0.10445161647776598,0
3375,0.01721464195793109,0
3376,-0.0259503064371786,0
3377,-0.14379996551163493,0
3378,-0.09012167945187627,0
3379,-1.81444317833325e-05,0
3380,0.45846456495167265,0
3381,4.048116711613999,0
3382,6.46802614811899,0
3383,-1.153191759926434,0
3384,-1.3557799805177762,0
3385,1.275072531249109,0
3386,-0.8331849824074055,0
3387,0.2450032051876223,0
3388,-0.04389494378052694,0
3389,-0.12670080046386978,0
3390,0.09091979529003537,0
3391,-0.03353467335877863,0
3392,-0.07610844474934193,0
3393,-0.04009077232672005,0
3394,-0.02876126552029288,0
3395,0.057847557908679376,0
3396,-0.0031081583494302727,0
3397,0.07784441460159455,0
3398,0.048120468048779244,0
3399,-0.07159022159685144,0
3400,0.41328984241304556,0
3401,4.041764970731648,0
3402,6.6056605780094415,0
3403,-1.175791513604108,0
3404,-1.402857714364787,0
3405,1.4434612646161038,0
3406,-0.7603318175797595,0
3407,0.17508034699420233,0
3408,-0.03023340303529263,0
3409,-0.10935049632314771,0
3410,-0.031167991193718998,0
3411,-0.10882450112566136,0
3412,-0.049426656938774745,0
3413,-0.049365591129692854,0
3414,-0.0621285721266194,0
3415,-0.012056691267696484,0
3416,-0.03289098192530182,0
3417,-0.010005871874438417,0
3418,-0.05717840702414145,0
3419,0.03419117045858962,0
3420,0.4313802388584303,0
3421,4.105702039770411,0
3422,6.559071055274836,0
3423,-1.1530906070940954,0
3424,-1.441643679095454,0
3425,1.4801641673461083,0
3426,-0.7773785771786633,0
3427,0.3246608084333579,0
3428,-0.04158831017147989,0
3429,0.03948763374198126,0
3430,-0.05638855584425466,0
3431,-0.050418100945233135,0
3432,0.018299843449630555,0
3433,-0.004764894834601649,0
3434,0.07065359964453458,0
3435,-0.008716351554387377,0
3436,-0.013163375803836337,0
3437,-0.030805920555667575,0
3438,0.013991890791606633,0
3439,0.10380735328430632,0
3440,0.4640569755319123,0
3441,4.097350281921216,0
3442,6.57811687133055,0
3443,-1.1748778898297252,0
3444,-1.3367416256037998,0
3445,1.3704066483445718,0
3446,-0.7672978942101758,0
3447,0.22243495237341473,0
3448,-0.07573241964235904,0
3449,-0.009319814750986793,0
3450,-0.01734934301380825,0
3451,0.0529980056660494,0
3452,-0.026472036577221778,0
3453,-0.06485331084854648,0
3454,0.02117386425043607,0
3455,0.07648949381318176,0
3456,-0.08297465813824603,0
3457,-0.033147055851244264,0
3458,0.02461142012613595,0
3459,0.030930536812028238,0
3460,0.42830039162185235,0
3461,4.1113693249950485,0
3462,6.604374566931621,0
3463,-1.116288516585161,0
3464,-1.3999505740457905,0
3465,1.3635382713043644,0
3466,-0.7798957044064985,0
3467,0.3028814503457428,0
3468,-0.030589412102013797,0
3469,-0.01202916990531628,0
3470,0.07394680228816354,0
3471,0.004893187595332185,0
3472,0.07295484582096354,0
3473,0.03715762126356702,0
3474,0.02805638274373102,0
3475,0.015252062624152848,0
3476,0.0273259890909461,0
3477,0.05696674378412305,0
3478,0.05142773699645566,0
3479,0.08416654167967141,0
3480,0.5686009298532051,0
3481,4.208901125362372,0
3482,6.530112962796247,0
3483,-1.0794600795979306,0
3484,-1.3036667806672793,0
3485,1.481823599384659,0
3486,-0.78480591795087,0
3487,0.30936601464040947,0
3488,-0.026758216301682014,0
3489,0.024650470454666812,0
3490,0.034631163943362846,0
3491,0.05164069891049222,0
3492,0.05246014915284567,0
3493,0.009804806737185392,0
3494,0.1285784538954555,0
3495,0.08471958740530691,0
3496,0.03657304612324995,0
3497,0.06758335353109958,0
3498,0.07036991784209834,0
3499,0.12747736558870282,0
3500,0.5585871492378434,0
3501,4.174908307967169,0
3502,6.6948795570001955,0
3503,-1.0631535125977527,0
3504,-1.287317480131009,0
3505,1.5506868417011896,0
3506,-0.654194837959504,0
3507,0.32231776024371067,0
3508,0.020867659956209695,0
3509,0.03175649919772103,0
3510,0.04233612448107983,0
3511,-0.08167129277885428,0
3512,0.04312856563212085,0
3513,-0.060712757571613825,0
3514,-0.06624701021167344,0
3515,0.03445144922735263,0
3516,0.05906572739161306,0
3517,0.03709347952856932,0
3518,-0.09532998724632279,0
3519,-0.03462302075542455,0
3520,0.4191298001806855,0
3521,4.148805811383487,0
3522,6.641620708976909,0
3523,-1.147847205464905,0
3524,-1.385719299982905,0
3525,1.502858676083972,0
3526,-0.7099564503323518,0
3527,0.3555740355782322,0
3528,0.12825867025328908,0
3529,0.11925923731664406,0
3530,0.06850324723360622,0
3531,0.026716189743566307,0
3532,0.07097099114976232,0
3533,0.18159099712463828,0
3534,0.08220400301991004,0
3535,0.1469604607173578,0
3536,0.12086677169950064,0
3537,0.0429992852497843,0
3538,0.08828155185250018,0
3539,0.13460261886272018,0
3540,0.5851094486580974,0
3541,4.210899032392443,0
3542,6.704113380848615,0
3543,-1.134434495579884,0
3544,-1.2728511434347496,0
3545,1.4528879645301314,0
3546,-0.6517584733382178,0
3547,0.3316105188213212,0
3548,0.07738625454876989,0
3549,0.1495301560376234,0
3550,0.13130483578672847,0
3551,0.07809175294881376,0
3552,0.0907824459659627,0
3553,0.15502164712744904,0
3554,0.042490944197784375,0
3555,0.09801594924859065,0
3556,0.07628840220373033,0
3557,0.1006352955203072,0
3558,0.06676869976320712,0
3559,0.09007636881490895,0
3560,0.5453834630463303,0
3561,4.179459524883665,0
3562,6.7097317129126335,0
3563,-1.071303312175788,0
3564,-1.297981945661173,0
3565,1.4762460381215678,0
3566,-0.732980467762163,0
3567,0.3216723379021644,0
3568,-0.046122953760484336,0
3569,0.07754028503537247,0
3570,-0.00801213907619451,0
3571,0.05425623977011966,0
3572,0.10278170484153533,0
3573,0.07508423463170374,0
3574,0.15431797680916315,0
3575,0.07277000528858033,0
3576,0.09019339943886871,0
3577,0.008966461997677758,0
3578,0.050599003195525974,0
3579,0.006439953006523906,0
3580,0.49541984331100825,0
3581,4.222143727634445,0
3582,6.510123366903098,0
3583,-1.1885552021110524,0
3584,-1.3707270258571191,0
3585,1.4601032625285502,0
3586,-0.7499434853521175,0
3587,0.33635890362596976,0
3588,0.07641164502194232,0
3589,0.047969156207023286,0
3590,0.1533761883705581,0
3591,0.1519286983579803,0
3592,0.04364163462947965,0
3593,0.07903654091174951,0
3594,0.06975252107796237,0
3595,0.1821723991518689,0
3596,0.05405280386152497,0
3597,0.08133945179694557,0
3598,0.03664440632766061,0
3599,0.09719527203963409,0
3600,0.5276489884013488,0
3601,4.179864320096492,0
3602,6.676825141103081,0
3603,-1.2185473560964923,0
3604,-1.335984102475913,0
3605,1.4437355508237382,0
3606,-0.8131953323288774,0
3607,0.303363618309191,0
3608,0.036014261782131074,0
3609,-0.03410285967233122,0
3610,0.039362505158117345,0
3611,0.07032144438823029,0
3612,0.07417779080046218,0
3613,0.07906848343951203,0
3614,-0.056439218888834,0
3615,0.008141936594954893,0
3616,0.07431960309711058,0
3617,0.05315293358221451,0
3618,0.04906898688596548,0
3619,0.08670496007426211,0
3620,0.4532526258073295,0
3621,4.30590495768392,0
3622,6.490246693845264,0
3623,-1.1665134552257945,0
3624,-1.3059748831360432,0
3625,1.4570314838072294,0
3626,-0.6652950615046782,0
3627,0.27872799769640594,0
3628,0.007097738313729146,0
3629,0.09186211390037362,0
3630,0.1063519974489926,0
3631,0.03958581395271912,0
3632,0.11977344138444712,0
3633,0.1010021049157848,0
3634,0.059743524217554786,0
3635,-0.009439943011754659,0
3636,0.045067930983649335,0
3637,0.09557921502396216,0
3638,0.06802654786332378,0
3639,0.09267934085649475,0
3640,0.49071302783265586,0
3641,4.172616903482668,0
3642,6.640510749764611,0
3643,-1.190382107000214,0
3644,-1.3226535485891606,0
3645,1.4964024244902587,0
3646,-0.7058218215638347,0
3647,0.310013594026513,0
3648,-0.019674115356257803,0
3649,0.06313433058654443,0
3650,0.06621769372898277,0
3651,0.03256063961883798,0
3652,0.04106267636799352,0
3653,0.10200531186829395,0
3654,0.02679309808754925,0
3655,0.011921947435137484,0
3656,0.1074407273684441,0
3657,0.10508913216745644,0
3658,0.14431694006286783,0
3659,-0.004751095063638688,0
3660,0.5430375379801243,0
3661,4.208352095025518,0
3662,6.604336390134453,0
3663,-1.17570999862462,0
3664,-1.3062069441259843,0
3665,1.4855565612072652,0
3666,-0.7026813398878273,0
3667,0.33945416848669807,0
3668,-0.014650801825341352,0
3669,0.015312403900482222,0
3670,0.13333268577044902,0
3671,0.052609787182154144,0
3672,0.11949431824363244,0
3673,0.0549382575548255,0
3674,-0.05062615222831564,0
3675,-0.00020671435657224416,0
3676,-0.03337793967321357,0
3677,0.035224167874864654,0
3678,0.026842108632021654,0
3679,-0.016069629021310646,0
3680,0.45868716459497944,0
3681,4.297882292092929,0
3682,6.558608730163993,0
3683,-1.1699734734289762,0
3684,-1.2822680627615957,0
3685,1.4065616894935487,0
3686,-0.8154859065896827,0
3687,0.24301979543519842,0
3688,0.03739849792509692,0
3689,0.07778734104147592,0
3690,0.03327734269305821,0
3691,0.032843640700809126,0
3692,0.02600391359272673,0
3693,0.0019378889244054485,0
3694,-0.030998509533718875,0
3695,0.06553252759325254,0
3696,-0.03547252786068418,0
3697,0.1279751288612934,0
3698,-0.05008448912473275,0
3699,0.02498011983469843,0
3700,0.5020774855731192,0
3701,4.203600765290151,0
3702,6.539790262966864,0
3703,-1.2040035641337634,0
3704,-1.3477286148375185,0
3705,1.4426762313506167,0
3706,-0.8372022018765308,0
3707,0.3044198949775307,0
3708,0.00011637959458074207,0
3709,0.11158618906154016,0
3710,0.07014652011645883,0
3711,0.08720011906774436,0
3712,-0.006089092852023623,0
3713,0.07417149503304796,0
3714,0.0644383419722812,0
3715,0.04890107317401951,0
3716,-0.0010548958875344627,0
3717,0.11961361451318125,0
3718,0.05155497243926853,0
3719,0.1127612991421398,0
3720,0.5252074259936822,0
3721,4.216921696663256,0
3722,6.624665355784653,0
3723,-1.2562769547489405,0
3724,-1.2455938848224593,0
3725,1.4131015181582103,0
3726,-0.7593925819394366,0
3727,0.26048819928504324,0
3728,0.05180057486633937,0
3729,0.07445997186692796,0
3730,0.08819090072137159,0
3731,0.055352993683523026,0
3732,-0.02906252345194267,0
3733,0.09392564076091117,0
3734,0.10455808430663914,0
3735,0.1170459960650797,0
3736,0.0754530526732688,0
3737,0.07981420712447149,0
3738,0.07797524360083986,0
3739,-0.041215490503863195,0
3740,0.43432217796682004,0
3741,4.148212062566137,0
3742,6.569436065929397,0
3743,-1.2236900020330914,0
3744,-1.2874092238661934,0
3745,1.391743429709424,0
3746,-0.739887696043487,0
3747,0.3110093196864513,0
3748,-0.024987717809938897,0
3749,-0.021746587035593873,0
3750,0.12154699192660742,0
3751,0.08937158595806846,0
3752,0.006146447418563038,0
3753,0.020097175887963364,0
3754,0.06472790667120266,0
3755,0.0460677748497484,0
3756,0.011836360002058871,0
3757,0.11422676385756819,0
3758,0.04273078996137755,0
3759,0.12343840613709153,0
3760,0.4963733147426173,0
3761,4.21105859918138,0
3762,6.6009557772976635,0
3763,-1.2158785689511757,0
3764,-1.2387790084209618,0
3765,1.445443406158412,0
3766,-0.6674218755246678,0
3767,0.25304074075444055,0
3768,-0.05754030623886437,0
3769,0.03521292149511669,0
3770,0.07379712721906281,0
3771,0.04110001676349585,0
3772,0.02195608304199215,0
3773,-0.013531291031901694,0
3774,0.02663696699694676,0
3775,-0.010153030462855109,0
3776,-0.005115573366965234,0
3777,0.09166166433303108,0
3778,0.0035499382000834107,0
3779,0.0006610688954913277,0
3780,0.49807570743121926,0
3781,4.208237474027533,0
3782,6.544196741269952,0
3783,-1.1499328274243679,0
3784,-1.2159806868493452,0
3785,1.41874247684798,0
3786,-0.7005999204600909,0
3787,0.3731946067856757,0
3788,-0.004949470330749939,0
3789,0.06469709971041139,0
3790,0.06760386671638902,0
3791,0.03912118709569905,0
3792,0.0741220616395281,0
3793,0.05713881278699024,0
3794,0.04409813748507132,0
3795,-0.08712596620136583,0
3796,-0.024411759881577087,0
3797,-0.0028659494137776385,0
3798,-0.09241305821440522,0
3799,-0.033857848675176994,0
3800,0.4747551150880641,0
3801,4.167480141168616,0
3802,6.497183668497256,0
3803,-1.2185065777889508,0
3804,-1.3700878126119522,0
3805,1.341087462851466,0
3806,-0.7772411572961968,0
3807,0.16624748748265633,0
3808,0.05102312751819381,0
3809,0.008980952810327656,0
3810,0.10797508897595699,0
3811,-0.026774303322726414,0
3812,0.15739710629336212,0
3813,0.11048493967354843,0
3814,-0.035353953494086904,0
3815,0.04056926821173809,0
3816,-0.006565020210470611,0
3817,0.014389135418828327,0
3818,0.06889281458663833,0
3819,0.09500211883981885,0
3820,0.38638966968974137,0
3821,4.214477506014711,0
3822,6.427261366727893,0
3823,-1.2660020357056143,0
3824,-1.3403637249636666,0
3825,1.3426477121137488,0
3826,-0.7022760252399655,0
3827,0.21506931027813014,0
3828,-0.152497843246843,0
3829,-0.03967860554994274,0
3830,0.0011058461173675121,0
3831,0.009900310775996778,0
3832,0.014091177215300097,0
3833,0.020507376853473643,0
3834,-0.0006705716785279543,0
3835,0.012871361069500818,0
3836,0.07537057192763819,0
3837,-0.08006364605731667,0
3838,-0.061390047484659774,0
3839,0.0022298715526421252,0
3840,0.4132264939282038,0
3841,4.2254510676134345,0
3842,6.518308056084427,0
3843,-1.181110822630179,0
3844,-1.3326240877452824,0
3845,1.4536930951810612,0
3846,-0.8673447593791398,0
3847,0.199040162204837,0
3848,-0.043613659212717024,0
3849,0.0026989672791740416,0
3850,0.07711495796802978,0
3851,-0.037584741896911245,0
3852,0.0001938713049482784,0
3853,0.007609863177686809,0
3854,0.04773282404696891,0
3855,0.003135582624916207,0
3856,-0.003890608136134739,0
3857,-0.0014654734297170138,0
3858,0.02439743379092163,0
3859,-0.08865030571078145,0
3860,0.38033951044551634,0
3861,4.116859774360418,0
3862,6.476694402868845,0
3863,-1.4128292349374467,0
3864,-1.3848505732775698,0
3865,1.359847046111833,0
3866,-0.8655969274393063,0
3867,0.15338144656501218,0
3868,-0.04600706014493696,0
3869,-0.015099708264180674,0
3870,0.04295865729624908,0
3871,0.05443821552521867,0
3872,-0.09520035207289215,0
3873,0.0039284067088916665,0
3874,0.05841400025508013,0
3875,0.058582204835252796,0
3876,-0.03687607269836446,0
3877,0.07268627763182006,0
3878,0.061732633233629694,0
3879,-0.08793515964878505,0
3880,0.3914924994677411,0
3881,4.285041113250848,0
3882,6.462462186882017,0
3883,-1.3389695472371383,0
3884,-1.2285295964839382,0
3885,1.2729776203634469,0
3886,-0.7913625059864586,0
3887,0.21010498408272232,0
3888,0.005649371789678573,0
3889,-0.013283131584002517,0
3890,-0.06184229395343283,0
3891,-0.08597162864787261,0
3892,0.052463168930017054,0
3893,-0.024064695554933048,0
3894,-0.07988269824812999,0
3895,0.10745411069530478,0
3896,0.009934864723521755,0
3897,-0.06870953026329497,0
3898,0.0028386460176530338,0
3899,0.014741191004609371,0
3900,0.4567109507970187,0
3901,4.1626837284479485,0
3902,6.565165458993174,0
3903,-1.2544779270631656,0
3904,-1.1881679334576531,0
3905,1.4377474851412437,0
3906,-0.7929022560599384,0
3907,0.2735415231798833,0
3908,0.05127606128659387,0
3909,-0.014865211921352185,0
3910,0.07834223139223231,0
3911,0.05996450250887063,0
3912,0.05636434389504388,0
3913,0.0790478979427206,0
3914,0.05675288596399188,0
3915,0.0252548409408043,0
3916,-0.03786148526946348,0
3917,0.08815937234384166,0
3918,-0.02445188758014122,0
3919,0.05447405059788925,0
3920,0.4542104231504573,0
3921,4.162210974303869,0
3922,6.475953613887113,0
3923,-1.3306041942520817,0
3924,-1.313757437768598,0
3925,1.3071000724028938,0
3926,-0.7846275504935647,0
3927,0.24723669835161163,0
3928,-0.0005192077978468067,0
3929,-0.04769483691724136,0
3930,-0.009313695657081643,0
3931,0.10171683864062692,0
3932,-0.015600350017923759,0
3933,0.060087110126138286,0
3934,0.04785019428683275,0
3935,-0.020131871381383178,0
3936,0.12127972799034678,0
3937,0.037405911193035386,0
3938,0.06441614579364918,0
3939,0.02055955820684758,0
3940,0.49652719978490456,0
3941,4.230392222594404,0
3942,6.53349093598514,0
3943,-1.2160587759083277,0
3944,-1.266137313515518,0
3945,1.41994444973138,0
3946,-0.6969422945872148,0
3947,0.28362274843570145,0
3948,-0.03321717248952038,0
3949,-0.08307164436587763,0
3950,-0.0028134155968313826,0
3951,-0.024170615300583086,0
3952,-0.002128732608248125,0
3953,-0.04474967775898659,0
3954,-0.029629881983444257,0
3955,0.04401993455326951,0
3956,0.003315643910841973,0
3957,-0.08259612474946416,0
3958,0.09268657038276669,0
3959,-0.07090478707307042,0
3960,0.41207929493071543,0
3961,4.24136267530524,0
3962,6.489595399337362,0
3963,-1.3124927155799857,0
3964,-1.3333964518350563,0
3965,1.3511332835406653,0
3966,-0.8399384134013727,0
3967,0.2087112483116588,0
3968,-0.0546396598782371,0
3969,-0.07488764328739349,0
3970,-0.05506115725406348,0
3971,-0.039523375327239096,0
3972,0.013258695294689558,0
3973,-0.03554318571413372,0
3974,0.03691398915699988,0
3975,-0.04159585651395939,0
3976,-0.09401730767859125,0
3977,-0.08204566513973222,0
3978,0.00473563643334312,0
3979,-0.06750227425247873,0
3980,0.34567910703296983,0
3981,4.229310361357594,0
3982,6.4708269052078125,0
3983,-1.2196827829596735,0
3984,-1.350594663029433,0
3985,1.4758771097698564,0
3986,-0.7926655653458983,0
3987,0.2985737773871663,0
3988,-0.05486911628633381,0
3989,0.06804438867571197,0
3990,0.05573854964188712,0
3991,0.02992740899636153,0
3992,0.07868340980033228,0
3993,-0.02403836450177091,0
3994,0.07304381720121646,0
3995,0.013507945174962364,0
3996,-0.004649579327884269,0
3997,0.07025677543538078,0
3998,0.09234620087490505,0
3999,0.04186214639312753,0
4000,0.37720348566597317,0
4001,4.369573422036524,0
4002,6.5283340883719925,0
4003,-1.2786067754958639,0
4004,-1.2472641258343327,0
4005,1.3686965058417018,0
4006,-0.7573924017039138,0
4007,0.2641623835512467,0
4008,0.02817390561327036,0
4009,0.10153666696569347,0
4010,0.009201232642716946,0
4011,0.01820060504802713,0
4012,-0.006670923133826841,0
4013,-0.008545718297035262,0
4014,0.014014260304788041,0
4015,0.0126054209807124,0
4016,0.004453175656732693,0
4017,0.07318708697728331,0
4018,0.02857821129083395,0
4019,-0.035477135236743194,0
4020,0.4747927101521474,0
4021,4.238478184058397,0
4022,6.424897139061034,0
4023,-1.2579674218006314,0
4024,-1.3427290766513447,0
4025,1.3822685049223493,0
4026,-0.8694829605771844,0
4027,0.1757534529597617,0
4028,-0.04440634463866394,0
4029,-0.05028745765803894,0
4030,-0.008834631934458426,0
4031,0.05158659793909183,0
4032,0.07273187568944256,0
4033,-0.07030005020607333,0
4034,0.012660023539996984,0
4035,-0.06578704957671155,0
4036,0.0456948858955866,0
4037,0.05447060711180262,0
4038,0.08205188718352613,0
4039,-0.038972373938038304,0
4040,0.4928546129436917,0
4041,4.277345126208867,0
4042,6.412165816796106,0
4043,-1.2705781302461674,0
4044,-1.184088575239203,0
4045,1.404241995522563,0
4046,-0.847600144223206,0
4047,0.19841821022472977,0
4048,-0.09409171024712608,0
4049,-0.002628233943636253,0
4050,-0.03881921378016598,0
4051,-0.0014099158671368565,0
4052,-0.11624710148376316,0
4053,0.01236186423389709,0
4054,0.0259631688571318,0
4055,0.008766497499686311,0
4056,-0.019306467719474,0
4057,0.008751332231930782,0
4058,-0.054783465290941094,0
4059,-0.030938871638586912,0
4060,0.47994147920108876,0
4061,4.2676485244397036,0
4062,6.530840314267507,0
4063,-1.2835284191912564,0
4064,-1.244668605419441,0
4065,1.4298322049329926,0
4066,-0.7124413770502178,0
4067,0.2829754967617346,0
4068,0.03334772360176877,0
4069,-0.0534146424042771,0
4070,-0.008437104599439249,0
4071,0.06438256943903739,0
4072,0.00575639865935753,0
4073,0.03322452710699025,0
4074,0.012302592335729386,0
4075,-0.010046877868020491,0
4076,-0.053784360091674935,0
4077,-0.05439077195318086,0
4078,-0.12049740552348288,0
4079,-0.04110610693944053,0
4080,0.36102188876958013,0
4081,4.091657428522705,0
4082,6.458921438595329,0
4083,-1.3304973381241945,0
4084,-1.3226426974839423,0
4085,1.4001969240582053,0
4086,-0.9099707932955465,0
4087,0.2641255528951308,0
4088,-0.02619070506684249,0
4089,-0.04276786747116596,0
4090,-0.007012197552486555,0
4091,-0.0226645791381004,0
4092,-0.015110147117614903,0
4093,-0.06001796651638899,0
4094,0.027090566124929147,0
4095,0.04359577478403531,0
4096,-0.10483938862301595,0
4097,0.008815672987274759,0
4098,-0.10948760288218454,0
4099,0.014446154349779316,0
4100,0.4390303217104354,0
4101,4.273990539378599,0
4102,6.439809415043137,0
4103,-1.346320486277108,0
4104,-1.30781659546643,0
4105,1.3203819262213512,0
4106,-0.865785258683492,0
4107,0.29233019012284445,0
4108,-0.05991175645715769,0
4109,0.024842892202544528,0
4110,0.000879742936372812,0
4111,-0.042693496895410216,0
4112,-0.062156741010404706,0
4113,0.04441527501080337,0
4114,-0.01620481035648676,0
4115,-0.023655184865919172,0
4116,0.00786762485407037,0
4117,-0.09197191698753215,0
4118,-0.018058436708700654,0
4119,0.019875170477811017,0
4120,0.4636488357625219,0
4121,4.258643085199681,0
4122,6.569976918121994,0
4123,-1.4255268434968296,0
4124,-1.3319937553777763,0
4125,1.368838319668577,0
4126,-0.7569236106657912,0
4127,0.2944587211215121,0
4128,-0.04426843237018073,0
4129,-0.11820514116223427,0
4130,0.05307799759792227,0
4131,-0.05597993508133432,0
4132,0.02287045438040339,0
4133,0.07654985220430563,0
4134,-0.04310299041192986,0
4135,-0.028888148520552322,0
4136,-0.04382680097319575,0
4137,0.07929404324898373,0
4138,-0.04075951757961169,0
4139,-0.06740523039590716,0
4140,0.44989081792605384,0
4141,4.304464176770576,0
4142,6.45881607751053,0
4143,-1.3802564503033192,0
4144,-1.2089321242299158,0
4145,1.3560864820136462,0
4146,-0.8053976158028192,0
4147,0.22492252049950265,0
4148,-0.0091840127207937,0
4149,-0.020274032784626007,0
4150,-0.07702915413524945,0
4151,0.069602837541206,0
4152,0.0006201136939476956,0
4153,-0.02677665505756051,0
4154,-0.014988144479027691,0
4155,0.05120733473402404,0
4156,-0.003939761352912054,0
4157,0.024339639642113876,0
4158,0.04274069525920166,0
4159,0.011274680021202528,0
4160,0.5088559774190502,0
4161,4.347519300447913,0
4162,6.558089975889883,0
4163,-1.3226526984868598,0
4164,-1.2684808393569762,0
4165,1.4710541998351647,0
4166,-0.8121746017873182,0
4167,0.20453862584896806,0
4168,-0.0016955510826588182,0
4169,-0.01577304016383725,0
4170,0.026465412892539206,0
4171,0.0100506370020165,0
4172,0.06481894008419424,0
4173,0.06788060716851732,0
4174,-0.03354239906430154,0
4175,-0.028107154544527536,0
4176,-0.013290649072993032,0
4177,-0.02492153980681035,0
4178,-0.00627240412859147,0
4179,0.10289291413758965,0
4180,0.5598783971494325,0
4181,4.287278022761242,0
4182,6.5128131049997275,0
4183,-1.3238666031260706,0
4184,-1.2825469828380214,0
4185,1.4729723741570933,0
4186,-0.7410033273709602,0
4187,0.21820896742740634,0
4188,-0.034873618383438124,0
4189,0.02735495179409227,0
4190,-0.004705983134882817,0
4191,0.07679970262490657,0
4192,0.003963181134089289,0
4193,0.023361016580074237,0
4194,-0.056018380380697945,0
4195,-0.013135779126638276,0
4196,0.05912077141315815,0
4197,0.01932979564251479,0
4198,-0.005057348385839741,0
4199,-0.05973321057777313,0
4200,0.38994804507702885,0
4201,4.173238165554876,0
4202,6.423708109738433,0
4203,-1.3490560132967193,0
4204,-1.3514538313213558,0
4205,1.3135462001971758,0
4206,-0.7649856490860614,0
4207,0.2124161053180962,0
4208,-0.02060718911069636,0
4209,-0.09608240015432845,0
4210,0.06253529703656116,0
4211,-0.013766638799699013,0
4212,-0.04465927663098379,0
4213,0.011029815273179006,0
4214,0.014760744545733624,0
4215,-0.0016058090790806098,0
4216,0.01430785985287424,0
4217,-0.06903780313834497,0
4218,-0.06701729059821591,0
4219,0.01944756614080577,0
4220,0.518916200810719,0
4221,4.2187899227957555,0
4222,6.562033548510826,0
4223,-1.4027991903042574,0
4224,-1.093911568526142,0
4225,1.4787783748035923,0
4226,-0.7299296794120367,0
4227,0.2617227290552983,0
4228,0.07657745992925188,0
4229,-0.1083001864970387,0
4230,0.14527934187272035,0
4231,0.07150820073622248,0
4232,-0.06137068795833782,0
4233,0.014464567234658143,0
4234,-0.060621431596049116,0
4235,0.03905815534641616,0
4236,-0.00955821989343502,0
4237,0.08244402823279741,0
4238,-0.10276295382538626,0
4239,-0.051508078366585004,0
4240,0.40314111095642874,0
4241,4.246445830250774,0
4242,6.4199176387026045,0
4243,-1.3498235461583334,0
4244,-1.2201155922315214,0
4245,1.3458914867530065,0
4246,-0.7860736960429653,0
4247,0.26339450103372475,0
4248,-0.01775031680951509,0
4249,0.04879029205402639,0
4250,-0.03641156072086675,0
4251,0.0063202565895025715,0
4252,0.027331664116818317,0
4253,-0.020571268661523194,0
4254,-0.019407606433569157,0
4255,0.01650219685267347,0
4256,0.001168224455328562,0
4257,0.07181764646703383,0
4258,0.0070174089096493725,0
4259,0.06363192875128668,0
4260,0.5145833966299524,0
4261,4.323507976834196,0
4262,6.526272153068405,0
4263,-1.356801355920037,0
4264,-1.1775308883792108,0
4265,1.4919724278420703,0
4266,-0.7844668746350554,0
4267,0.28303704479030833,0
4268,0.04590981454910024,0
4269,0.03617211262711229,0
4270,0.1986850615021191,0
4271,0.07735220507759968,0
4272,0.06221804325522616,0
4273,0.058168407723381776,0
4274,0.09694839137450603,0
4275,0.05040983862478796,0
4276,0.01569885686761835,0
4277,0.026926657608907816,0
4278,0.004347050553220454,0
4279,0.019388135208387065,0
4280,0.5258517132065452,0
4281,4.357688592522734,0
4282,6.48642737514757,0
4283,-1.3838448754043022,0
4284,-1.1375568509121574,0
4285,1.4361346674272502,0
4286,-0.7789750056055917,0
4287,0.23984875351801718,0
4288,-0.07313246196732874,0
4289,-0.011586695599376976,0
4290,0.064983583066603,0
4291,0.018910384862684475,0
4292,0.0069430901439586565,0
4293,0.08226539162052113,0
4294,-0.014476026697765574,0
4295,-0.03779348789095457,0
4296,0.12683549601524852,0
4297,0.03376089023825961,0
4298,0.11624658290363196,0
4299,0.018114245435195145,0
4300,0.4738879583378269,0
4301,4.297211890817282,0
4302,6.5299228323173395,0
4303,-1.3724842583670094,0
4304,-1.1135309231781152,0
4305,1.4844995585123957,0
4306,-0.7532026182752792,0
4307,0.38969610565014057,0
4308,-0.004669069575529896,0
4309,0.08081110665315078,0
4310,0.010721711931478181,0
4311,0.047649803336102754,0
4312,0.04158312300983621,0
4313,-0.016631087970081067,0
4314,-0.005719040588771991,0
4315,0.0904256591616705,0
4316,-0.00362911500388903,0
4317,0.04052933230631651,0
4318,0.025855475257785757,0
4319,0.058862282183839765,0
4320,0.3771354330465379,0
4321,4.410241299966056,0
4322,6.449637571033166,0
4323,-1.3485626911253625,0
4324,-1.323183906945108,0
4325,1.3749866043855725,0
4326,-0.68515839813116,0
4327,0.30505019248685233,0
4328,0.001580457261991415,0
4329,0.06485338816883773,0
4330,-0.06865549672908262,0
4331,-0.02505294470720117,0
4332,0.002733636542898944,0
4333,0.008339239392774832,0
4334,0.07941413039780947,0
4335,-0.0829013023692831,0
4336,-0.02419124451267742,0
4337,-0.03866483834416369,0
4338,0.012082471321676653,0
4339,0.04014978166474255,0
4340,0.4883615391911664,0
4341,4.2110208245312855,0
4342,6.552963990217559,0
4343,-1.3590986489517491,0
4344,-1.2000877449465113,0
4345,1.361358880088666,0
4346,-0.7680962011978385,0
4347,0.27579832993065656,0
4348,0.01935183418619034,0
4349,0.10236956030231899,0
4350,0.0690076548023707,0
4351,-0.00959738480229746,0
4352,-0.038600853276548094,0
4353,0.009040347903294768,0
4354,-0.018605270611913124,0
4355,0.020813222880981145,0
4356,-0.03872991011382649,0
4357,-0.04487187934806785,0
4358,0.0225408347013345,0
4359,0.05354060914547472,0
4360,0.30957178956536496,0
4361,4.249712030503374,0
4362,6.448031342696306,0
4363,-1.3958623518938782,0
4364,-1.3194149741132293,0
4365,1.3472661779079018,0
4366,-0.7230728529987069,0
4367,0.2725503878179761,0
4368,-0.026862927824448383,0
4369,0.003895350705791072,0
4370,0.006329577526980455,0
4371,0.0827254082916951,0
4372,0.11939509157272596,0
4373,0.13756328727148745,0
4374,0.004675346119074324,0
4375,0.01635004229669958,0
4376,0.014586657679828176,0
4377,-0.03169765625760835,0
4378,0.04250399200768095,0
4379,0.023333860706835942,0
4380,0.4506551446200891,0
4381,4.380461542096932,0
4382,6.474678124200597,0
4383,-1.5060624891598626,0
4384,-1.2607614257912945,0
4385,1.3786891784130255,0
4386,-0.7889642437996698,0
4387,0.2761915050291011,0
4388,-0.09745397640969103,0
4389,-0.012930133093384751,0
4390,0.1814729142436599,0
4391,-0.02948018539374621,0
4392,0.022163816988487513,0
4393,0.034872075272013976,0
4394,-0.03995525325730488,0
4395,-0.08166545185073629,0
4396,0.057058543095510776,0
4397,-0.023046159547718634,0
4398,-0.011534572618487657,0
4399,0.014065399232108115,0
4400,0.4857687561437683,0
4401,4.325500668294329,0
4402,6.442592146922047,0
4403,-1.4311786747433721,0
4404,-1.2505526564673848,0
4405,1.3302211871179057,0
4406,-0.8399208933558904,0
4407,0.29642779193665175,0
4408,-0.010090764873967872,0
4409,-0.05767584945777923,0
4410,-0.05183830022699906,0
4411,-0.009008988263498132,0
4412,-0.045790100143386706,0
4413,-0.050492388661517125,0
4414,-0.05397742362910522,0
4415,0.063675810094225,0
4416,-0.04856689560429565,0
4417,-0.036483797334538194,0
4418,-0.013867540132820396,0
4419,-0.038196856610541965,0
4420,0.4711736823189274,0
4421,4.362294293191899,0
4422,6.524184886125022,0
4423,-1.3962269348408582,0
4424,-1.062896013054225,0
4425,1.3602603799182675,0
4426,-0.7535178510059174,0
4427,0.27961663692095073,0
4428,-0.026947848419940718,0
4429,0.019922796405914715,0
4430,0.050031442708012915,0
4431,0.024055272709849137,0
4432,0.08325725508944082,0
4433,0.049900654553752685,0
4434,0.08218553512108052,0
4435,0.06648523467674185,0
4436,0.08188810212733895,0
4437,0.03095992249558487,0
4438,0.06341459497446726,0
4439,0.06339771785675712,0
4440,0.4826428887187081,0
4441,4.313706268615813,0
4442,6.4938699296461015,0
4443,-1.338725003738073,0
4444,-1.1680592411393087,0
4445,1.4517659902913238,0
4446,-0.7593320273444931,0
4447,0.270235124866888,0
4448,0.006327245944023476,0
4449,0.05959588439771392,0
4450,0.08424757905428766,0
4451,0.109514809120119,0
4452,0.04319517669706353,0
4453,0.21260224806694344,0
4454,0.029447734589538963,0
