timestamp,value-0,is_anomaly
0,0.3403852067659419,0.0
1,3.603404181117787,0.0
2,6.962105083138934,0.0
3,-0.24094644038774227,0.0
4,-1.9307026490855523,0.0
5,1.4897230163202382,0.0
6,-0.7423960800121205,0.0
7,0.18717733376723955,0.0
8,0.058944862498179935,0.0
9,-0.1623461138432788,0.0
10,0.014949171945616013,0.0
11,-0.03359425899870605,0.0
12,-0.05267681668438836,0.0
13,-0.04861056750039641,0.0
14,-0.12535188354810164,0.0
15,-0.10772387129781147,0.0
16,-0.08591014645244452,0.0
17,-0.0900724278659627,0.0
18,-0.06183078953577762,0.0
19,-0.034550776218348074,0.0
20,0.2805099272961466,0.0
21,3.5501300378745144,0.0
22,6.906221552043336,0.0
23,-0.29004587533367604,0.0
24,-1.984022277045052,0.0
25,1.5436795479943906,0.0
26,-0.8453533438494634,0.0
27,0.13968669694524932,0.0
28,-0.08538866106221543,0.0
29,-0.04162666585629266,0.0
30,-0.04132081261838128,0.0
31,-0.046002528158703426,0.0
32,0.02347078475938954,0.0
33,0.014218675019845153,0.0
34,0.03288873602767288,0.0
35,0.005949465311496966,0.0
36,-0.05398240105228206,0.0
37,-0.0025015295661588444,0.0
38,-0.03823388124450217,0.0
39,-0.034327077999579916,0.0
40,0.20461036245572645,0.0
41,3.483929868447026,0.0
42,6.961314220478386,0.0
43,-0.3139406396700909,0.0
44,-2.0446782339227565,0.0
45,1.6190804890481376,0.0
46,-0.8445134671083265,0.0
47,0.05390112620113294,0.0
48,-0.1379644895839595,0.0
49,-0.1654919255206725,0.0
50,-0.06953559422019856,0.0
51,-0.04688966238591072,0.0
52,-0.0725282076777831,0.0
53,-0.09627039496149079,0.0
54,-0.07922432251728666,0.0
55,-0.06289800358782215,0.0
56,-0.11318028820610034,0.0
57,-0.1050354106639946,0.0
58,-0.024061778817374334,0.0
59,-0.04276425942411053,0.0
60,0.2396786154634737,0.0
61,3.5252449903126624,0.0
62,6.844719827846076,0.0
63,-0.20981095028301927,0.0
64,-2.046393372099722,0.0
65,1.5592174793019953,0.0
66,-0.6943928248541773,0.0
67,0.059422184240508866,0.0
68,0.02781991059531727,0.0
69,-0.17514612995549766,0.0
70,-0.04087976017766886,0.0
71,-0.08117715918766444,0.0
72,-0.056010441346845324,0.0
73,-0.07595090941193902,0.0
74,-0.16558237493401132,0.0
75,0.01732053522830912,0.0
76,-0.04509118249759918,0.0
77,0.05098172982990285,0.0
78,-0.033288848440262815,0.0
79,-0.06422687474296646,0.0
80,0.30730876039212957,0.0
81,3.4800137571254424,0.0
82,6.865396966890012,0.0
83,-0.3329863114248319,0.0
84,-1.940171083918931,0.0
85,1.5544353675889209,0.0
86,-0.6912143465750265,0.0
87,0.11084031676518968,0.0
88,-0.02117458894737617,0.0
89,0.0007337634810817145,0.0
90,-0.005631501882110382,0.0
91,-0.06265874694699777,0.0
92,-0.009069144670791413,0.0
93,-0.05042565003659901,0.0
94,0.04606736511780801,0.0
95,0.0658770865885646,0.0
96,-0.003971126561608921,0.0
97,-0.009192894162822688,0.0
98,0.020176755580305312,0.0
99,0.055595363326161426,0.0
100,0.3531020511689792,0.0
101,3.5617049314447793,0.0
102,7.006563334897305,0.0
103,-0.22547945775077424,0.0
104,-2.029030818312124,0.0
105,1.6293186869268703,0.0
106,-0.6515294704978276,0.0
107,0.26538646198199556,0.0
108,0.11206399430022398,0.0
109,-0.15084608731563565,0.0
110,0.03455159147318504,0.0
111,0.0023675825988037375,0.0
112,-0.02515189148219911,0.0
113,0.043519507817434216,0.0
114,0.03640351053064646,0.0
115,-0.0533465439823608,0.0
116,0.012261614960893664,0.0
117,-0.0394392206602867,0.0
118,-0.01567730542024164,0.0
119,-0.0456687357549422,0.0
120,0.23667804406841494,0.0
121,3.430260230979416,0.0
122,6.824343700054981,0.0
123,-0.3274694419567717,0.0
124,-1.961867654490077,0.0
125,1.50303154912531,0.0
126,-0.6940389325411516,0.0
127,0.018454641985812745,0.0
128,-0.04693735259232298,0.0
129,-0.09767233300508985,0.0
130,0.03286572732939093,0.0
131,-0.020093157426753324,0.0
132,-0.02155727112100745,0.0
133,0.0173341718414939,0.0
134,-0.06309609541096634,0.0
135,-0.03126577587400841,0.0
136,0.023532173134415364,0.0
137,-0.03836209241157913,0.0
138,0.11499492803240807,0.0
139,0.009267230665902073,0.0
140,0.1362173008120006,0.0
141,3.504089239396211,0.0
142,6.89059405022212,0.0
143,-0.17563010139202084,0.0
144,-1.964103261935529,0.0
145,1.5612259880376491,0.0
146,-0.7512061668015799,0.0
147,0.09881290991629219,0.0
148,-0.039798400690055094,0.0
149,-0.029707708191715018,0.0
150,0.10986981807169682,0.0
151,-0.049613796154163954,0.0
152,0.025255749675764726,0.0
153,0.05429270000611212,0.0
154,0.056640169713025275,0.0
155,-0.05210621321565053,0.0
156,-0.029598930127678814,0.0
157,0.01846941372591612,0.0
158,-0.08411362605582108,0.0
159,-0.10123882989202114,0.0
160,0.3015101202884259,0.0
161,3.489601457487698,0.0
162,6.87195446895009,0.0
163,-0.26184739582432937,0.0
164,-1.9461079004574762,0.0
165,1.5258931413880397,0.0
166,-0.6813547938231782,0.0
167,0.12803406400375944,0.0
168,0.032754766841228244,0.0
169,-0.0905164251034159,0.0
170,0.06280465141473804,0.0
171,-0.07476669191091259,0.0
172,0.019830058737823196,0.0
173,-0.02863609171380064,0.0
174,0.05740234438988452,0.0
175,-0.01933819575076009,0.0
176,-0.016487257520192037,0.0
177,-0.03571165454857884,0.0
178,-0.0920751723396772,0.0
179,-0.0471088714818316,0.0
180,0.22056119767863847,0.0
181,3.5089839438979324,0.0
182,6.801122727844701,0.0
183,-0.33993491901359596,0.0
184,-1.9376457771469404,0.0
185,1.4634342143914643,0.0
186,-0.7708340313342219,0.0
187,0.14653600644955572,0.0
188,0.05282987644271114,0.0
189,-0.23183442652016212,0.0
190,-0.0104995131454056,0.0
191,0.005940088455481392,0.0
192,0.02101299621089204,0.0
193,-0.051447484463494106,0.0
194,0.031053663169470315,0.0
195,0.0203676146053577,0.0
196,0.02458985944441287,0.0
197,-0.0015889190456246215,0.0
198,-0.056369885503114184,0.0
199,0.027274131058740818,0.0
200,0.21232015135771184,0.0
201,3.4784011993322568,0.0
202,6.925864513436826,0.0
203,-0.25370107608651726,0.0
204,-1.949249902782526,0.0
205,1.5767610883681782,0.0
206,-0.7804546697430342,0.0
207,0.1938637683159605,0.0
208,-0.004318821826556549,0.0
209,-0.13281015843810154,0.0
210,-0.015264198802379718,0.0
211,0.0313873559421049,0.0
212,-0.0754731950346218,0.0
213,-0.056330952989589685,0.0
214,-0.04968417194586692,0.0
215,0.03368650759767841,0.0
216,-0.05056809179774422,0.0
217,0.01225211641635652,0.0
218,-0.03743427826902896,0.0
219,0.013824281680878035,0.0
220,0.2817721607960344,0.0
221,3.575848427301687,0.0
222,6.876089886421415,0.0
223,-0.2508580575682168,0.0
224,-1.9292850237873065,0.0
225,1.5638984949128303,0.0
226,-0.786482866955136,0.0
227,0.033751692691503854,0.0
228,0.03930617391677051,0.0
229,-0.057356787877315525,0.0
230,0.012875921931617126,0.0
231,0.040327542619737734,0.0
232,0.02790301363487086,0.0
233,-0.03694875609139496,0.0
234,0.07464085955026971,0.0
235,-0.04470704042276816,0.0
236,-0.008653522252139388,0.0
237,-0.021107174682876973,0.0
238,-0.02227040893052276,0.0
239,0.015515502411845548,0.0
240,0.2359872145080515,0.0
241,3.525077900807643,0.0
242,6.857064932717477,0.0
243,-0.27822920413130636,0.0
244,-1.9926348450134834,0.0
245,1.4943309975113976,0.0
246,-0.7748846660385863,0.0
247,0.18824915628438127,0.0
248,0.016023596849356996,0.0
249,-0.07529650172870367,0.0
250,0.051463764837764506,0.0
251,-0.06014279222742426,0.0
252,-0.05432103786717614,0.0
253,-0.15930551274538515,0.0
254,0.020721197833830293,0.0
255,0.03846906690985591,0.0
256,-0.030871895987681596,0.0
257,-0.045116126754961586,0.0
258,0.012342701853407356,0.0
259,0.029645703975542323,0.0
260,0.30918493441724587,0.0
261,3.560525684360327,0.0
262,6.864070365508412,0.0
263,-0.31082738094490575,0.0
264,-1.8341462975734293,0.0
265,1.572216550034325,0.0
266,-0.7218847635862848,0.0
267,0.17096132649579437,0.0
268,0.0256364964009416,0.0
269,-0.07054858084690546,0.0
270,-0.011896039610277773,0.0
271,-0.06781172902499627,0.0
272,0.054355903168472185,0.0
273,0.004493826821582404,0.0
274,0.05482459182246957,0.0
275,-0.07343805381657442,0.0
276,-0.0346076278932564,0.0
277,-0.13928130281162238,0.0
278,-0.015543598344542022,0.0
279,0.00031600232688255153,0.0
280,0.2538072872621489,0.0
281,3.443629737063154,0.0
282,6.818757519448824,0.0
283,-0.44017402325986593,0.0
284,-1.9448112218729097,0.0
285,1.4101683368511373,0.0
286,-0.7998300124124923,0.0
287,0.05142673474160969,0.0
288,-0.10322614484308398,0.0
289,-0.180638745237984,0.0
290,0.015371425184595333,0.0
291,-0.0938506544956557,0.0
292,0.004554888816828209,0.0
293,-0.0838198730789625,0.0
294,-0.07552128936943159,0.0
295,-0.007985067206101593,0.0
296,-0.036953686002028446,0.0
297,-0.032464098618205386,0.0
298,-0.07220067196157896,0.0
299,0.055130071371790955,0.0
300,0.24167445118786993,0.0
301,3.5809316960511195,0.0
302,6.903305479629808,0.0
303,-0.37117912961385885,0.0
304,-1.8372616910125092,0.0
305,1.4937386478976817,0.0
306,-0.7772602718617532,0.0
307,0.06325388568642418,0.0
308,0.056043051262739674,0.0
309,-0.10233943797888363,0.0
310,-0.027790743135102557,0.0
311,-0.08467508489899518,0.0
312,-0.10866226940927111,0.0
313,0.12049723540228488,0.0
314,-0.0049929486785141065,0.0
315,-0.0016610328259010695,0.0
316,-0.07226999480230063,0.0
317,-0.053323602877489336,0.0
318,-0.022664463909567032,0.0
319,-0.11262649513394493,0.0
320,0.33808300404682545,0.0
321,3.613641170622124,0.0
322,6.833095267539893,0.0
323,-0.3363984607959305,0.0
324,-1.920010393178054,0.0
325,1.5199016267470593,0.0
326,-0.7187144948641286,0.0
327,0.08904949914652985,0.0
328,-0.005030482643762654,0.0
329,-0.14607220112840202,0.0
330,-0.05978769660045025,0.0
331,-0.026344534696945053,0.0
332,-0.10310093554190078,0.0
333,-0.07686127256386148,0.0
334,-0.06630494074876339,0.0
335,-0.10256621907074134,0.0
336,-0.09611409335185367,0.0
337,-0.12505876545427305,0.0
338,-0.10595773317775053,0.0
339,-0.13180500745889367,0.0
340,0.24715114889413883,0.0
341,3.5073017249979213,0.0
342,6.824111172747657,0.0
343,-0.4329126474451054,0.0
344,-1.9443137894642657,0.0
345,1.502582470497595,0.0
346,-0.7896588429498625,0.0
347,0.09567730234690636,0.0
348,-0.0636005971229985,0.0
349,-0.18112045124951337,0.0
350,-0.05621040926273105,0.0
351,-0.09405173995824323,0.0
352,-0.09006341407966588,0.0
353,-0.08611898963491836,0.0
354,-0.05391728731712615,0.0
355,0.050387731735810376,0.0
356,-0.032212298335436956,0.0
357,-0.1138470490706158,0.0
358,-0.03779573317594482,0.0
359,-0.14841595513923356,0.0
360,0.14391202036060824,0.0
361,3.5805311166874256,0.0
362,6.843315581283162,0.0
363,-0.36144279967780646,0.0
364,-1.8188165698651915,0.0
365,1.5038491461673649,0.0
366,-0.7558070334155111,0.0
367,0.06744612524428165,0.0
368,0.03169820991565326,0.0
369,-0.16201195898405285,0.0
370,0.05636584906687596,0.0
371,-0.008047097282811257,0.0
372,0.015299991381334178,0.0
373,-0.024295522731298015,0.0
374,0.10485728221152117,0.0
375,-0.03626943152799067,0.0
376,0.028073554217429735,0.0
377,0.03573092394846092,0.0
378,0.006909934322849816,0.0
379,-0.041925731778680905,0.0
380,0.3374527192873469,0.0
381,3.641332304428586,0.0
382,6.720871017542356,0.0
383,-0.4437725176870899,0.0
384,-1.9796333746317247,0.0
385,1.4705737431045938,0.0
386,-0.7925847683869413,0.0
387,0.07961075193593964,0.0
388,0.03244882235942189,0.0
389,-0.07689369354587038,0.0
390,-0.018432219469736996,0.0
391,-0.0804005502394066,0.0
392,0.02717424886120545,0.0
393,-0.044136198697757784,0.0
394,-0.0038525944770225577,0.0
395,-0.03911223323473165,0.0
396,0.014300053189534204,0.0
397,-0.03092073654397228,0.0
398,-0.0540159163375657,0.0
399,-0.01106231897481495,0.0
400,0.19451210665214366,0.0
401,3.554074006902442,0.0
402,6.796950758042601,0.0
403,-0.3702266788876172,0.0
404,-1.8696227321374788,0.0
405,1.5290163295348458,0.0
406,-0.7169719052909393,0.0
407,0.13305669238605414,0.0
408,0.07633203568994784,0.0
409,-0.0066370013464584,0.0
410,0.005980002930952114,0.0
411,-0.02718601980537097,0.0
412,0.00874871109664694,0.0
413,0.030578387759182347,0.0
414,-0.030423872866158237,0.0
415,0.0052063016487085625,0.0
416,0.058099086037930965,0.0
417,-0.05679386360748207,0.0
418,0.039331045937750345,0.0
419,0.04629565885389965,0.0
420,0.3186297294929233,0.0
421,3.455066583269309,0.0
422,6.920420910574997,0.0
423,-0.3684194252383799,0.0
424,-1.872342504199921,0.0
425,1.5769099295541733,0.0
426,-0.7863128793533911,0.0
427,0.08985509050086354,0.0
428,0.07630860291842337,0.0
429,-0.03888187396757725,0.0
430,0.04295198300893227,0.0
431,-0.050978108521531985,0.0
432,0.01121217634263046,0.0
433,0.02727807827920113,0.0
434,-0.00988303287009547,0.0
435,-0.04422484449623362,0.0
436,0.04014857722914838,0.0
437,0.04196431399261646,0.0
438,-0.062065844561882806,0.0
439,0.03436821194858579,0.0
440,0.24566963889854718,0.0
441,3.577621597810403,0.0
442,6.774274309935285,0.0
443,-0.3133144482973889,0.0
444,-1.9128952682734128,0.0
445,1.4961166812381799,0.0
446,-0.7682702816506537,0.0
447,0.08339167782803876,0.0
448,0.1298383900088788,0.0
449,-0.11575655495036764,0.0
450,0.023723610959895253,0.0
451,-0.033292007780722895,0.0
452,0.011837989204803119,0.0
453,-0.05471231562070189,0.0
454,-0.06580513317045172,0.0
455,0.0450573820574439,0.0
456,0.0006269046164521924,0.0
457,0.0220281500676689,0.0
458,-0.041960013480619986,0.0
459,-0.10720103931896921,0.0
460,0.2388287066987947,0.0
461,3.5853908299027784,0.0
462,6.845189783042582,0.0
463,-0.40191353196666235,0.0
464,-1.9544247545497127,0.0
465,1.5612460644774133,0.0
466,-0.809649904188539,0.0
467,0.20987152170988002,0.0
468,0.10194846565915533,0.0
469,-0.05970156011560096,0.0
470,0.013969271756229848,0.0
471,-0.0009674216713259605,0.0
472,-0.02869014081644827,0.0
473,-0.0012041044838178873,0.0
474,-0.010141261100864784,0.0
475,0.013956213263950253,0.0
476,0.10388412987171204,0.0
477,-0.016166804438663814,0.0
478,0.023764985506420193,0.0
479,0.0013693364210390375,0.0
480,0.31122835699927226,0.0
481,3.6041853280931933,0.0
482,6.842304532873003,0.0
483,-0.40457877109882706,0.0
484,-1.8281720612441823,0.0
485,1.5738423600075586,0.0
486,-0.7555507021270034,0.0
487,0.23969057369977806,0.0
488,0.049351075515789475,0.0
489,0.008786551212169199,0.0
490,0.16433993940684885,0.0
491,-0.002864073164993681,0.0
492,-0.014121246154285907,0.0
493,-0.013790829536452547,0.0
494,0.02493731659932292,0.0
495,-0.0381261722441166,0.0
496,-0.061233204034438854,0.0
497,-0.02400336099026032,0.0
498,0.008245137796920196,0.0
499,-0.010713154199847703,0.0
500,0.25424445896715,0.0
501,3.6192427931777873,0.0
502,6.752158930387179,0.0
503,-0.3355536341428378,0.0
504,-1.9708863177880183,0.0
505,1.4699424603238693,0.0
506,-0.7780473478690606,0.0
507,0.12844465419801027,0.0
508,0.02236388164698342,0.0
509,-0.0010739096072340387,0.0
510,-0.0001723176347713691,0.0
511,-0.06178991140907834,0.0
512,0.038486886053146735,0.0
513,-0.0017302600512725634,0.0
514,-0.012825062060133629,0.0
515,-0.02107732852191153,0.0
516,0.040832029635530925,0.0
517,0.016143741296708952,0.0
518,0.113193607988085,0.0
519,0.03730276632765143,0.0
520,0.24195405311061877,0.0
521,3.587360029576593,0.0
522,6.884313585844709,0.0
523,-0.3271942651337632,0.0
524,-1.8664158203607153,0.0
525,1.5663773026357763,0.0
526,-0.6407004467768884,0.0
527,0.24361196024415488,0.0
528,0.11316894077171342,0.0
529,0.0222050164946294,0.0
530,0.029006495789905207,0.0
531,0.016335042285992016,0.0
532,0.11489850160772014,0.0
533,-0.032409911530780704,0.0
534,0.0456425890607569,0.0
535,-0.00200235946516881,0.0
536,-0.03157439206434891,0.0
537,0.003880597668842195,0.0
538,0.002509792893520129,0.0
539,-0.1083756993227533,0.0
540,0.3133898894317355,0.0
541,3.6225322625918897,0.0
542,6.857781552157328,0.0
543,-0.44416165700905974,0.0
544,-1.8536492687956154,0.0
545,1.584922022293333,0.0
546,-0.6450544275964953,0.0
547,0.16126874097836635,0.0
548,0.00808051329511577,0.0
549,-0.07762782757120651,0.0
550,0.043937311628845635,0.0
551,0.05220023121624193,0.0
552,0.048130294905601764,0.0
553,-0.027892782578647426,0.0
554,-0.011904578099880117,0.0
555,-0.017018125424573673,0.0
556,-0.0004115186125667452,0.0
557,0.061520103547325775,0.0
558,-0.053577710976018295,0.0
559,-0.031203184695246015,0.0
560,0.25392381228324795,0.0
561,3.5667733287872916,0.0
562,6.83101458925162,0.0
563,-0.38793714691875636,0.0
564,-1.9162809407175627,0.0
565,1.5978236357249893,0.0
566,-0.7030805690721623,0.0
567,0.08591104187432147,0.0
568,0.047983905604963295,0.0
569,-0.010907457566803218,0.0
570,0.02941573809456991,0.0
571,-0.01704225305898541,0.0
572,-0.010770893624121647,0.0
573,0.10174670569559491,0.0
574,0.062132292096485964,0.0
575,-0.00262262440872611,0.0
576,0.10827728399356912,0.0
577,0.029429907125299793,0.0
578,0.009864149700380718,0.0
579,-0.030312566481049723,0.0
580,0.2911618580703861,0.0
581,3.5798215565409794,0.0
582,6.911476134353606,0.0
583,-0.3935419580509944,0.0
584,-1.8951192859081296,0.0
585,1.5370602133813567,0.0
586,-0.7271904713309519,0.0
587,0.13437763347387807,0.0
588,0.028287300340578886,0.0
589,-0.10888069909516529,0.0
590,-0.016567009341599215,0.0
591,0.03429668231849112,0.0
592,0.08939223576769785,0.0
593,0.0010428971140063227,0.0
594,0.12758775370636077,0.0
595,0.07514963970842915,0.0
596,0.05955947531276222,0.0
597,-0.05632772411505921,0.0
598,-0.04363189572367486,0.0
599,-0.0035125927567642816,0.0
600,0.35759327779998157,0.0
601,3.6186568106795782,0.0
602,6.936213797419702,0.0
603,-0.3520266781582635,0.0
604,-1.8166022627991278,0.0
605,1.6101409448916808,0.0
606,-0.7589197399131373,0.0
607,0.17100767813507317,0.0
608,0.05951589485806975,0.0
609,0.010750940896049457,0.0
610,0.013119901520319097,0.0
611,0.023864425399667377,0.0
612,0.08871747432442931,0.0
613,-0.03988696976254055,0.0
614,-0.002075152314338906,0.0
615,0.06745879998108498,0.0
616,-0.0047057527207963745,0.0
617,0.0007192300451783554,0.0
618,0.06991813005537625,0.0
619,0.04419480490878234,0.0
620,0.29745879916888246,0.0
621,3.6201240824285787,0.0
622,6.9029596879719355,0.0
623,-0.46698526316752814,0.0
624,-1.7809846271037575,0.0
625,1.556376542450675,0.0
626,-0.6592684378921171,0.0
627,0.15317960249883023,0.0
628,0.14410522526935488,0.0
629,0.0762449998435849,0.0
630,0.099846785301243,0.0
631,0.014268253071363445,0.0
632,0.07248423403838009,0.0
633,0.08786871006928494,0.0
634,-0.02494277588329729,0.0
635,0.04350090320076484,0.0
636,0.03723005071501541,0.0
637,-0.056909364634757875,0.0
638,0.03122835799952126,0.0
639,0.13175309643003816,0.0
640,0.3184098833013145,0.0
641,3.577154869377665,0.0
642,6.961799099256206,0.0
643,-0.4462393195175732,0.0
644,-1.8293334092344107,0.0
645,1.579143209855637,0.0
646,-0.6269767712160462,0.0
647,0.26999480157736566,0.0
648,-0.0017446899272401117,0.0
649,-0.0011328119579909173,0.0
650,0.02076119156315965,0.0
651,0.025016449828673626,0.0
652,0.0025795379054622397,0.0
653,0.11984146463835169,0.0
654,-0.0022894970954467977,0.0
655,0.011033218239610003,0.0
656,0.042544112075579815,0.0
657,0.07656013678766214,0.0
658,0.011791164372188715,0.0
659,-0.035732204266713835,0.0
660,0.2933914177868715,0.0
661,3.680896337823835,0.0
662,6.8135696740502025,0.0
663,-0.5048660593109285,0.0
664,-1.7268831453265936,0.0
665,1.565063633929861,0.0
666,-0.713874264713001,0.0
667,0.17388709826220972,0.0
668,0.11144312719751795,0.0
669,0.00894295408026775,0.0
670,0.12598110933261605,0.0
671,0.013386299302119209,0.0
672,0.08893100076102749,0.0
673,0.056428365323298896,0.0
674,0.07100641671841071,0.0
675,0.09230954287185333,0.0
676,0.0593302815375646,0.0
677,0.11072633252198036,0.0
678,0.022220344957760624,0.0
679,0.04522944101990237,0.0
680,0.23148556539699447,0.0
681,3.704915884551133,0.0
682,6.943621568034056,0.0
683,-0.42303333402118737,0.0
684,-1.7104907895753705,0.0
685,1.5237820912930045,0.0
686,-0.6828820193289806,0.0
687,0.07034131855349925,0.0
688,0.01637026546612539,0.0
689,-0.08037538717486364,0.0
690,-0.05114501232076052,0.0
691,-0.025944528627866503,0.0
692,-0.052832840399191686,0.0
693,-0.05917671688681546,0.0
694,0.03821877687453381,0.0
695,-0.004642187071349127,0.0
696,0.0070649761618873045,0.0
697,0.01660323091651037,0.0
698,0.015361632094078946,0.0
699,0.08364493213323873,0.0
700,0.4074382008459916,0.0
701,3.689109225672801,0.0
702,6.824294600423297,0.0
703,-0.3204685679256979,0.0
704,-1.6681940216062687,0.0
705,1.5854787689336758,0.0
706,-0.7586620864184834,0.0
707,0.23600671259798184,0.0
708,0.13521594850515817,0.0
709,-0.0775339168929467,0.0
710,-0.029240502958189557,0.0
711,-0.024906077779605726,0.0
712,-0.0010619048168057504,0.0
713,0.034378899272554025,0.0
714,0.02041086567016617,0.0
715,-0.045775979414170276,0.0
716,0.0471845608468794,0.0
717,-0.0054628554760719275,0.0
718,-0.03079561805807935,0.0
719,0.04834238051909666,0.0
720,0.238901888457277,0.0
721,3.692319972985176,0.0
722,6.87403202495663,0.0
723,-0.35824733551416615,0.0
724,-1.83279295076418,0.0
725,1.608505714962643,0.0
726,-0.7298796871081072,0.0
727,0.175035550084696,0.0
728,0.061755729976269075,0.0
729,0.02837097944988555,0.0
730,0.05435316484592653,0.0
731,-0.014539725985273245,0.0
732,0.01729797454459289,0.0
733,0.024831351761781528,0.0
734,0.10576171869091122,0.0
735,0.039615677058082,0.0
736,0.05005285037733552,0.0
737,0.022942623962545,0.0
738,0.028100259462581757,0.0
739,0.017763104814250787,0.0
740,0.2797229862758692,0.0
741,3.6010776003001244,0.0
742,6.877342573450981,0.0
743,-0.4244710672976486,0.0
744,-1.8516367536927139,0.0
745,1.5455177256791905,0.0
746,-0.8301037591887834,0.0
747,0.1814168418488411,0.0
748,0.021848804077864575,0.0
749,-0.10491298315159038,0.0
750,0.13470517377305588,0.0
751,0.00847287878066377,0.0
752,0.031932710383318665,0.0
753,0.11281111271671856,0.0
754,-0.05018586943436125,0.0
755,-0.028115530490724534,0.0
756,-0.0034132279614028285,0.0
757,-0.08180459543190148,0.0
758,-0.04756680397674689,0.0
759,-0.06172943960027452,0.0
760,0.26274874895717637,0.0
761,3.525339784969171,0.0
762,6.904114022109672,0.0
763,-0.3956306151503891,0.0
764,-1.9790010897648476,0.0
765,1.521405288187568,0.0
766,-0.6464860149172457,0.0
767,0.14095618994201936,0.0
768,0.11624428774438286,0.0
769,-0.05883170075035361,0.0
770,-0.029985835073658082,0.0
771,-0.033054881712517276,0.0
772,0.04626124947201897,0.0
773,-0.10296433282211041,0.0
774,0.03658628163895404,0.0
775,0.020433818837892255,0.0
776,0.11661467978008144,0.0
777,-0.08825847088191222,0.0
778,-0.031089533496307737,0.0
779,0.057138351844192886,0.0
780,0.19732678035121054,0.0
781,3.554014582449546,0.0
782,6.828157641156831,0.0
783,-0.5527483739600049,0.0
784,-1.8167239116206706,0.0
785,1.4364590441856575,0.0
786,-0.7107222636166293,0.0
787,0.1673380935396358,0.0
788,-0.05426881635562463,0.0
789,-0.026308222817940013,0.0
790,0.07498676259805309,0.0
791,0.09457842644936415,0.0
792,0.0803403348710699,0.0
793,0.04477467503701672,0.0
794,0.09324816225952078,0.0
795,-0.10142519819490659,0.0
796,0.007331651202941906,0.0
797,0.016111508245116733,0.0
798,0.05338936829628377,0.0
799,-0.07295780055442942,0.0
800,0.3926125863934541,0.0
801,3.648145754748563,0.0
802,6.783156182393893,0.0
803,-0.4677389269290434,0.0
804,-1.8175578028907702,0.0
805,1.5267723116912346,0.0
806,-0.7994230123576477,0.0
807,0.1612553995420238,0.0
808,-0.08324956253575999,0.0
809,-0.08334802781494088,0.0
810,0.010663397724147216,0.0
811,-0.02751920117141816,0.0
812,0.022898652924026135,0.0
813,0.05811901833248947,0.0
814,0.08680211669837255,0.0
815,-0.08284766616116966,0.0
816,0.1008214528963285,0.0
817,-0.01983435061266317,0.0
818,-3.999520846096477e-06,0.0
819,-0.01741427145221423,0.0
820,0.25347815549113206,0.0
821,3.626971626651028,0.0
822,6.781458935348752,0.0
823,-0.5093983393348844,0.0
824,-1.8480520033022128,0.0
825,1.4294400375549319,0.0
826,-0.8027865325806434,0.0
827,0.11650352833386203,0.0
828,-0.02406217470085745,0.0
829,-0.020054195645661542,0.0
830,0.06970214012707139,0.0
831,0.02431217833154306,0.0
832,-0.013766852379717687,0.0
833,0.057955170059734926,0.0
834,0.07694971868696518,0.0
835,0.07699394102018724,0.0
836,0.07663762630226766,0.0
837,0.06656077323200961,0.0
838,0.08938052755384479,0.0
839,0.12572953949521987,0.0
840,0.44800815192881427,0.0
841,3.6990521178716187,0.0
842,6.910721560328681,0.0
843,-0.4643165858653103,0.0
844,-1.7498776697124807,0.0
845,1.6136054811435598,0.0
846,-0.6714079742764932,0.0
847,0.09836905694040726,0.0
848,0.010976694312865319,0.0
849,-0.12189280835030183,0.0
850,0.05776863437515531,0.0
851,-0.05006954549965807,0.0
852,0.007431461081920301,0.0
853,-0.047931792171129244,0.0
854,-0.02050216516584136,0.0
855,-0.10313754457958124,0.0
856,0.02784291477258114,0.0
857,0.022939947132754653,0.0
858,-0.02174270112585213,0.0
859,0.017473699459757852,0.0
860,0.21221328846127674,0.0
861,3.6379352786785937,0.0
862,6.779937408550707,0.0
863,-0.5776590736752428,0.0
864,-1.8553830861555456,0.0
865,1.5932511452703746,0.0
866,-0.7009526884781762,0.0
867,0.07005358148609336,0.0
868,-0.043739321281747734,0.0
869,-0.06570424111471054,0.0
870,0.050924059913768124,0.0
871,-0.023925197861337788,0.0
872,0.007020098357913986,0.0
873,0.11821895243550959,0.0
874,0.011741536956268147,0.0
875,0.0003102898960877908,0.0
876,-0.02819288782594635,0.0
877,0.03631775536826592,0.0
878,-0.0970278728999174,0.0
879,-0.01819055229593196,0.0
880,0.26066113369770594,0.0
881,3.728557400060519,0.0
882,6.825148632157517,0.0
883,-0.47573156420326773,0.0
884,-1.7909544354079239,0.0
885,1.6003353079387628,0.0
886,-0.7179536179873177,0.0
887,0.16855443331008133,0.0
888,0.006967133391519914,0.0
889,-0.02144655542034395,0.0
890,0.03231462661382005,0.0
891,0.030019924250895686,0.0
892,-0.023559440359394834,0.0
893,-0.06693965308662968,0.0
894,-0.005274254632687576,0.0
895,0.012661100651101374,0.0
896,-0.08751963857590293,0.0
897,-0.04612508384148332,0.0
898,0.05735949569024015,0.0
899,-0.011044051264193612,0.0
900,0.2768681279170473,0.0
901,3.6861554612059515,0.0
902,6.726468115424725,0.0
903,-0.542436281945085,0.0
904,-1.8336538989802869,0.0
905,1.5430964648033634,0.0
906,-0.626722848244359,0.0
907,0.2239321343844767,0.0
908,0.051404256152699994,0.0
909,-0.02462676434403733,0.0
910,0.0009449539020913861,0.0
911,0.06191637446862336,0.0
912,0.04602564816388702,0.0
913,0.14051240692399025,0.0
914,0.1245135641305332,0.0
915,0.04774955358504672,0.0
916,0.03267018984946089,0.0
917,0.020860356381638166,0.0
918,0.08690753992652409,0.0
919,0.07887103799560084,0.0
920,0.36857245134583455,0.0
921,3.72772451478159,0.0
922,6.816162047936052,0.0
923,-0.433177343446905,0.0
924,-1.7228378097336066,0.0
925,1.548575152991133,0.0
926,-0.77044067897082,0.0
927,0.14971351475575995,0.0
928,0.11143343518831951,0.0
929,0.01652638476540916,0.0
930,0.04716857080618673,0.0
931,0.05690109587568942,0.0
932,-0.015056099522203225,0.0
933,0.026496694788135964,0.0
934,0.0042315982290708,0.0
935,0.08792849988602491,0.0
936,0.11594871344377794,0.0
937,0.04185360168173596,0.0
938,-0.045247498569311026,0.0
939,-0.028146870471687367,0.0
940,0.30152550091893005,0.0
941,3.7219420590304546,0.0
942,6.92225205759889,0.0
943,-0.5278039152877871,0.0
944,-1.8126313782957526,0.0
945,1.5770840917276372,0.0
946,-0.7392267809182043,0.0
947,0.23907369358585914,0.0
948,0.01960265485825377,0.0
949,-0.09526846824912573,0.0
950,-0.0031955269005075684,0.0
951,0.05422631789922275,0.0
952,0.09810459843508403,0.0
953,0.04842604899931843,0.0
954,0.10713887995357653,0.0
955,-0.0686621212448533,0.0
956,-0.044657098747383106,0.0
957,-0.060389908670387786,0.0
958,0.029365034781010532,0.0
959,-0.02379417856446476,0.0
960,0.28264715051349604,0.0
961,3.7165125210674472,0.0
962,6.823868462958481,0.0
963,-0.5052964238791734,0.0
964,-1.7764955290519886,0.0
965,1.4502920731805982,0.0
966,-0.8325223602735519,0.0
967,0.07455269440542583,0.0
968,-0.0062747271288604006,0.0
969,0.007437993862047895,0.0
970,-0.025649445468328865,0.0
971,-0.034889786099943115,0.0
972,0.034348342633313614,0.0
973,-0.026240836490896466,0.0
974,-0.04805551150451991,0.0
975,0.03542337272729467,0.0
976,0.023796027988272475,0.0
977,0.0197676005272383,0.0
978,0.04391835293458185,0.0
979,0.00041468848508956213,0.0
980,0.2257061745381472,0.0
981,3.63927090155327,0.0
982,6.754334972489059,0.0
983,-0.49513736286401844,0.0
984,-1.8029246328767765,0.0
985,1.5874122451610277,0.0
986,-0.7901147108928149,0.0
987,0.1545622168755793,0.0
988,0.0031772302019422924,0.0
989,-0.12458799653990749,0.0
990,-0.05104684652197747,0.0
991,-0.04597931979599923,0.0
992,-0.06562622875834159,0.0
993,-0.06943629150221402,0.0
994,-0.06272982593618925,0.0
995,-0.07100739580595317,0.0
996,-0.04986012927590706,0.0
997,0.0026761746145773993,0.0
998,-0.03724782835618062,0.0
999,-0.021770426622362043,0.0
1000,0.25994100390002717,0.0
1001,3.6492219486031394,0.0
1002,6.880650138575146,0.0
1003,-0.5016817625477107,0.0
1004,-1.7610470255087325,0.0
1005,1.4914428019186117,0.0
1006,-0.8166596850088996,0.0
1007,0.0986275426649168,0.0
1008,-0.035220501993543284,0.0
1009,0.0559549512039486,0.0
1010,0.15687785875235638,0.0
1011,0.04387189490719251,0.0
1012,0.019048199329747488,0.0
1013,-0.017233273025393278,0.0
1014,0.04804298695258126,0.0
1015,-0.04520762077977075,0.0
1016,-0.06574916602028312,0.0
1017,0.030247641281886433,0.0
1018,-0.0681257000978555,0.0
1019,-0.0640137967622932,0.0
1020,0.39120824614539795,0.0
1021,3.6722601826227206,0.0
1022,6.804856853090343,0.0
1023,-0.5472027194048258,0.0
1024,-1.7324553249039045,0.0
1025,1.612154862966884,0.0
1026,-0.6854861755102611,0.0
1027,0.2469969139335325,0.0
1028,0.07278112097917083,0.0
1029,-0.040435634698865346,0.0
1030,-0.015416895273653065,0.0
1031,-0.00917977290821363,0.0
1032,0.15993149583890806,0.0
1033,0.03385126667223646,0.0
1034,0.041165165660798704,0.0
1035,0.06714977228784616,0.0
1036,0.04521382761053323,0.0
1037,0.0002228991797150982,0.0
1038,-0.04497937794563706,0.0
1039,0.04735589647015165,0.0
1040,0.29388193611011587,0.0
1041,3.687904637732136,0.0
1042,6.766969794975356,0.0
1043,-0.45878354001884003,0.0
1044,-1.8006240952356267,0.0
1045,1.3757663584384658,0.0
1046,-0.796510973826663,0.0
1047,0.11394770409255925,0.0
1048,-0.030577067804829793,0.0
1049,-0.04940544583936328,0.0
1050,0.0019606820001562796,0.0
1051,0.02521306660144263,0.0
1052,0.07698865668102052,0.0
1053,0.018404268418221452,0.0
1054,0.06911204238416375,0.0
1055,0.014407303330245435,0.0
1056,-0.0018659419287819145,0.0
1057,-0.05790767756236186,0.0
1058,0.026358980862146882,0.0
1059,-0.007318914809998284,0.0
1060,0.23385349714084536,0.0
1061,3.7354846651533022,0.0
1062,6.823274497784801,0.0
1063,-0.5772866220439442,0.0
1064,-1.6889506071645506,0.0
1065,1.602521337676048,0.0
1066,-0.6692266362402414,0.0
1067,0.20369010222723424,0.0
1068,0.014971002568859712,0.0
1069,-0.08381905385597116,0.0
1070,0.060594309497956494,0.0
1071,0.09332947157198851,0.0
1072,0.02651858201222318,0.0
1073,-0.0037311231690260495,0.0
1074,0.05699842771570172,0.0
1075,-0.02554212229581926,0.0
1076,-0.09213619312778379,0.0
1077,-0.07787739781305916,0.0
1078,0.02449139796128676,0.0
1079,0.010990395606933205,0.0
1080,0.3606394268393361,0.0
1081,3.6713733229116423,0.0
1082,6.721431927961388,0.0
1083,-0.5187344878580509,0.0
1084,-1.8056836393066793,0.0
1085,1.5572942415099242,0.0
1086,-0.7927517974767652,0.0
1087,0.22669922276947493,0.0
1088,-0.0248343985914452,0.0
1089,-0.10486352717336994,0.0
1090,-0.017879337498639,0.0
1091,0.00459381563592727,0.0
1092,-0.05019750929466067,0.0
1093,0.04269120602755884,0.0
1094,0.08353825000174955,0.0
1095,0.0037373177460766974,0.0
1096,0.07433105895172122,0.0
1097,0.05439924501281511,0.0
1098,0.13039071891145426,0.0
1099,0.008093811695073998,0.0
1100,0.3273056423065529,0.0
1101,3.7664170678342757,0.0
1102,6.901558024590069,0.0
1103,-0.41192567810745073,0.0
1104,-1.7400799497763677,0.0
1105,1.5703681455319676,0.0
1106,-0.6347792063400405,0.0
1107,0.22653471853792354,0.0
1108,-0.07447157351207986,0.0
1109,0.019861084678939864,0.0
1110,0.0641399641090123,0.0
1111,0.061730271115337756,0.0
1112,-0.03852121150038958,0.0
1113,0.016632584949720943,0.0
1114,-0.014303614902138485,0.0
1115,-0.005607185983075701,0.0
1116,0.13406139333363976,0.0
1117,-0.060343234136244706,0.0
1118,-0.039497284994904625,0.0
1119,0.021968395451321253,0.0
1120,0.29285235290587186,0.0
1121,3.6917135618932027,0.0
1122,6.878872944192251,0.0
1123,-0.563516321815972,0.0
1124,-1.8141429704460832,0.0
1125,1.6558053543936844,0.0
1126,-0.6869313239354068,0.0
1127,0.18958380578605055,0.0
1128,0.001716544160422044,0.0
1129,-0.05740248013293364,0.0
1130,-0.018421707997939726,0.0
1131,-0.04524867642264327,0.0
1132,-0.057973599426629975,0.0
1133,0.04169856571867188,0.0
1134,-0.0724798634408814,0.0
1135,0.07048726098183869,0.0
1136,0.0429036612846201,0.0
1137,-0.01967332764531613,0.0
1138,-0.005362236042905959,0.0
1139,0.06909400793336086,0.0
1140,0.35129050199500234,0.0
1141,3.7456234393294676,0.0
1142,6.803102897956129,0.0
1143,-0.5566514981464405,0.0
1144,-1.7450309516814813,0.0
1145,1.502915134626506,0.0
1146,-0.7266050848395615,0.0
1147,0.1855047330793074,0.0
1148,0.025332055451504847,0.0
1149,-0.05108419043647626,0.0
1150,0.08112794994551031,0.0
1151,0.04955360947557635,0.0
1152,0.06048896311975549,0.0
1153,-0.00831191893721846,0.0
1154,-0.022823724342881456,0.0
1155,0.15888251374281884,0.0
1156,0.06152957536241945,0.0
1157,0.08035270612032253,0.0
1158,0.010594369432305215,0.0
1159,0.06430572455548905,0.0
1160,0.4191015375969465,0.0
1161,3.711830557116753,0.0
1162,6.840806799681817,0.0
1163,-0.5009775677151529,0.0
1164,-1.8235851698174257,0.0
1165,1.531009365336691,0.0
1166,-0.6806224444123482,0.0
1167,0.178979595730358,0.0
1168,0.03576402533954088,0.0
1169,-0.062469945632718335,0.0
1170,0.0947415504997931,0.0
1171,0.008264671079403797,0.0
1172,-0.07585585855098353,0.0
1173,0.056004442508926944,0.0
1174,0.016217204278032943,0.0
1175,0.05600388055671596,0.0
1176,0.06501760100270079,0.0
1177,0.03871527023847302,0.0
1178,-0.00044134668429535694,0.0
1179,0.0042448429605790325,0.0
1180,0.33333714921753455,0.0
1181,3.728865961760696,0.0
1182,6.813290199552785,0.0
1183,-0.6339445170416416,0.0
1184,-1.7849459876820437,0.0
1185,1.5117625428437182,0.0
1186,-0.8558848708961085,0.0
1187,0.18548174797088143,0.0
1188,-0.02712053164964659,0.0
1189,-0.03104392463149122,0.0
1190,0.0658684798818221,0.0
1191,-0.04729082488036225,0.0
1192,0.050978166684651785,0.0
1193,-0.030723287109872773,0.0
1194,0.11728509073784847,0.0
1195,0.07794282969756691,0.0
1196,-0.006186543624757722,0.0
1197,-0.0977216408367051,0.0
1198,-0.036739670894949554,0.0
1199,0.016356061470988923,0.0
1200,0.37505929172519076,0.0
1201,3.696298234783578,0.0
1202,6.737481341549896,0.0
1203,-0.5546594594521408,0.0
1204,-1.8141113409201906,0.0
1205,1.5647064855557054,0.0
1206,-0.6088292042318779,0.0
1207,0.23774787468070413,0.0
1208,0.13056765482601862,0.0
1209,-0.029788387837394202,0.0
1210,-0.03769266186946743,0.0
1211,-0.09240999672986958,0.0
1212,0.040120929473390014,0.0
1213,0.002087255959478179,0.0
1214,-0.043472789805198295,0.0
1215,0.0257258843121658,0.0
1216,0.11124242092056075,0.0
1217,0.12338777094764097,0.0
1218,0.017351357937855732,0.0
1219,0.10216538312536783,0.0
1220,0.29710653267720677,0.0
1221,3.739392113179674,0.0
1222,6.7261617762407235,0.0
1223,-0.5464576140575023,0.0
1224,-1.7073143696200141,0.0
1225,1.5510739194390117,0.0
1226,-0.7355760820414595,0.0
1227,0.198644914251642,0.0
1228,0.049818387017927776,0.0
1229,-0.07147856938077998,0.0
1230,0.03673628579848601,0.0
1231,0.042114152000101865,0.0
1232,-0.011181676131183389,0.0
1233,-0.00394323654040574,0.0
1234,-0.028379765608643963,0.0
1235,-0.014521939966134672,0.0
1236,0.01493429039669866,0.0
1237,0.08853789008812775,0.0
1238,0.0037102855269727643,0.0
1239,-0.06492102775598908,0.0
1240,0.30796784404089117,0.0
1241,3.7659034315781845,0.0
1242,6.836724571959426,0.0
1243,-0.5943194946002373,0.0
1244,-1.8548736407877011,0.0
1245,1.546836149487284,0.0
1246,-0.733974224901517,0.0
1247,0.23355288993855874,0.0
1248,-0.03778856185691735,0.0
1249,-0.03236154279877131,0.0
1250,-0.03972329550404238,0.0
1251,-0.017712212468696902,0.0
1252,-0.06983701763619891,0.0
1253,0.057898660493747,0.0
1254,0.01656243520981395,0.0
1255,-0.001692631632841498,0.0
1256,-0.0774172992751508,0.0
1257,0.028711951053982342,0.0
1258,-0.026422184485062644,0.0
1259,-0.021055920204688855,0.0
1260,0.37398995005624913,0.0
1261,3.676865866690066,0.0
1262,6.846421019412032,0.0
1263,-0.6155328194729667,0.0
1264,-1.6674553424660008,0.0
1265,1.561325683748758,0.0
1266,-0.7485175190436796,0.0
1267,0.1800830145282217,0.0
1268,0.012814278920936239,0.0
1269,-0.02221148511624564,0.0
1270,0.029454086704552376,0.0
1271,0.025335033165580473,0.0
1272,-0.08916899646044638,0.0
1273,0.06440542833418278,0.0
1274,0.043797969020294925,0.0
1275,0.14784712173532263,0.0
1276,-0.036796561697695615,0.0
1277,-0.0278237001745836,0.0
1278,0.10777941376945124,0.0
1279,-0.031796762888520735,0.0
1280,0.2549934075145899,0.0
1281,3.760159974179273,0.0
1282,6.812852164492393,0.0
1283,-0.524078534038164,0.0
1284,-1.7799743312831495,0.0
1285,1.4488154601226617,0.0
1286,-0.7834835602261218,0.0
1287,0.22511512768560693,0.0
1288,0.013313432601578922,0.0
1289,0.006921030242293312,0.0
1290,0.05402453773599792,0.0
1291,0.07479034133327936,0.0
1292,-0.004785756917512107,0.0
1293,0.10920492149224306,0.0
1294,-0.0012859388045456978,0.0
1295,0.044515337008127646,0.0
1296,-0.004580311850465486,0.0
1297,0.03508952043733244,0.0
1298,0.01320047381850228,0.0
1299,0.02771251151226183,0.0
1300,0.26238153786822316,0.0
1301,3.7367966534911186,0.0
1302,6.841735470546123,0.0
1303,-0.6462243721259816,0.0
1304,-1.787996083336203,0.0
1305,1.4901913886287401,0.0
1306,-0.7078485765284911,0.0
1307,0.2867412836362106,0.0
1308,0.13657626364499054,0.0
1309,0.05646842758162205,0.0
1310,0.08649015138224331,0.0
1311,0.05826571248118212,0.0
1312,0.0705044275241274,0.0
1313,0.03344482961027993,0.0
1314,0.0869831692126774,0.0
1315,0.06719936484472963,0.0
1316,0.15592799858417006,0.0
1317,0.03535912690278148,0.0
1318,0.0326911559884002,0.0
1319,0.08492554041532097,0.0
1320,0.31052012986472843,0.0
1321,3.7220087740424943,0.0
1322,6.83598351838171,0.0
1323,-0.6399817743668961,0.0
1324,-1.7311377689840766,0.0
1325,1.5564605859716918,0.0
1326,-0.632228931019551,0.0
1327,0.1705513658396621,0.0
1328,0.06585766349133995,0.0
1329,-0.09632912670852418,0.0
1330,0.10401096164241788,0.0
1331,0.0277204426859174,0.0
1332,-0.01412749000520272,0.0
1333,0.06178321112658726,0.0
1334,0.1317123094565715,0.0
1335,0.008460663231551053,0.0
1336,-0.016084064872590793,0.0
1337,0.10246664984508166,0.0
1338,0.027072037188659966,0.0
1339,-0.02281413034299784,0.0
1340,0.35718841046546407,0.0
1341,3.8026468932251123,0.0
1342,6.792821350617942,0.0
1343,-0.5807406226550151,0.0
1344,-1.6318951716650818,0.0
1345,1.652985104881445,0.0
1346,-0.722459104251208,0.0
1347,0.2337982220266507,0.0
1348,-0.015609704908924646,0.0
1349,-0.008540644229462394,0.0
1350,0.06623311801965856,0.0
1351,0.11124624319272691,0.0
1352,0.10404753892519603,0.0
1353,0.15583695526079178,0.0
1354,0.12317176237782318,0.0
1355,0.12087995603958107,0.0
1356,-0.00930332730743351,0.0
1357,0.13024010736682257,0.0
1358,0.09309830547564724,0.0
1359,0.1346418991050284,0.0
1360,0.4160039626987165,0.0
1361,3.871563499083356,0.0
1362,7.016068871645985,0.0
1363,-0.5269465085365086,0.0
1364,-1.5317361075066207,0.0
1365,1.6259297663608274,0.0
1366,-0.7074620183862362,0.0
1367,0.13457858933360808,0.0
1368,0.039325868966748286,0.0
1369,0.09260651819720131,0.0
1370,0.04437485148997303,0.0
1371,-0.013348993954750477,0.0
1372,0.08119067151664133,0.0
1373,0.05497013396754088,0.0
1374,0.10809840552584704,0.0
1375,0.12762703351647264,0.0
1376,0.04843643685391806,0.0
1377,0.03829252518021326,0.0
1378,0.08583195866303234,0.0
1379,0.08845482067178767,0.0
1380,0.34047355414639713,0.0
1381,3.7805525778847877,0.0
1382,6.924243384130619,0.0
1383,-0.6041251274018882,0.0
1384,-1.6145624990066196,0.0
1385,1.5254530854849455,0.0
1386,-0.6911608164219878,0.0
1387,0.2343325375272423,0.0
1388,0.01669288977714501,0.0
1389,-0.04721642852599324,0.0
1390,0.14438882345403883,0.0
1391,-0.029886118534378295,0.0
1392,0.10578826810062988,0.0
1393,0.10100914159584579,0.0
1394,-0.005482469470168724,0.0
1395,0.07778472860040987,0.0
1396,0.047180945032951,0.0
1397,-0.016426990132680043,0.0
1398,0.05056892878297914,0.0
1399,0.011403271666357934,0.0
1400,0.2402404907718212,0.0
1401,3.6738472926940373,0.0
1402,6.743790285244187,0.0
1403,-0.6068181789780137,0.0
1404,-1.7403930218607528,0.0
1405,1.4807975163115672,0.0
1406,-0.6778135041258915,0.0
1407,0.2745221084983444,0.0
1408,0.043555151078909844,0.0
1409,0.04278326172967527,0.0
1410,0.11767335411608529,0.0
1411,0.0029802152080715336,0.0
1412,0.024925837904247537,0.0
1413,0.020643579728565807,0.0
1414,0.18953672169555502,0.0
1415,0.062056442499206985,0.0
1416,0.03047841911967994,0.0
1417,0.1177914123326553,0.0
1418,0.05404452303659704,0.0
1419,0.15290350886784404,0.0
1420,0.45392121889947806,0.0
1421,3.8602028914812085,0.0
1422,6.724633596636868,0.0
1423,-0.5547076326717741,0.0
1424,-1.6685633791237846,0.0
1425,1.6175482692362342,0.0
1426,-0.6724066149241255,0.0
1427,0.29100458777483806,0.0
1428,0.06865736754023871,0.0
1429,0.010209648634080196,0.0
1430,0.0921812838002844,0.0
1431,0.07801302036108207,0.0
1432,0.087790199092296,0.0
1433,0.06492281685428167,0.0
1434,0.04603876462441665,0.0
1435,0.023832537006912523,0.0
1436,0.04430519781056008,0.0
1437,0.04657734569507265,0.0
1438,-0.008041414375218929,0.0
1439,-0.00886099408849425,0.0
1440,0.3522779831385391,0.0
1441,3.789994702920342,0.0
1442,6.774343337668799,0.0
1443,-0.7033057884523125,0.0
1444,-1.704822973593313,0.0
1445,1.5893843261989629,0.0
1446,-0.7954712922734104,0.0
1447,0.23686928434607357,0.0
1448,0.10539664350154886,0.0
1449,0.003175294663506985,0.0
1450,0.0011928518464994556,0.0
1451,-0.004202419032967253,0.0
1452,-0.0025314466722939424,0.0
1453,0.16780176845982916,0.0
1454,0.08541705332553479,0.0
1455,0.0715167104561948,0.0
1456,0.16500451138549654,0.0
1457,0.02449346308039111,0.0
1458,0.0506140850104241,0.0
1459,0.07894055081122253,0.0
1460,0.42928225110766965,0.0
1461,3.690802971820947,0.0
1462,6.835312306368221,0.0
1463,-0.501779083501653,0.0
1464,-1.682750502906542,0.0
1465,1.544949324585001,0.0
1466,-0.6136470083639065,0.0
1467,0.18263502421455918,0.0
1468,0.11982673713315478,0.0
1469,0.08153231112060647,0.0
1470,0.11009369656319637,0.0
1471,0.12145059014662332,0.0
1472,0.16626448055356974,0.0
1473,0.09275795088644902,0.0
1474,0.06725056646668291,0.0
1475,0.10705406619662866,0.0
1476,0.03371758718445181,0.0
1477,-0.004016022813235362,0.0
1478,-0.007357320853033873,0.0
1479,0.041103647299651214,0.0
1480,0.29420922213710254,0.0
1481,3.733403421894782,0.0
1482,6.755924348763801,0.0
1483,-0.6340414077105999,0.0
1484,-1.7825611802809482,0.0
1485,1.5904728795180345,0.0
1486,-0.6787216163202947,0.0
1487,0.15566223363889675,0.0
1488,0.07568239502745396,0.0
1489,-0.0073675232270925236,0.0
1490,0.04781126366190927,0.0
1491,0.07931457648514931,0.0
1492,0.015268325293199863,0.0
1493,0.08472215505616235,0.0
1494,0.025196517718525744,0.0
1495,0.04038136748917992,0.0
1496,0.019631663477267594,0.0
1497,0.04427270068225074,0.0
1498,0.04264429696722491,0.0
1499,0.05187046735469293,0.0
1500,0.36281246442199966,0.0
1501,3.872441088356613,0.0
1502,6.852038015260608,0.0
1503,-0.6542552571757877,0.0
1504,-1.6796107821329211,0.0
1505,1.5466294349746004,0.0
1506,-0.7080839931160735,0.0
1507,0.26041535552190215,0.0
1508,0.06625333971579592,0.0
1509,0.05473022159138692,0.0
1510,0.0021863505344890816,0.0
1511,0.0364759483761064,0.0
1512,0.0034771065196998394,0.0
1513,-0.043725824435367044,0.0
1514,0.09723719491826169,0.0
1515,0.04303509308044299,0.0
1516,0.14112559089430177,0.0
1517,0.05174953292020424,0.0
1518,0.03357032446352911,0.0
1519,-0.02458146048068062,0.0
1520,0.37693428724239714,0.0
1521,3.8968067683758023,0.0
1522,6.805486554181308,0.0
1523,-0.6331393582437902,0.0
1524,-1.6436856463208347,0.0
1525,1.578176749541827,0.0
1526,-0.6805420937798169,0.0
1527,0.20004898632341295,0.0
1528,0.08456932126384424,0.0
1529,-0.03328466604699723,0.0
1530,0.050661272360690304,0.0
1531,-0.07073347094634747,0.0
1532,-0.06758225133465265,0.0
1533,0.033724781889527156,0.0
1534,-0.038305086336103994,0.0
1535,-0.03847149024170962,0.0
1536,0.10491305469835285,0.0
1537,0.025788166876288748,0.0
1538,0.00817556978280674,0.0
1539,-0.10356612707658823,0.0
1540,0.3165307072307574,0.0
1541,3.827105521649493,0.0
1542,6.756886235181133,0.0
1543,-0.7486134908097559,0.0
1544,-1.6339471997157946,0.0
1545,1.507206920957056,0.0
1546,-0.65840014282522,0.0
1547,0.2422356420317683,0.0
1548,0.018884974568585768,0.0
1549,0.03198794222147325,0.0
1550,0.06980031650021577,0.0
1551,0.015283253442132298,0.0
1552,0.06950677051431932,0.0
1553,-0.008380659497515427,0.0
1554,-0.03686719242766617,0.0
1555,0.049341743855807196,0.0
1556,0.0048766225379937266,0.0
1557,0.0056483846316726476,0.0
1558,-0.03716421412230303,0.0
1559,-0.050694899203860104,0.0
1560,0.31855621606369383,0.0
1561,3.8092221739845042,0.0
1562,6.881883760671517,0.0
1563,-0.627845377962735,0.0
1564,-1.751221588505573,0.0
1565,1.5309057380079942,0.0
1566,-0.7605017914924899,0.0
1567,0.13002707405886244,0.0
1568,0.027730273050312323,0.0
1569,-0.015307763550061061,0.0
1570,0.015432334343652456,0.0
1571,0.046572340441101,0.0
1572,0.05327620789578934,0.0
1573,0.05246400713563511,0.0
1574,0.04103554347056866,0.0
1575,0.043343993852753816,0.0
1576,0.03200531239680191,0.0
1577,0.11022277176609406,0.0
1578,0.039629595916110816,0.0
1579,0.0944706278668046,0.0
1580,0.3842892928683566,0.0
1581,3.819018092449331,0.0
1582,6.7558652160059225,0.0
1583,-0.7366512916320599,0.0
1584,-1.7117597450064101,0.0
1585,1.5146127357960497,0.0
1586,-0.6801316812139249,0.0
1587,0.15849713140390603,0.0
1588,0.01765381676599286,0.0
1589,-0.12239135997709824,0.0
1590,0.10453607252696259,0.0
1591,0.031551859896092604,0.0
1592,0.024608071808586148,0.0
1593,0.019399205612644018,0.0
1594,-0.06429357660933603,0.0
1595,0.046377432556924336,0.0
1596,-0.02671428430520268,0.0
1597,0.05131414320731864,0.0
1598,0.04276140844167843,0.0
1599,-0.002696112558136247,0.0
1600,0.27664510241875,0.0
1601,3.859634836803474,0.0
1602,6.797760522718229,0.0
1603,-0.6190701089396693,0.0
1604,-1.6866864164869824,0.0
1605,1.4446564660938144,0.0
1606,-0.6638119740843738,0.0
1607,0.0959294215737209,0.0
1608,0.038300878590064175,0.0
1609,-0.03328859032049746,0.0
1610,0.03216073377501032,0.0
1611,-0.013135674662626395,0.0
1612,-0.007421996398973202,0.0
1613,0.08846214576519465,0.0
1614,0.09501877213551137,0.0
1615,-0.023837148253620852,0.0
1616,-0.023997492586331163,0.0
1617,0.005540139631512354,0.0
1618,0.0431197323279799,0.0
1619,-0.08876294272694767,0.0
1620,0.28928070309029114,0.0
1621,3.748295647367421,0.0
1622,6.76301963018274,0.0
1623,-0.624184734163494,0.0
1624,-1.742467927453439,0.0
1625,1.4906459157835015,0.0
1626,-0.7307469930545637,0.0
1627,0.15511122140191055,0.0
1628,-0.021790475743880603,0.0
1629,-0.07885919389307774,0.0
1630,-0.008539662965347816,0.0
1631,-0.022048978070557865,0.0
1632,0.01971996898057911,0.0
1633,-0.015155953502956013,0.0
1634,0.02028476675719442,0.0
1635,0.005396168695388763,0.0
1636,-0.018657177680861413,0.0
1637,-0.012941336770577915,0.0
1638,0.03756713388729029,0.0
1639,0.0050016412750826696,0.0
1640,0.26781473161594005,0.0
1641,3.8171444815316535,0.0
1642,6.745573964968848,0.0
1643,-0.7154085823961753,0.0
1644,-1.7834303231264907,0.0
1645,1.4417174005482105,0.0
1646,-0.7556830727157305,0.0
1647,0.17730114529260904,0.0
1648,0.07887008553429083,0.0
1649,-0.040811791884870996,0.0
1650,0.07001633485902736,0.0
1651,-0.0017970322203251093,0.0
1652,-0.04428551567010819,0.0
1653,0.01603968902653363,0.0
1654,-0.014652717165675174,0.0
1655,0.07055512120467229,0.0
1656,-0.04625519281731122,0.0
1657,0.058788342955235176,0.0
1658,-0.06655919973269928,0.0
1659,0.05286020924526672,0.0
1660,0.18606493377684866,0.0
1661,3.841648505963518,0.0
1662,6.707656253709621,0.0
1663,-0.7128589704883866,0.0
1664,-1.7587984064061595,0.0
1665,1.5147861204009267,0.0
1666,-0.6481208808015331,0.0
1667,0.16691171227101523,0.0
1668,0.01731909231647077,0.0
1669,-0.02531194537183952,0.0
1670,-0.06683189840627439,0.0
1671,-0.0029964221578574757,0.0
1672,-0.037195836539060737,0.0
1673,0.1014836579506509,0.0
1674,-0.0050139724731059244,0.0
1675,-0.06838470988063884,0.0
1676,-0.12184576859416307,0.0
1677,-0.020093308331599335,0.0
1678,-0.006088234392653987,0.0
1679,-0.0582837699357523,0.0
1680,0.324613707592287,0.0
1681,3.8923510337984224,0.0
1682,6.740821182615872,0.0
1683,-0.7591113507855287,0.0
1684,-1.7398992499854733,0.0
1685,1.42884334613425,0.0
1686,-0.7064273730940318,0.0
1687,0.15451974494883494,0.0
1688,-0.04265876911272156,0.0
1689,-0.008474230441872767,0.0
1690,0.012778765410920183,0.0
1691,-0.03158325961417519,0.0
1692,-0.051926323370753216,0.0
1693,-0.027152818934697634,0.0
1694,0.0312225919149968,0.0
1695,0.020266250301589576,0.0
1696,0.006861701847268349,0.0
1697,-0.04339111362282428,0.0
1698,0.10273518759110187,0.0
1699,-0.08189268032707718,0.0
1700,0.3864046746457741,0.0
1701,3.7713824261199544,0.0
1702,6.792448071224308,0.0
1703,-0.777060752312098,0.0
1704,-1.7712967913123654,0.0
1705,1.4403978724057944,0.0
1706,-0.7642580273637524,0.0
1707,0.20351895983167073,0.0
1708,-0.02164283043548583,0.0
1709,0.011585674460653644,0.0
1710,0.059123692862277505,0.0
1711,-0.007297961167525149,0.0
1712,-0.0009483329820814262,0.0
1713,-0.06442882080628823,0.0
1714,-0.1275315420682998,0.0
1715,-0.07716157630296562,0.0
1716,-0.14900222800481722,0.0
1717,-0.1425558740687487,0.0
1718,-0.054664058769721816,0.0
1719,-0.17394902919098834,0.0
1720,0.12603826973393611,0.0
1721,3.635403834341446,0.0
1722,6.587022316896357,0.0
1723,-0.8335516737904392,0.0
1724,-1.8333782619279069,0.0
1725,1.348315530946565,0.0
1726,-0.8385271347198366,0.0
1727,0.11153230264790759,0.0
1728,-0.0064307863238118115,0.0
1729,-0.10092013302969016,0.0
1730,-0.0058928697982847614,0.0
1731,-0.13008448732657424,0.0
1732,-0.046707298092799804,0.0
1733,-0.05436379349165274,0.0
1734,-0.11860892669523762,0.0
1735,-0.07720715420889385,0.0
1736,-0.04343682683620042,0.0
1737,-0.07732885678125351,0.0
1738,-0.027479193815997345,0.0
1739,-0.09326093715121857,0.0
1740,0.36115322728965715,0.0
1741,3.8122289766977073,0.0
1742,6.665549125038084,0.0
1743,-0.7848907572863019,0.0
1744,-1.6812672717889263,0.0
1745,1.471733915383562,0.0
1746,-0.8632522606771144,0.0
1747,0.14079944693986735,0.0
1748,0.011062199157683712,0.0
1749,-0.004851750791522884,0.0
1750,-0.10675953662058502,0.0
1751,-0.06784103039568344,0.0
1752,0.015074567344651815,0.0
1753,-0.02568737942312343,0.0
1754,-0.10517374717429251,0.0
1755,-0.07030743486422168,0.0
1756,-0.06183076329616939,0.0
1757,-0.1091425459086195,0.0
1758,0.035920583671163936,0.0
1759,-0.018670126163072467,0.0
1760,0.30162977697320764,0.0
1761,3.6941353343758365,0.0
1762,6.6707185865887775,0.0
1763,-0.6504830948367933,0.0
1764,-1.6609891707427749,0.0
1765,1.458314324216555,0.0
1766,-0.7898588506007662,0.0
1767,0.21194891848614655,0.0
1768,0.05205954026431783,0.0
1769,0.07637978438003797,0.0
1770,0.08294359687474803,0.0
1771,0.09579043043384795,0.0
1772,0.08039610816779988,0.0
1773,0.022588123756390185,0.0
1774,0.0824300140589285,0.0
1775,0.03884602819749987,0.0
1776,0.09903803726312871,0.0
1777,-0.011534778199921308,0.0
1778,0.04780126356760603,0.0
1779,-0.030832358951714454,0.0
1780,0.26242335988427407,0.0
1781,3.7897972340538026,0.0
1782,6.7849361360324165,0.0
1783,-0.7271324803343674,0.0
1784,-1.7214786568226528,0.0
1785,1.4695325487205562,0.0
1786,-0.8103091941111673,0.0
1787,0.14265185492991692,0.0
1788,-0.006113134531746705,0.0
1789,-0.03613941846048466,0.0
1790,-0.03458434705857369,0.0
1791,-0.043203011525389516,0.0
1792,-0.11462934189275936,0.0
1793,0.02388449557708152,0.0
1794,-0.11017279061329764,0.0
1795,0.011051297904514621,0.0
1796,-0.024096818084446647,0.0
1797,-0.039113570218478846,0.0
1798,-0.040321549741222484,0.0
1799,-0.003553418674820761,0.0
1800,0.3854971705372193,0.0
1801,3.752503099690764,0.0
1802,6.6898853644016665,0.0
1803,-0.6885559610428585,0.0
1804,-1.7383717732569766,0.0
1805,1.4197897113793427,0.0
1806,-0.8201931814740238,0.0
1807,0.11910517201816906,0.0
1808,-0.053386519955683526,0.0
1809,-0.061242798039701694,0.0
1810,-0.0873138780605319,0.0
1811,-0.04549067399067488,0.0
1812,0.003484281800675372,0.0
1813,-0.07979580615040538,0.0
1814,-0.10631920650165783,0.0
1815,0.031979717220031754,0.0
1816,-0.005121054299927933,0.0
1817,-0.04695040953971222,0.0
1818,-0.03227458500766966,0.0
1819,-0.047305254230566876,0.0
1820,0.3277793388142822,0.0
1821,3.8804345287626223,0.0
1822,6.761813275839302,0.0
1823,-0.7775453948742509,0.0
1824,-1.6790122408551797,0.0
1825,1.466771568633772,0.0
1826,-0.7559768388739461,0.0
1827,0.25039639383689205,0.0
1828,0.04399396596187054,0.0
1829,-0.0909062907705854,0.0
1830,-0.031086086402677182,0.0
1831,-0.05641466576018971,0.0
1832,-0.06189119118549306,0.0
1833,-0.12840460518727093,0.0
1834,-0.10765425706578169,0.0
1835,-0.09507954418935896,0.0
1836,-0.013906294907565016,0.0
1837,-0.06700130951729669,0.0
1838,-0.06654432781091264,0.0
1839,-0.07274283817139948,0.0
1840,0.30803730284125647,0.0
1841,3.8051032618277687,0.0
1842,6.668299560762031,0.0
1843,-0.8482593256763161,0.0
1844,-1.6982709110377567,0.0
1845,1.5183068574362437,0.0
1846,-0.7016523794973462,0.0
1847,0.24602657906737035,0.0
1848,0.033139767160492016,0.0
1849,0.05688233510869577,0.0
1850,-0.011971554116660284,0.0
1851,0.01865599340043949,0.0
1852,-0.02911201857138166,0.0
1853,0.05111082713644361,0.0
1854,-0.027055301263373105,0.0
1855,-0.03684134647693287,0.0
1856,0.05392412287938474,0.0
1857,-0.023107203746905156,0.0
1858,-0.0764556082528487,0.0
1859,0.01875889083683703,0.0
1860,0.28214024255442804,0.0
1861,3.7647165905087374,0.0
1862,6.773381486020835,0.0
1863,-0.7383999959074166,0.0
1864,-1.721415560443239,0.0
1865,1.536913863608754,0.0
1866,-0.7929283224206998,0.0
1867,0.12611276698109525,0.0
1868,-0.028249008147631916,0.0
1869,0.02907847363116626,0.0
1870,0.06309774413308925,0.0
1871,-0.02882773433880155,0.0
1872,-0.019007061883065328,0.0
1873,0.05615700265749937,0.0
1874,0.0441152468856332,0.0
1875,0.07676935129597048,0.0
1876,0.048477955948821434,0.0
1877,0.054231400099768096,0.0
1878,0.08496270626986173,0.0
1879,0.01688176754234321,0.0
1880,0.3743058214201219,0.0
1881,3.889767652606434,0.0
1882,6.657543306778529,0.0
1883,-0.7092054180311963,0.0
1884,-1.758182519846292,0.0
1885,1.4108532669742058,0.0
1886,-0.8217734277656934,0.0
1887,0.21748677590434184,0.0
1888,0.06787636457685406,0.0
1889,-0.12852075685377137,0.0
1890,-0.0787317724093021,0.0
1891,-0.04405235495523839,0.0
1892,-0.05031394592927731,0.0
1893,-0.011086279678965076,0.0
1894,-0.07108579299523295,0.0
1895,-0.08442004708786804,0.0
1896,-0.1012710685123662,0.0
1897,-0.0644610043426792,0.0
1898,-0.07230284268192044,0.0
1899,-0.07194844755977475,0.0
1900,0.29080012289122004,0.0
1901,3.8628597549893264,0.0
1902,6.7700259502290265,0.0
1903,-0.7157974046965172,0.0
1904,-1.6924083609320284,0.0
1905,1.4842561145841642,0.0
1906,-0.7520056582430947,0.0
1907,0.22471393112616248,0.0
1908,0.16418690899774555,0.0
1909,0.0031586313832071052,0.0
1910,-0.052088306956125624,0.0
1911,0.012636827385622803,0.0
1912,0.008326326309004045,0.0
1913,0.04677971413374047,0.0
1914,-0.011958946169445416,0.0
1915,-0.010641062756263982,0.0
1916,0.027539968318758556,0.0
1917,0.03835225309998209,0.0
1918,-0.07871080789930414,0.0
1919,-0.013611794836498107,0.0
1920,0.36135586049764556,0.0
1921,3.8294405723658853,0.0
1922,6.662657225635533,0.0
1923,-0.6913900964866432,0.0
1924,-1.6423612169362727,0.0
1925,1.491032357436078,0.0
1926,-0.7491281784778852,0.0
1927,0.22257845987213265,0.0
1928,0.1046631763681444,0.0
1929,0.052977762670402516,0.0
1930,0.07775559549910355,0.0
1931,0.041500479385749516,0.0
1932,0.09243809822158298,0.0
1933,-0.007692976810434862,0.0
1934,0.16802541674043808,0.0
1935,0.11035444127095988,0.0
1936,0.08370960631691016,0.0
1937,-0.0052490596884172125,0.0
1938,0.10954162856802444,0.0
1939,0.017408060452789254,0.0
1940,0.5163836121031806,0.0
1941,3.9046344596055267,0.0
1942,6.820297475031398,0.0
1943,-0.6594864677597709,0.0
1944,-1.70480412812143,0.0
1945,1.5988412886336318,0.0
1946,-0.6568006751688973,0.0
1947,0.21429808099363515,0.0
1948,0.14759055228947873,0.0
1949,-0.014538891256087885,0.0
1950,0.11994110323698803,0.0
1951,-0.04589629001617321,0.0
1952,-0.028829832678693983,0.0
1953,-0.03799701525416022,0.0
1954,0.07197339858047304,0.0
1955,-0.02419634430364625,0.0
1956,0.03040153650565537,0.0
1957,0.05042580380560557,0.0
1958,0.04510450021758846,0.0
1959,-0.0078449214758127,0.0
1960,0.432147628241245,0.0
1961,3.9078498650354696,0.0
1962,6.758917946197988,0.0
1963,-0.6958817744667081,0.0
1964,-1.5575018929115443,0.0
1965,1.4961673188715732,0.0
1966,-0.7672662357941404,0.0
1967,0.20643183976811513,0.0
1968,-0.0025434922645951683,0.0
1969,0.028838780141392854,0.0
1970,0.08003308662683409,0.0
1971,-0.05395774701648497,0.0
1972,0.045367620075921926,0.0
1973,-0.04113964805988225,0.0
1974,0.01742793418443652,0.0
1975,0.010183767575423662,0.0
1976,0.004823586270692759,0.0
1977,0.03270488093591001,0.0
1978,-0.09795722772213862,0.0
1979,0.009127902100872439,0.0
1980,0.33363694994525034,0.0
1981,3.845173656137311,0.0
1982,6.648608964376962,0.0
1983,-0.771947670651164,0.0
1984,-1.7529838799525364,0.0
1985,1.5247406281692757,0.0
1986,-0.828882595102381,0.0
1987,0.18340528115989455,0.0
1988,0.06957415140316361,0.0
1989,0.05326701690065397,0.0
1990,0.038103468553146544,0.0
1991,0.0073107901965304145,0.0
1992,0.10522073536934452,0.0
1993,0.029411396410549795,0.0
1994,0.10547996833437617,0.0
1995,0.08877797165694407,0.0
1996,0.10558203977804004,0.0
1997,0.047128978404925664,0.0
1998,0.1304556373291166,0.0
1999,0.07849450632775323,0.0
2000,0.358804556135154,0.0
2001,3.8535203287220803,0.0
2002,6.740187436040485,0.0
2003,-0.7625225547638625,0.0
2004,-1.6123228745564495,0.0
2005,1.5596855107121994,0.0
2006,-0.8027747599997793,0.0
2007,0.2715051193520647,0.0
2008,-0.07588485338277176,0.0
2009,-0.03129167710445491,0.0
2010,0.017123280455976685,0.0
2011,0.03355561476253783,0.0
2012,0.00897767364869179,0.0
2013,0.006362127658087314,0.0
2014,-0.011092110756710714,0.0
2015,0.005381707270300172,0.0
2016,0.02469416460334182,0.0
2017,0.01597558909706391,0.0
2018,0.07074704304118279,0.0
2019,-0.004379620430176337,0.0
2020,0.38745254480488733,0.0
2021,3.8682736206919643,0.0
2022,6.735376914435459,0.0
2023,-0.8190016150790045,0.0
2024,-1.700305256200003,0.0
2025,1.4217323783567248,0.0
2026,-0.7580348016103529,0.0
2027,0.13553069372939652,0.0
2028,-0.030526399660908123,0.0
2029,-0.045625430629771896,0.0
2030,-0.06646961411132338,0.0
2031,-0.06776599014354563,0.0
2032,0.011107774918558336,0.0
2033,-0.0368915934947217,0.0
2034,0.0034378426510979186,0.0
2035,-0.0833985849962752,0.0
2036,-0.0216322416492539,0.0
2037,-0.0675770144738228,0.0
2038,0.0368565630331258,0.0
2039,0.006449002018239246,0.0
2040,0.3910456074581751,0.0
2041,3.760737904778468,0.0
2042,6.626429445303248,0.0
2043,-0.7885185751717334,0.0
2044,-1.7005795579968692,0.0
2045,1.4322804426908489,0.0
2046,-0.8460881554017984,0.0
2047,0.07334993480922707,0.0
2048,-0.024485968996813906,0.0
2049,-0.018631124106792303,0.0
2050,-0.01687838587315093,0.0
2051,-0.08503809566333802,0.0
2052,-0.029003941328087715,0.0
2053,-0.0830077680907339,0.0
2054,-0.036506142826123605,0.0
2055,-0.04972837343262317,0.0
2056,-0.18268052074244923,0.0
2057,-0.04594360624821264,0.0
2058,-0.06045601743383266,0.0
2059,-0.11912220464393959,0.0
2060,0.1981418566134457,0.0
2061,3.8181524350339564,0.0
2062,6.6872595423706604,0.0
2063,-0.8017988222537974,0.0
2064,-1.6463168486299242,0.0
2065,1.5298255994507866,0.0
2066,-0.890025948327688,0.0
2067,0.105028460201322,0.0
2068,-0.040519054730642795,0.0
2069,-0.19359651519141036,0.0
2070,0.002826579250819354,0.0
2071,-0.021884244424132587,0.0
2072,-0.07166962212750694,0.0
2073,0.02758268816436773,0.0
2074,0.00567203429699107,0.0
2075,0.033430957691218725,0.0
2076,-0.058647106786537326,0.0
2077,-0.08231571793367898,0.0
2078,-0.16075096008343046,0.0
2079,-0.14266870915240354,0.0
2080,0.27961296110266554,0.0
2081,3.7677016861929458,0.0
2082,6.616162765343033,0.0
2083,-0.9131325067818495,0.0
2084,-1.7469335336305687,0.0
2085,1.3251585031480986,0.0
2086,-0.8931351729395227,0.0
2087,0.05122332796511382,0.0
2088,-0.16151915009685192,0.0
2089,-0.2414129671790834,0.0
2090,-0.09668859590750556,0.0
2091,-0.1362443098966989,0.0
2092,-0.1407222513271835,0.0
2093,-0.12113940785314277,0.0
2094,-0.10586556595618599,0.0
2095,-0.11851946234263956,0.0
2096,-0.10973859538471098,0.0
2097,-0.056668833908991634,0.0
2098,-0.10331194656822502,0.0
2099,-0.11024863719757175,0.0
2100,0.2748823974720963,0.0
2101,3.815501737465328,0.0
2102,6.610225917430037,0.0
2103,-0.9506336031477259,0.0
2104,-1.8564032276620317,0.0
2105,1.3191549903255195,0.0
2106,-0.8725688921803212,0.0
2107,0.1217558180356023,0.0
2108,-0.1582649824724195,0.0
2109,-0.19377673299166587,0.0
2110,-0.062415701976328404,0.0
2111,-0.11800242935559807,0.0
2112,-0.19041697603474453,0.0
2113,-0.23577618715390386,0.0
2114,-0.08862667241763408,0.0
2115,-0.06618927942393255,0.0
2116,-0.1900119926932436,0.0
2117,0.02702514310873333,0.0
2118,-0.059055262494400254,0.0
2119,-0.12049043213445565,0.0
2120,0.25442409383905296,0.0
2121,3.7531427989396007,0.0
2122,6.671249971705956,0.0
2123,-0.9579331548626141,0.0
2124,-1.7004024310823453,0.0
2125,1.3899573031127137,0.0
2126,-0.8939880853141402,0.0
2127,0.12194474502535768,0.0
2128,0.029950537606129257,0.0
2129,-0.15256095372175593,0.0
2130,-0.01940960743816092,0.0
2131,-0.0767832154739646,0.0
2132,-0.16353804539552236,0.0
2133,-0.14094214727099327,0.0
2134,-0.06945990771810015,0.0
2135,-0.08521820896888636,0.0
2136,-0.13772721838702873,0.0
2137,-0.12520248899925232,0.0
2138,-0.13634274312630873,0.0
2139,-0.18605566493907227,0.0
2140,0.29274301786698,0.0
2141,3.73002816538638,0.0
2142,6.533956938046836,0.0
2143,-0.98312702454488,0.0
2144,-1.7418364867112055,0.0
2145,1.3886751761451972,0.0
2146,-0.8746316728436284,0.0
2147,0.07416611703907179,0.0
2148,-0.1697686088198681,0.0
2149,-0.23972400973068037,0.0
2150,-0.06723002205829663,0.0
2151,-0.14944157483140416,0.0
2152,-0.14896848666139784,0.0
2153,-0.0882158105431422,0.0
2154,-0.08729543944090472,0.0
2155,-0.15350673415474472,0.0
2156,-0.08960312471393028,0.0
2157,-0.05900212006667273,0.0
2158,-0.11627438262762207,0.0
2159,-0.09774235117736035,0.0
2160,0.2650527807185629,0.0
2161,3.8558138672847515,0.0
2162,6.65030833043808,0.0
2163,-0.921960640386041,0.0
2164,-1.637638365912565,0.0
2165,1.4281779695519843,0.0
2166,-0.9199333242321394,0.0
2167,0.037032784359948265,0.0
2168,-0.07660686549887549,0.0
2169,-0.16101144724582644,0.0
2170,-0.07909655902193641,0.0
2171,-0.11788358716003888,0.0
2172,-0.07108494208646342,0.0
2173,-0.11254839109112548,0.0
2174,-0.01724399776358941,0.0
2175,-0.2027106254644078,0.0
2176,-0.09038562215711066,0.0
2177,-0.10024009900116265,0.0
2178,-0.053439712460262606,0.0
2179,-0.05814890514841735,0.0
2180,0.32835311778143095,0.0
2181,3.772587173172865,0.0
2182,6.692526454845812,0.0
2183,-0.944291405956278,0.0
2184,-1.617890315016435,0.0
2185,1.3263237757809543,0.0
2186,-0.7744774820075274,0.0
2187,0.10722208629119998,0.0
2188,0.018877240087613892,0.0
2189,-0.08273709887351895,0.0
2190,-0.10924169676310555,0.0
2191,-0.004635671354674763,0.0
2192,-0.012909937693164168,0.0
2193,-0.011874797004013678,0.0
2194,-0.05314371591969186,0.0
2195,-0.09204627981085746,0.0
2196,0.02165584487681389,0.0
2197,-0.05065896040060508,0.0
2198,-0.07217185088902564,0.0
2199,-0.04225411317828359,0.0
2200,0.3202431075353192,0.0
2201,3.8701054147988674,0.0
2202,6.67486580144639,0.0
2203,-0.8172962639867593,0.0
2204,-1.6935206137726229,0.0
2205,1.4877240208588334,0.0
2206,-0.7419885170460968,0.0
2207,0.1790057437018686,0.0
2208,-0.024564457403014474,0.0
2209,0.04784484195503838,0.0
2210,0.04962403091469492,0.0
2211,0.0411526100176406,0.0
2212,0.0865097196908832,0.0
2213,0.09729246148287563,0.0
2214,0.03319302227858755,0.0
2215,-0.05408907337411587,0.0
2216,0.006016414336929045,0.0
2217,0.07395916114802649,0.0
2218,0.08514899846183134,0.0
2219,-0.09905947384027995,0.0
2220,0.3776684387811031,0.0
2221,3.8557617445698606,0.0
2222,6.715592899044759,0.0
2223,-0.7898215709569771,0.0
2224,-1.6741938792629603,0.0
2225,1.383465532115117,0.0
2226,-0.8052318637226646,0.0
2227,0.21366629268332793,0.0
2228,0.05719995430327919,0.0
2229,-0.030318030618819224,0.0
2230,-0.047831134901336586,0.0
2231,0.017969739859572075,0.0
2232,-0.0473157141432661,0.0
2233,0.03196733647002868,0.0
2234,-0.04843869217367494,0.0
2235,-0.03661547776071983,0.0
2236,0.010788720095258457,0.0
2237,0.03811341671631579,0.0
2238,0.033072956211304655,0.0
2239,-0.038980176798970895,0.0
2240,0.24286552809274914,0.0
2241,3.7618540989479676,0.0
2242,6.6598921021591115,0.0
2243,-0.911158335747594,0.0
2244,-1.5215464722655567,0.0
2245,1.4578097547097129,0.0
2246,-0.7159523358020196,0.0
2247,0.14564693078879212,0.0
2248,-0.07623107061635845,0.0
2249,-0.013754888677918568,0.0
2250,-0.004954661047362755,0.0
2251,0.01603666293948008,0.0
2252,-0.15416225715319556,0.0
2253,0.09759399895554352,0.0
2254,0.017185862009880568,0.0
2255,0.015050833824623897,0.0
2256,-0.006182517882943052,0.0
2257,0.0005332535599184415,0.0
2258,0.09368315521269624,0.0
2259,-0.046866096683419456,0.0
2260,0.35144788316945413,0.0
2261,3.798102841731693,0.0
2262,6.755216016331214,0.0
2263,-0.8615170781515709,0.0
2264,-1.6194436594687993,0.0
2265,1.3732735858152978,0.0
2266,-0.7866989087318865,0.0
2267,0.15738818988596276,0.0
2268,-0.033718004086952254,0.0
2269,-0.047686449923873,0.0
2270,0.12495725823105243,0.0
2271,0.04876583173312735,0.0
2272,0.1149292261632037,0.0
2273,-0.02029390591576551,0.0
2274,-0.04541536258750573,0.0
2275,0.03670242362917217,0.0
2276,-0.073508491609359,0.0
2277,0.05752702152891263,0.0
2278,0.05178609654983936,0.0
2279,0.002482302099527491,0.0
2280,0.4021211244961994,0.0
2281,3.866486791450472,0.0
2282,6.67463485214647,0.0
2283,-0.9247259538395138,0.0
2284,-1.6276528711701688,0.0
2285,1.4783744361315334,0.0
2286,-0.805314268472186,0.0
2287,0.2544114966493559,0.0
2288,-0.0389021426930999,0.0
2289,-0.023212817974354323,0.0
2290,0.004568996662138964,0.0
2291,-0.09203345794353429,0.0
2292,-0.04520251906155066,0.0
2293,-0.002269960691904248,0.0
2294,-0.09625821046898243,0.0
2295,-0.038739182353587295,0.0
2296,-0.018776771392572736,0.0
2297,-0.023595240166867332,0.0
2298,0.026990721877249692,0.0
2299,0.0037823234013906366,0.0
2300,0.38904919764108975,0.0
2301,4.061627962144723,0.0
2302,6.628131492853267,0.0
2303,-0.8430200440476254,0.0
2304,-1.5556316342520982,0.0
2305,1.5766475195799894,0.0
2306,-0.7271562747461964,0.0
2307,0.31464745910326025,0.0
2308,0.015491493719873517,0.0
2309,-0.06230825248533961,0.0
2310,0.04063199616495394,0.0
2311,0.03843425172560683,0.0
2312,0.0855432440807243,0.0
2313,0.03495596852693911,0.0
2314,0.11951839283006675,0.0
2315,0.02988542393188797,0.0
2316,0.05313485103528546,0.0
2317,0.0498725101628906,0.0
2318,0.020412389955555138,0.0
2319,0.02927989757360614,0.0
2320,0.35197741930546406,0.0
2321,3.823444973642263,0.0
2322,6.617189854215395,0.0
2323,-0.8984440521628327,0.0
2324,-1.5696419422464283,0.0
2325,1.3956777188860654,0.0
2326,-0.8414387661847993,0.0
2327,0.1442559049095802,0.0
2328,-0.06939203914274336,0.0
2329,-0.07397078270096563,0.0
2330,0.11119713035640275,0.0
2331,0.0306555483595609,0.0
2332,-0.024239017120072176,0.0
2333,-0.02671627215043069,0.0
2334,0.006991055132205605,0.0
2335,-0.048669626556207796,0.0
2336,-0.03963681267774769,0.0
2337,-0.007410290152467337,0.0
2338,0.14140173059639452,0.0
2339,0.14258805637351865,0.0
2340,0.37553054097885286,0.0
2341,3.9011987204664598,0.0
2342,6.657197874844693,0.0
2343,-0.8733545249790229,0.0
2344,-1.5765772557317899,0.0
2345,1.564139088677247,0.0
2346,-0.9156403769552031,0.0
2347,0.1402844911182376,0.0
2348,-0.03770466043208879,0.0
2349,-0.11239282561154035,0.0
2350,-0.010369768754131628,0.0
2351,0.05270372464288005,0.0
2352,-0.022406099258031754,0.0
2353,-0.05601426340771787,0.0
2354,0.06738290398994864,0.0
2355,0.03407736201751347,0.0
2356,0.06889917616367336,0.0
2357,0.007394313575515627,0.0
2358,0.041442240426091584,0.0
2359,0.04348657642582917,0.0
2360,0.40342858952692023,0.0
2361,3.9567851981591713,0.0
2362,6.787252721067558,0.0
2363,-0.8296066788377747,0.0
2364,-1.5588002579654394,0.0
2365,1.345050923799154,0.0
2366,-0.7161644340428398,0.0
2367,0.1368830237172164,0.0
2368,-0.016567247051961616,0.0
2369,-0.043005860459747025,0.0
2370,0.0021076609490354864,0.0
2371,-0.06599176384064294,0.0
2372,-0.08406175218956748,0.0
2373,-0.10387595664926078,0.0
2374,-0.04539795322761999,0.0
2375,-0.009754782650013723,0.0
2376,0.022496912304335506,0.0
2377,-0.05968726709759226,0.0
2378,-0.06328985220917943,0.0
2379,-0.05851185659822165,0.0
2380,0.4880967530588598,0.0
2381,3.85009875824506,0.0
2382,6.681840867174058,0.0
2383,-0.7980904278098373,0.0
2384,-1.5492408859902587,0.0
2385,1.4739467603174607,0.0
2386,-0.7570839745453863,0.0
2387,0.16672292102925926,0.0
2388,-0.020181008035908964,0.0
2389,0.05167913199501347,0.0
2390,0.11410017481234587,0.0
2391,0.038618580403513555,0.0
2392,0.07624643153364909,0.0
2393,0.04062206180084764,0.0
2394,0.016404389954561345,0.0
2395,0.06276837626304194,0.0
2396,-0.004733958641148239,0.0
2397,-0.06948598132201816,0.0
2398,-0.14326779014793206,0.0
2399,-0.05118420599893595,0.0
2400,0.4237321755868277,0.0
2401,3.976250714306673,0.0
2402,6.755507063632613,0.0
2403,-0.9746769001042398,0.0
2404,-1.6075402282891127,0.0
2405,1.4772531048985647,0.0
2406,-0.818839290095043,0.0
2407,0.18495914688691187,0.0
2408,0.017015223402416797,0.0
2409,-0.04643328656556305,0.0
2410,0.0017854313496865355,0.0
2411,-0.10638914247582418,0.0
2412,0.07040924000900346,0.0
2413,0.07621009183297933,0.0
2414,-0.01282866305738918,0.0
2415,-0.06914572613910006,0.0
2416,0.009713571496837232,0.0
2417,0.050221427175249356,0.0
2418,0.06734398537565167,0.0
2419,-0.008408920562562944,0.0
2420,0.3980021918290224,0.0
2421,3.9890363124627624,0.0
2422,6.669986895127646,0.0
2423,-0.8472641605470839,0.0
2424,-1.4957236299206809,0.0
2425,1.4464358354282771,0.0
2426,-0.7358474862709601,0.0
2427,0.23991179900344606,0.0
2428,0.10364918859334547,0.0
2429,0.05100632924571537,0.0
2430,-0.06366292230549624,0.0
2431,-0.02351607709346276,0.0
2432,0.05746200340934246,0.0
2433,0.119780711039673,0.0
2434,0.05489701905946018,0.0
2435,0.10664504543111822,0.0
2436,-0.10040671370029661,0.0
2437,0.026302009045629477,0.0
2438,0.012028903521389502,0.0
2439,0.0995368986802283,0.0
2440,0.42894801361376195,0.0
2441,4.016225980205367,0.0
2442,6.7354006870321985,0.0
2443,-0.8925090005220824,0.0
2444,-1.5387344172660806,0.0
2445,1.5001003032622542,0.0
2446,-0.7152395398937775,0.0
2447,0.2661964373309351,0.0
2448,0.035053244706317974,0.0
2449,-0.0026109079228013128,0.0
2450,0.03049538093224454,0.0
2451,-0.04926035691725289,0.0
2452,-0.001054465621951793,0.0
2453,0.08424449891916333,0.0
2454,0.07629552530799875,0.0
2455,0.014126938518238704,0.0
2456,0.01196518147033319,0.0
2457,0.03712238003409972,0.0
2458,0.0020356779818370627,0.0
2459,0.0011105976067794544,0.0
2460,0.3380459309299605,0.0
2461,4.001409246313881,0.0
2462,6.747763520333795,0.0
2463,-0.8181984695494194,0.0
2464,-1.5084083157877202,0.0
2465,1.5250297236001802,0.0
2466,-0.7803018490752313,0.0
2467,0.2340368186322993,0.0
2468,0.02641075263865687,0.0
2469,0.04556548418159682,0.0
2470,-0.02065424529476969,0.0
2471,0.029108811221386706,0.0
2472,-0.01554529999481974,0.0
2473,-0.008817465342059072,0.0
2474,0.028879923543881834,0.0
2475,-0.033178272175014484,0.0
2476,-0.10448912062570383,0.0
2477,-0.10432854512838838,0.0
2478,-0.011673884034149352,0.0
2479,-0.04734223352309236,0.0
2480,0.3343300283668538,0.0
2481,3.8718176969598876,0.0
2482,6.656481443979398,0.0
2483,-1.0030308572380993,0.0
2484,-1.5951328834895784,0.0
2485,1.3876607279690845,0.0
2486,-0.8612940733146156,0.0
2487,0.23956264004554917,0.0
2488,-0.08427987642521852,0.0
2489,-0.15348849025432437,0.0
2490,-0.0012297292896568668,0.0
2491,-0.08115550177353541,0.0
2492,0.020344427059998137,0.0
2493,-0.04958864686145402,0.0
2494,-0.046583231274734654,0.0
2495,-0.05305152661523864,0.0
2496,-0.00469375530511652,0.0
2497,0.06893609172503204,0.0
2498,-0.06152246810643401,0.0
2499,-0.043307028890753704,0.0
2500,0.23085906946777612,0.0
2501,3.8269111701358454,0.0
2502,6.666958223655497,0.0
2503,-0.9057758514265135,0.0
2504,-1.5436640708672535,0.0
2505,1.457622868326952,0.0
2506,-0.8774800708060239,0.0
2507,0.14876479342560445,0.0
2508,-0.04317717283939221,0.0
2509,-0.014233647900214828,0.0
2510,0.004232248737527179,0.0
2511,0.06908228117270121,0.0
2512,-0.04089454294557486,0.0
2513,0.028162727756156775,0.0
2514,0.10395356529960438,0.0
2515,0.05820157716564145,0.0
2516,9.079567862399322e-05,0.0
2517,0.0918182086424042,0.0
2518,0.044132593608417314,0.0
2519,0.02128569014974608,0.0
2520,0.35839773036380257,0.0
2521,3.9279085015650512,0.0
2522,6.709925412224533,0.0
2523,-0.9913531370530668,0.0
2524,-1.5742931756207472,0.0
2525,1.3385408939176688,0.0
2526,-0.783233196111039,0.0
2527,0.18966483773721132,0.0
2528,-0.06414026776691074,0.0
2529,-0.06414362049866165,0.0
2530,-0.08879102793870616,0.0
2531,-0.18266745860297254,0.0
2532,-0.1534098215242054,0.0
2533,-0.13271758068367,0.0
2534,-0.11857044376495443,0.0
2535,-0.0704905132403139,0.0
2536,-0.16971290015706691,0.0
2537,-0.09493422723453426,0.0
2538,0.009496375485571446,0.0
2539,-0.07347575926582903,0.0
2540,0.28526241287452936,0.0
2541,3.8848761098949964,0.0
2542,6.719571193154471,0.0
2543,-0.9622966687167491,0.0
2544,-1.5617684233300904,0.0
2545,1.4234393118425865,0.0
2546,-0.7562128300926896,0.0
2547,0.15259506938493114,0.0
2548,-0.04188026979312324,0.0
2549,0.04295841920499499,0.0
2550,0.047597224210017566,0.0
2551,0.005458596241165341,0.0
2552,-0.024179965239731063,0.0
2553,-0.007753443389261993,0.0
2554,-0.08218951721427892,0.0
2555,-0.06419485843478026,0.0
2556,-0.04095991788753017,0.0
2557,0.08898689619069872,0.0
2558,-0.008759335013198189,0.0
2559,0.06604470024087478,0.0
2560,0.3461718192424156,0.0
2561,3.876177335272749,0.0
2562,6.641410980993741,0.0
2563,-0.9671921487492244,0.0
2564,-1.4882167850614316,0.0
2565,1.3984404365642609,0.0
2566,-0.7800391120199844,0.0
2567,0.15127751539620504,0.0
2568,-0.08178055580440205,0.0
2569,-0.08945120685863844,0.0
2570,-0.05786934961262759,0.0
2571,-0.09539138168009033,0.0
2572,-0.08280109643678259,0.0
2573,-0.03370615150715636,0.0
2574,-0.17488489404292817,0.0
2575,-0.12921753287506135,0.0
2576,-0.130354031175829,0.0
2577,-0.07886365051348741,0.0
2578,-0.12820844093433673,0.0
2579,-0.06164689622879224,0.0
2580,0.31280682359637585,0.0
2581,3.9421800776716145,0.0
2582,6.6083595902073835,0.0
2583,-1.0116325553991365,0.0
2584,-1.5743866570023959,0.0
2585,1.3896449227715286,0.0
2586,-0.7845207620789595,0.0
2587,0.1821840681496538,0.0
2588,-0.0940989401518218,0.0
2589,-0.12483810611859966,0.0
2590,-0.046756188212195904,0.0
2591,-0.023497835041847673,0.0
2592,-0.08068101499525217,0.0
2593,0.052909972793884,0.0
2594,0.010096912486283346,0.0
2595,-0.1508301762312778,0.0
2596,-0.0743691404595331,0.0
2597,-0.129647679551563,0.0
2598,-0.06143324545852068,0.0
2599,-0.0646159445900524,0.0
2600,0.347069962120784,0.0
2601,3.8940426613770724,0.0
2602,6.582041454216291,0.0
2603,-1.0872215316638967,0.0
2604,-1.5328160947871345,0.0
2605,1.363613791674476,0.0
2606,-0.9019080771349711,0.0
2607,0.08266154756229074,0.0
2608,-7.462191262130879e-07,0.0
2609,-0.05868992883309405,0.0
2610,-0.03707138116105993,0.0
2611,-0.04486727110237765,0.0
2612,-0.11199395587905568,0.0
2613,-0.04627169292791684,0.0
2614,-0.07617748456950407,0.0
2615,-0.027967885749881394,0.0
2616,0.003973073948601323,0.0
2617,-0.10866270194271699,0.0
2618,-0.018877376091066937,0.0
2619,-0.06213336638897378,0.0
2620,0.2968823173544329,0.0
2621,3.975375884780578,0.0
2622,6.629461734583785,0.0
2623,-0.9751324328493629,0.0
2624,-1.6927510362182434,0.0
2625,1.3600727899591414,0.0
2626,-0.882794918367743,0.0
2627,0.0919042523411748,0.0
2628,-0.09902638827719412,0.0
2629,-0.2017594563673019,0.0
2630,-0.10304542329489796,0.0
2631,-0.11158251391896093,0.0
2632,-0.17159957583558294,0.0
2633,-0.16256867692312132,0.0
2634,-0.08185026144035143,0.0
2635,-0.031232610728310448,0.0
2636,-0.11055045822526012,0.0
2637,-0.08187390457551931,0.0
2638,-0.1011988102433948,0.0
2639,-0.15147405468851108,0.0
2640,0.2430105866016383,0.0
2641,3.8682060038521615,0.0
2642,6.602264127397156,0.0
2643,-1.0578304789521698,0.0
2644,-1.5994317846026305,0.0
2645,1.388578276303709,0.0
2646,-0.9220968633210256,0.0
2647,0.13330324986495568,0.0
2648,-0.05140726629696507,0.0
2649,-0.16837202438875956,0.0
2650,-0.03823143127689692,0.0
2651,-0.08281164437371646,0.0
2652,-0.0688579192271395,0.0
2653,0.004250276823615104,0.0
2654,-0.01575437261924008,0.0
2655,-0.12491683339583914,0.0
2656,-0.020855299378493175,0.0
2657,-0.12409230166316099,0.0
2658,-0.07341837376583728,0.0
2659,-0.117892639845907,0.0
2660,0.17791693112584106,0.0
2661,3.8276260401327895,0.0
2662,6.584745372999634,0.0
2663,-0.9976163826601705,0.0
2664,-1.5928367240183239,0.0
2665,1.4701273893492957,0.0
2666,-0.8583525796147707,0.0
2667,0.18372244749304717,0.0
2668,-0.12836447498200895,0.0
2669,-0.13666011110055043,0.0
2670,-0.049502380670086533,0.0
2671,-0.08473096681924261,0.0
2672,-0.05682430784593366,0.0
2673,-0.08563639092819539,0.0
2674,-0.06155547910076883,0.0
2675,-0.15768499424492902,0.0
2676,-0.11425572007985937,0.0
2677,-0.021750664483141176,0.0
2678,-0.0955919680719702,0.0
2679,-0.10062592736489803,0.0
2680,0.3451558797987978,0.0
2681,3.905875465571447,0.0
2682,6.51992623597242,0.0
2683,-0.9936778099697089,0.0
2684,-1.6532344582631255,0.0
2685,1.4316884113323505,0.0
2686,-0.9415248187894529,0.0
2687,0.1586120936406958,0.0
2688,-0.024458982763346446,0.0
2689,-0.10276833068863298,0.0
2690,-0.06712148229101902,0.0
2691,-0.16270194661837145,0.0
2692,-0.10905857709394376,0.0
2693,-0.1465642142689023,0.0
2694,-0.1288880118029789,0.0
2695,-0.050260750824093994,0.0
2696,-0.044868154653398024,0.0
2697,0.04685043892383685,0.0
2698,-0.05745286062560334,0.0
2699,-0.08912758887599306,0.0
2700,0.26487078912056294,0.0
2701,3.921142452809443,0.0
2702,6.610567853832503,0.0
2703,-1.0494741145866493,0.0
2704,-1.687707395998297,0.0
2705,1.3019623109011915,0.0
2706,-0.789531164137819,0.0
2707,0.21508903537127524,0.0
2708,-0.033498712691110724,0.0
2709,-0.013022099490849481,0.0
2710,-0.03822758920527808,0.0
2711,-0.06257115380715586,0.0
2712,-0.05968353036138164,0.0
2713,-0.03374139034915015,0.0
2714,-0.02069933421842043,0.0
2715,-0.08217229297019073,0.0
2716,-0.05640039136150548,0.0
2717,-0.0021078748967657684,0.0
2718,-0.021052917975312155,0.0
2719,-0.026076661130718323,0.0
2720,0.2782389987966792,0.0
2721,3.982700140467336,0.0
2722,6.621063247227752,0.0
2723,-1.0418999385738728,0.0
2724,-1.6189095355267962,0.0
2725,1.4622829598296674,0.0
2726,-0.7862709679858635,0.0
2727,0.13313272861989006,0.0
2728,-0.07312680975275365,0.0
2729,-0.10982769043016873,0.0
2730,-0.018717889256486216,0.0
2731,-0.05369361566332093,0.0
2732,0.000901105953199921,0.0
2733,-0.02227805768226707,0.0
2734,-0.028337962540258263,0.0
2735,-0.04860649838908099,0.0
2736,-0.05631425741720121,0.0
2737,-0.09157725486605103,0.0
2738,0.00449330998160501,0.0
2739,-0.059898968661262486,0.0
2740,0.28518602527014775,0.0
2741,3.8970867605714137,0.0
2742,6.639297089461801,0.0
2743,-0.9283944015835557,0.0
2744,-1.4928043841887146,0.0
2745,1.3787540653834014,0.0
2746,-0.7855524121438651,0.0
2747,0.1747236359626266,0.0
2748,-0.030808564301332615,0.0
2749,-0.027190310039637875,0.0
2750,0.015521724441104974,0.0
2751,-0.003965795730503504,0.0
2752,-0.008016741965013442,0.0
2753,-0.07495782881120781,0.0
2754,-0.03352223198053453,0.0
2755,-0.01550673293184331,0.0
2756,-0.05596786376825991,0.0
2757,0.0007414222718923023,0.0
2758,0.018195653746685574,0.0
2759,-0.0005680231209588861,0.0
2760,0.373203207448162,0.0
2761,3.9612558614685813,0.0
2762,6.601138654754323,0.0
2763,-0.9774028021066763,0.0
2764,-1.537409918857683,0.0
2765,1.4717254683578973,0.0
2766,-0.844552662686119,0.0
2767,0.12837488116393575,0.0
2768,-0.11790376431570637,0.0
2769,-0.08662941196806495,0.0
2770,0.021057133233414807,0.0
2771,-0.0700352732149997,0.0
2772,-0.051889066891720584,0.0
2773,-0.038804528879840344,0.0
2774,0.031190369883481683,0.0
2775,-0.035958748318297054,0.0
2776,0.020379536115465162,0.0
2777,-0.04922818670425179,0.0
2778,-0.045080202199273306,0.0
2779,-0.020654587779951213,0.0
2780,0.4034946980476012,0.0
2781,3.9568878684142756,0.0
2782,6.617934684430019,0.0
2783,-1.1311497416791998,0.0
2784,-1.5403167583630883,0.0
2785,1.5021870717659458,0.0
2786,-0.8364353467596042,0.0
2787,0.16531143255472538,0.0
2788,-0.05227276774755928,0.0
2789,0.010275175894405408,0.0
2790,-0.016971112600196465,0.0
2791,-0.04990223062161059,0.0
2792,-0.026006069662239582,0.0
2793,-0.03797037442589671,0.0
2794,-0.06236401051563856,0.0
2795,-0.00912305584051413,0.0
2796,-0.02368282071443839,0.0
2797,0.004279134271355489,0.0
2798,0.07724078363789597,0.0
2799,0.052154641394965354,0.0
2800,0.44074612443547795,0.0
2801,3.9877679217268156,0.0
2802,6.646789206332269,0.0
2803,-1.0787102895332228,0.0
2804,-1.4665332233810253,0.0
2805,1.458858227292137,0.0
2806,-0.783818557138541,0.0
2807,0.1728667203289363,0.0
2808,-0.018095054056597656,0.0
2809,0.07533553004407881,0.0
2810,0.030257006105089884,0.0
2811,-0.02756821685521957,0.0
2812,-0.06785173667000025,0.0
2813,-0.007820358276268357,0.0
2814,-0.03773565846314987,0.0
2815,0.016293049729057863,0.0
2816,-0.03282866709022586,0.0
2817,-0.012130700096775868,0.0
2818,-0.03405241189723137,0.0
2819,-0.011097590275879483,0.0
2820,0.34750902456175375,0.0
2821,4.048606280748256,0.0
2822,6.665897992472354,0.0
2823,-1.0444238901284288,0.0
2824,-1.42721021824853,0.0
2825,1.3194110851577376,0.0
2826,-0.7342673970692121,0.0
2827,0.2721945447819286,0.0
2828,-0.046715988737958875,0.0
2829,-0.006827760792526713,0.0
2830,0.024621626583994256,0.0
2831,0.008486462309196339,0.0
2832,-0.018148132375063908,0.0
2833,0.024660771931464865,0.0
2834,0.006864114958018828,0.0
2835,0.06793994749936756,0.0
2836,0.12730966171273791,0.0
2837,-0.051727107437812676,0.0
2838,0.04177912089175836,0.0
2839,-0.015954637236233166,0.0
2840,0.38746791914656314,0.0
2841,3.9740644401211522,0.0
2842,6.636424642839417,0.0
2843,-1.071685246424172,0.0
2844,-1.538687724474001,0.0
2845,1.3912318247058173,0.0
2846,-0.7749072711012304,0.0
2847,0.3056122575475671,0.0
2848,-0.06795277812853835,0.0
2849,-0.04521418538587511,0.0
2850,0.03973127662341501,0.0
2851,-0.0215248690312237,0.0
2852,0.0011584854674688587,0.0
2853,-0.1101221400607848,0.0
2854,0.0806004151408659,0.0
2855,-0.024275285195121635,0.0
2856,0.004056371318053746,0.0
2857,0.040345744024960016,0.0
2858,-0.0231358597344769,0.0
2859,0.07836710746909352,0.0
2860,0.4179648844954301,0.0
2861,4.019191387744845,0.0
2862,6.691979173204087,0.0
2863,-1.074220929145887,0.0
2864,-1.3175416996556235,0.0
2865,1.5416566892545087,0.0
2866,-0.7408177154465617,0.0
2867,0.23325244630547526,0.0
2868,0.056497631016244616,0.0
2869,-0.025255104272500096,0.0
2870,0.0719800499696582,0.0
2871,0.07561021881033593,0.0
2872,0.09296714469406497,0.0
2873,-0.007050628617866102,0.0
2874,0.09231650088700134,0.0
2875,0.1723301784800684,0.0
2876,0.07012128448498242,0.0
2877,0.038317405062000404,0.0
2878,0.09275816587123262,0.0
2879,0.08523651725770909,0.0
2880,0.49762994385830434,0.0
2881,4.039680954883882,0.0
2882,6.747616112533276,0.0
2883,-1.014360637837495,0.0
2884,-1.4544395061355928,0.0
2885,1.4688606484517264,0.0
2886,-0.7552681799706704,0.0
2887,0.29534506857726167,0.0
2888,-0.0010972830628727497,0.0
2889,0.011369816216945734,0.0
2890,-0.01282254462037695,0.0
2891,0.09819218341183863,0.0
2892,-0.018408226648850327,0.0
2893,0.03723970692207912,0.0
2894,0.030727487267102605,0.0
2895,-0.044289527473800855,0.0
2896,-0.008646506515134381,0.0
2897,0.025538610252923838,0.0
2898,0.022597571465361663,0.0
2899,-0.04192185173727675,0.0
2900,0.4327148334862611,0.0
2901,4.11255363762222,0.0
2902,6.674048672747746,0.0
2903,-0.9952286149337868,0.0
2904,-1.3818287005600742,0.0
2905,1.4454879038933406,0.0
2906,-0.7283739792029269,0.0
2907,0.346927088334298,0.0
2908,-0.034731525141185375,0.0
2909,0.03545433672462644,0.0
2910,0.07497554335712313,0.0
2911,0.08808831951643503,0.0
2912,-0.02816400860941439,0.0
2913,0.035922408288774965,0.0
2914,0.03756753045297557,0.0
2915,0.036259508339653454,0.0
2916,0.09589319351463682,0.0
2917,0.09236507494041822,0.0
2918,0.06916004913724909,0.0
2919,0.14583903836229284,0.0
2920,0.41612024535318654,0.0
2921,4.075375710081523,0.0
2922,6.668575401028977,0.0
2923,-1.077124730081437,0.0
2924,-1.4656461660506712,0.0
2925,1.5037430270001872,0.0
2926,-0.7853539332373402,0.0
2927,0.25759456808166825,0.0
2928,-0.06507600161310285,0.0
2929,-0.08013179440031233,0.0
2930,0.048076078473206246,0.0
2931,-0.0005232999280486723,0.0
2932,0.023788407838178816,0.0
2933,-0.03339615793843702,0.0
2934,-0.04407128193850285,0.0
2935,-0.02146981696718876,0.0
2936,0.021932211044125606,0.0
2937,-0.014895246529920705,0.0
2938,0.1035669707783626,0.0
2939,0.030281562568970532,0.0
2940,0.48112924143330027,0.0
2941,4.102944422543576,0.0
2942,6.825273612118259,0.0
2943,-0.9769946580697293,0.0
2944,-1.3778640537529099,0.0
2945,1.5228605629897747,0.0
2946,-0.7188179922391467,0.0
2947,0.2215861906778588,0.0
2948,0.012738004757438574,0.0
2949,0.06503484435401291,0.0
2950,0.04637939378548435,0.0
2951,0.09501241998167531,0.0
2952,0.09780621727953648,0.0
2953,0.04444292611580952,0.0
2954,-0.008384413740762237,0.0
2955,0.0316091886740972,0.0
2956,-0.021916674158184643,0.0
2957,-0.018252766951231784,0.0
2958,-0.03478012376564157,0.0
2959,-0.08427355891844562,0.0
2960,0.33301100403543704,0.0
2961,4.02140919315388,0.0
2962,6.701528843591242,0.0
2963,-1.057596789079001,0.0
2964,-1.498153246409126,0.0
2965,1.4765769504172388,0.0
2966,-0.6932236887113188,0.0
2967,0.3944555559267019,0.0
2968,-0.05070468520036414,0.0
2969,0.05426081725201315,0.0
2970,0.03307719482730083,0.0
2971,0.02572723263389491,0.0
2972,0.033428175693416204,0.0
2973,-0.005691947992535702,0.0
2974,0.006184307296153588,0.0
2975,0.028285064246142265,0.0
2976,0.05347041949034722,0.0
2977,0.04748147412156472,0.0
2978,-0.03204056439751325,0.0
2979,0.04561160496276311,0.0
2980,0.37513056391746374,0.0
2981,4.028659744232365,0.0
2982,6.555800735291775,0.0
2983,-1.0940114277923854,0.0
2984,-1.433042042759098,0.0
2985,1.5178221056170105,0.0
2986,-0.8473786094011134,0.0
2987,0.07837168328856653,0.0
2988,0.033604629920560604,0.0
2989,-0.02127516608890645,0.0
2990,0.0029238061908611335,0.0
2991,-0.01666344213945491,0.0
2992,-0.005474305042350337,0.0
2993,0.0637099211204038,0.0
2994,-0.005664099428894018,0.0
2995,0.044030444194136514,0.0
2996,-0.11236380982434291,0.0
2997,-0.0519526268615896,0.0
2998,-0.005520122702219195,0.0
2999,0.073160243029437,0.0
3000,0.3840284661674464,0.0
3001,4.147820112837446,0.0
3002,6.686059248786862,0.0
3003,-1.0343767352164894,0.0
3004,-1.3800412173336558,0.0
3005,1.5171528425942,0.0
3006,-0.6837874190891282,0.0
3007,0.27906609283631056,0.0
3008,-0.014892493023303066,0.0
3009,0.020178375874593667,0.0
3010,0.051199844150618824,0.0
3011,0.11940757930750387,0.0
3012,-0.08093662950987139,0.0
3013,-0.1319392876399658,0.0
3014,-0.016371523822861455,0.0
3015,-0.07415368472145314,0.0
3016,-0.04569680925713681,0.0
3017,-0.020614366986367788,0.0
3018,-0.03952873652471225,0.0
3019,0.010160927767854284,0.0
3020,0.30290853919689925,0.0
3021,4.069116275456631,0.0
3022,6.575297632398027,0.0
3023,-1.0816850240258151,0.0
3024,-1.3808579840945208,0.0
3025,1.405148794951809,0.0
3026,-0.7113301842748453,0.0
3027,0.22834969612850717,0.0
3028,-0.08703610456982495,0.0
3029,-0.0782519989375577,0.0
3030,-0.010038738724211117,0.0
3031,0.005704898719871576,0.0
3032,-0.02047492879802414,0.0
3033,-0.029885594040195022,0.0
3034,-0.08433950774967759,0.0
3035,0.0067026243254878284,0.0
3036,-0.1005041548911419,0.0
3037,-0.04998410102714253,0.0
3038,-0.051744120684495104,0.0
3039,-0.03492617036029441,0.0
3040,0.28531569713792587,0.0
3041,3.988626978083711,0.0
3042,6.693656025545067,0.0
3043,-1.1286463350577849,0.0
3044,-1.512902856600933,0.0
3045,1.4364822329660993,0.0
3046,-0.8286257898904427,0.0
3047,0.25401357795122076,0.0
3048,-0.11800982090205947,0.0
3049,-0.04238962855848,0.0
3050,0.0508282269596665,0.0
3051,0.0021545147071729345,0.0
3052,-0.005167624875770133,0.0
3053,0.06909316647692873,0.0
3054,-0.020378962434772416,0.0
3055,-0.013861277638820434,0.0
3056,0.005885511682356157,0.0
3057,-0.017192020659816596,0.0
3058,-0.07108452307047783,0.0
3059,-0.0949667168071013,0.0
3060,0.40366910164093583,0.0
3061,4.038668913295022,0.0
3062,6.558867277993544,0.0
3063,-1.1016685090301055,0.0
3064,-1.453301275718316,0.0
3065,1.3244692109256353,0.0
3066,-0.8360353099669293,0.0
3067,0.25651404156027136,0.0
3068,-0.08907106002709922,0.0
3069,0.10624469151727875,0.0
3070,-0.050348339933423164,0.0
3071,0.016699859905701428,0.0
3072,-0.002368355705037248,0.0
3073,0.008362485922890643,0.0
3074,-0.021822487562723113,0.0
3075,0.03757035682259701,0.0
3076,-0.050011671726625524,0.0
3077,0.07902172660631154,0.0
3078,0.18931494302266827,0.0
3079,0.11768763990290416,0.0
3080,0.5509149768308101,0.0
3081,4.0596573264018545,0.0
3082,6.5800075339015835,0.0
3083,-1.0398492325211477,0.0
3084,-1.4321499947812446,0.0
3085,1.4911797649832523,0.0
3086,-0.7522668173775281,0.0
3087,0.20863461119788065,0.0
3088,-0.0182084202809096,0.0
3089,-0.027828927146262693,0.0
3090,-0.09269479599472838,0.0
3091,-0.06212339625228952,0.0
3092,-0.050365660201167735,0.0
3093,-0.029202886688480624,0.0
3094,-0.04295966566564482,0.0
3095,-0.03155690571918496,0.0
3096,-0.04735839367566634,0.0
3097,-0.11678718984865542,0.0
3098,0.12787204346442083,0.0
3099,-0.0325114282685813,0.0
3100,0.41061595750743995,0.0
3101,4.126771125203649,0.0
3102,6.719413541828177,0.0
3103,-1.092403143285886,0.0
3104,-1.393309002349563,0.0
3105,1.4500632263764606,0.0
3106,-0.6790173588461422,0.0
3107,0.25403171938537844,0.0
3108,0.0017684862601060908,0.0
3109,-0.03839914756174192,0.0
3110,0.13707622509443318,0.0
3111,-0.033906755258392936,0.0
3112,0.013835217466089325,0.0
3113,-0.037164340602098854,0.0
3114,-0.008176896397648445,0.0
3115,-0.075161824222053,0.0
3116,0.009671266160057524,0.0
3117,-0.03647354218006056,0.0
3118,-0.06276160912920684,0.0
3119,-0.016571719609868033,0.0
3120,0.38332739714052744,0.0
3121,4.018796247772318,0.0
3122,6.562615234451543,0.0
3123,-1.0548538549806794,0.0
3124,-1.480737233880496,0.0
3125,1.4493424222063374,0.0
3126,-0.7638438370127716,0.0
3127,0.13530433325522204,0.0
3128,0.0292357759837668,0.0
3129,-0.03733222837328546,0.0
3130,-0.07034561746827128,0.0
3131,-0.039142406871081684,0.0
3132,0.036554536537218046,0.0
3133,0.040602996341541624,0.0
3134,-0.03664760164764811,0.0
3135,0.04370415072189753,0.0
3136,-0.04451785060051232,0.0
3137,0.0635233421818315,0.0
3138,0.1212365226513456,0.0
3139,0.13483519428664434,0.0
3140,0.40879449249583183,0.0
3141,4.065588020150906,0.0
3142,6.678679876967759,0.0
3143,-1.0549298219121461,0.0
3144,-1.4590013088905704,0.0
3145,1.4080095215289548,0.0
3146,-0.7778590991151225,0.0
3147,0.3300336870457216,0.0
3148,-0.03910404633656699,0.0
3149,-0.02279035337128875,0.0
3150,0.05460480181246184,0.0
3151,-0.006581268241284103,0.0
3152,0.05503220758203447,0.0
3153,0.01443520350155102,0.0
3154,0.03832920123738761,0.0
3155,-0.0421103502155246,0.0
3156,0.09138325065665007,0.0
3157,-0.021585984660867384,0.0
3158,-0.02078950495233696,0.0
3159,0.0013573776887874298,0.0
3160,0.4647301445089504,0.0
3161,4.1539913952382514,0.0
3162,6.616448110817619,0.0
3163,-1.1005561149743166,0.0
3164,-1.3962216088620865,0.0
3165,1.4920970668263132,0.0
3166,-0.7845977051160643,0.0
3167,0.20957869923417458,0.0
3168,0.08316782271899142,0.0
3169,0.06796700888631707,0.0
3170,-0.012423272167834926,0.0
3171,0.0032890244462615847,0.0
3172,0.13055463479032164,0.0
3173,-0.007481802665573183,0.0
3174,0.04928170792713933,0.0
3175,-0.008082405048773833,0.0
3176,0.10062181085863892,0.0
3177,0.06631198421866437,0.0
3178,0.02901504140951404,0.0
3179,-0.035438325426097005,0.0
3180,0.3920485448503524,0.0
3181,4.090395650079736,0.0
3182,6.596904354647139,0.0
3183,-1.090104173298332,0.0
3184,-1.3751043836541448,0.0
3185,1.4695560199493394,0.0
3186,-0.7097159360868973,0.0
3187,0.17228075408991755,0.0
3188,-0.004860158576807133,0.0
3189,0.009514139798653657,0.0
3190,0.03028472864903628,0.0
3191,0.06393831500241118,0.0
3192,0.05519845482208358,0.0
3193,-0.0032100776640878737,0.0
3194,-0.003966362636407442,0.0
3195,0.03707702161291282,0.0
3196,-0.027848627917269386,0.0
3197,0.058477831540947225,0.0
3198,0.009303352586239308,0.0
3199,0.07681836769153141,0.0
3200,0.4291513398663519,0.0
3201,4.084554840029313,0.0
3202,6.5477904554365125,0.0
3203,-1.1332079009654963,0.0
3204,-1.514366125398056,0.0
3205,1.3961522995046676,0.0
3206,-0.8776716859948095,0.0
3207,0.1486461002867206,0.0
3208,-0.01429597252952313,0.0
3209,-0.012031071510096261,0.0
3210,-0.027433537262396335,0.0
3211,0.0478414663854679,0.0
3212,-0.046038475784893666,0.0
3213,-0.0439011125845713,0.0
3214,-0.01099807478537743,0.0
3215,0.067335877777457,0.0
3216,-0.05889916606910957,0.0
3217,0.01527196555394537,0.0
3218,0.006953007525280459,0.0
3219,0.0462643824403164,0.0
3220,0.4778425248743082,0.0
3221,4.020151046453675,0.0
3222,6.589968404559487,0.0
3223,-1.1062975469973533,0.0
3224,-1.4687709471072974,0.0
3225,1.451425417447419,0.0
3226,-0.6893818771637585,0.0
3227,0.2940068000794392,0.0
3228,-0.12428460073570055,0.0
3229,-0.004560473238584221,0.0
3230,0.10012677846332164,0.0
3231,-0.01998942457699293,0.0
3232,0.011668983687984098,0.0
3233,0.10089082565092279,0.0
3234,-0.039362300914545255,0.0
3235,0.03466628230269725,0.0
3236,0.0006949214839316389,0.0
3237,0.07175274175496771,0.0
3238,0.06535164674846917,0.0
3239,0.0516432722411333,0.0
3240,0.4788520234464751,0.0
3241,4.123915462591168,0.0
3242,6.614217705890795,0.0
3243,-1.1305279982537153,0.0
3244,-1.3568785782450297,0.0
3245,1.362758504149352,0.0
3246,-0.71261518159965,0.0
3247,0.2528164407280575,0.0
3248,0.005196647801835881,0.0
3249,-0.0712334704734406,0.0
3250,-0.05737334111695716,0.0
3251,-0.020875973325299602,0.0
3252,-0.0026579903771666406,0.0
3253,-0.0075416034083896225,0.0
3254,0.018373780408304,0.0
3255,-0.03826263820260097,0.0
3256,-0.04446082538800478,0.0
3257,0.06213868289616789,0.0
3258,-0.055759810722947487,0.0
3259,0.03623646050337614,0.0
3260,0.4791405276015322,0.0
3261,4.042726227466678,0.0
3262,6.624546133048486,0.0
3263,-1.090121297159096,0.0
3264,-1.4525976230570206,0.0
3265,1.3776834557417716,0.0
3266,-0.8976897166325339,0.0
3267,0.16290561803083126,0.0
3268,-0.03029282368100134,0.0
3269,-0.053611108394283305,0.0
3270,0.0037934079137300954,0.0
3271,-0.04309593913901939,0.0
3272,0.027254719924547532,0.0
3273,0.0402659084381873,0.0
3274,-0.07752604522279861,0.0
3275,-0.0014410639761184493,0.0
3276,0.04102316931240772,0.0
3277,-0.015591615680507927,0.0
3278,0.09611838683535551,0.0
3279,-0.023858782035691164,0.0
3280,0.3948206481960064,0.0
3281,4.067582072473869,0.0
3282,6.566966420010481,0.0
3283,-1.1464213400620473,0.0
3284,-1.3958841443459724,0.0
3285,1.3961890803703032,0.0
3286,-0.870291932678841,0.0
3287,0.19037842601045105,0.0
3288,-0.050165259496239095,0.0
3289,-0.09755231766185814,0.0
3290,0.027536968306197902,0.0
3291,-0.07675043507211103,0.0
3292,-0.09378953382885276,0.0
3293,-0.10571322501820675,0.0
3294,-0.03758951485695523,0.0
3295,0.011287805211058086,0.0
3296,-0.04643798904895021,0.0
3297,-0.08379130237130954,0.0
3298,-0.07545102295212514,0.0
3299,-0.05064683902427625,0.0
3300,0.31498221844659335,0.0
3301,4.071843374634341,0.0
3302,6.501650162671815,0.0
3303,-1.2035739916291217,0.0
3304,-1.5161675606015095,0.0
3305,1.379050403656841,0.0
3306,-0.8601573385247356,0.0
3307,0.16190393261703218,0.0
3308,-0.06875185885824273,0.0
3309,0.04195352489859523,0.0
3310,-0.0720845346436998,0.0
3311,-0.03081488441891809,0.0
3312,-0.049741693276055064,0.0
3313,0.015028976095349512,0.0
3314,-0.0809485655243417,0.0
3315,-0.05466042966291285,0.0
3316,-0.09330400751745013,0.0
3317,-0.03044052122693822,0.0
3318,0.018541644855468248,0.0
3319,-0.008457964446617759,0.0
3320,0.32345722001903593,0.0
3321,4.097823411259854,0.0
3322,6.5355245143695555,0.0
3323,-1.1051050833920864,0.0
3324,-1.5051669439513735,0.0
3325,1.4802882843476521,0.0
3326,-0.83741516799429,0.0
3327,0.30217729994742043,0.0
3328,-0.04697654093653376,0.0
3329,-0.09437656490058291,0.0
3330,-0.0951757674673325,0.0
3331,-0.021560342798190694,0.0
3332,-0.052534051795985935,0.0
3333,0.03519147501313262,0.0
3334,0.07382709470820174,0.0
3335,-0.005925508598793899,0.0
3336,0.08756265313044097,0.0
3337,-0.02978689950378017,0.0
3338,-0.038010277439841214,0.0
3339,0.034531411617623214,0.0
3340,0.40330892760900794,0.0
3341,4.028889291858074,0.0
3342,6.664948136222523,0.0
3343,-1.088939244615894,0.0
3344,-1.4762979250822812,0.0
3345,1.399229828714472,0.0
3346,-0.8693006845017008,0.0
3347,0.1789502755116391,0.0
3348,-0.048297951332289715,0.0
3349,-0.025985460269337554,0.0
3350,0.045820264237733936,0.0
3351,0.04495194857204135,0.0
3352,0.01626889193879922,0.0
3353,-0.06216993600775045,0.0
3354,-0.061836507949257574,0.0
3355,-0.07849580086023687,0.0
3356,-0.023596314422642997,0.0
3357,0.0843367802903015,0.0
3358,-0.07046653238849715,0.0
3359,-0.05940771362793656,0.0
3360,0.38673235149393154,0.0
3361,4.15862274247513,0.0
3362,6.53194701760609,0.0
3363,-1.1315396890271456,0.0
3364,-1.4303930604295665,0.0
3365,1.395145418692096,0.0
3366,-0.8097852732785096,0.0
3367,0.21900329880750255,0.0
3368,0.00515555547870139,0.0
3369,-0.044882148084181006,0.0
3370,0.02784983247261485,0.0
3371,-0.0697967259581042,0.0
3372,0.06950180635571733,0.0
3373,0.0260701624814232,0.0
3374,-0.01681324453464288,0.0
3375,0.05302608345779418,0.0
3376,-0.06294257626651546,0.0
3377,-0.019000929961911203,0.0
3378,-0.05886809939507599,0.0
3379,-0.11963885149579756,0.0
3380,0.38849398191546053,0.0
3381,4.099111089587728,0.0
3382,6.600489258042124,0.0
3383,-1.1321882711411126,0.0
3384,-1.3945051471029155,0.0
3385,1.2635263438603332,0.0
3386,-0.8724780359343961,0.0
3387,0.17542544387418063,0.0
3388,-0.09253099597366601,0.0
3389,-0.041707056021818886,0.0
3390,0.07452833405137242,0.0
3391,0.0009864615848202592,0.0
3392,0.08492430702428921,0.0
3393,0.04324089596908928,0.0
3394,0.028704266623138932,0.0
3395,-0.06183554283221439,0.0
3396,0.01103550078518585,0.0
3397,-0.01888901947019795,0.0
3398,0.0357513309865751,0.0
3399,-0.09827114596801352,0.0
3400,0.46139470393752985,0.0
3401,4.124361298689533,0.0
3402,6.630920249455987,0.0
3403,-1.185237580036308,0.0
3404,-1.2993503768808887,0.0
3405,1.4530238110082272,0.0
3406,-0.7747090842931551,0.0
3407,0.24929877915301593,0.0
3408,0.08421640070425464,0.0
3409,-0.12090439816619591,0.0
3410,0.023540117411527447,0.0
3411,0.03866241775908782,0.0
3412,0.07491240578853633,0.0
3413,0.0229754809368293,0.0
3414,-0.05609583578614722,0.0
3415,0.07947116790070599,0.0
3416,-0.07269909939409501,0.0
3417,-0.045383741590146104,0.0
3418,-0.03524178806674637,0.0
3419,0.07121144752926799,0.0
3420,0.3977234057440042,0.0
3421,4.163366505203776,0.0
3422,6.576125060715252,0.0
3423,-1.0968847334075205,0.0
3424,-1.3796480648135943,0.0
3425,1.5157674456487544,0.0
3426,-0.7095708199465204,0.0
3427,0.31053115606879217,0.0
3428,-0.025641670456012927,0.0
3429,0.04931709821682111,0.0
3430,0.11788963532166176,0.0
3431,0.11492567711984229,0.0
3432,0.056387433494914485,0.0
3433,0.02197084579347912,0.0
3434,0.18442896743416504,0.0
3435,0.14705605085472695,0.0
3436,0.1444048653988737,0.0
3437,0.09864346845791526,0.0
3438,0.09779361755343934,0.0
3439,0.13739868474915107,0.0
3440,0.44713943780532417,0.0
3441,4.134491363312449,0.0
3442,6.615313019177776,0.0
3443,-1.1384458045593862,0.0
3444,-1.2868979395801403,0.0
3445,1.5491051343451012,0.0
3446,-0.7223102683504364,0.0
3447,0.27661362285017205,0.0
3448,0.05102088090041447,0.0
3449,0.01876043315331878,0.0
3450,0.030661591040624374,0.0
3451,-0.04281063861407479,0.0
3452,-0.002962656275559094,0.0
3453,0.016639121452274946,0.0
3454,-0.08815419489150013,0.0
3455,-0.018661447526460016,0.0
3456,0.08786086117128973,0.0
3457,0.09607851968180775,0.0
3458,0.029074611825434745,0.0
3459,0.054255029968754226,0.0
3460,0.41808667664800825,0.0
3461,4.163982954454575,0.0
3462,6.5866248711148945,0.0
3463,-1.171664976865581,0.0
3464,-1.3604601678532147,0.0
3465,1.4462965384003643,0.0
3466,-0.7143054748014394,0.0
3467,0.2741943689084045,0.0
3468,-0.059451071910334594,0.0
3469,0.0673337659718777,0.0
3470,0.031987691284511954,0.0
3471,0.004077811250978269,0.0
3472,-0.022905435280416074,0.0
3473,-0.007332155736395387,0.0
3474,0.11146853132298097,0.0
3475,-0.006541686093521234,0.0
3476,-0.03215025226038748,0.0
3477,0.01509250193713905,0.0
3478,-0.029747514401715,0.0
3479,-0.004158177066941691,0.0
3480,0.39992934605821284,0.0
3481,4.200656646436627,0.0
3482,6.6207420723561095,0.0
3483,-1.169025300680368,0.0
3484,-1.292369707865201,0.0
3485,1.4588324042288279,0.0
3486,-0.7535103931769156,0.0
3487,0.3520301707667995,0.0
3488,-0.08847189110528575,0.0
3489,0.0326445179589409,0.0
3490,-0.001391104384301449,0.0
3491,-0.047093709398005834,0.0
3492,0.05137334009871417,0.0
3493,0.045945164692102955,0.0
3494,0.06536639842606429,0.0
3495,-0.019962391747511434,0.0
3496,-0.003872742955563821,0.0
3497,0.03334422751698704,0.0
3498,0.11680466494193913,0.0
3499,-0.00180638593078793,0.0
3500,0.49339471678637836,0.0
3501,4.194467405087297,0.0
3502,6.491608002897022,0.0
3503,-1.1536209097569987,0.0
3504,-1.3340955865160056,0.0
3505,1.5478482136937186,0.0
3506,-0.8088019840707944,0.0
3507,0.33102604800275093,0.0
3508,-0.027262494320572286,0.0
3509,-0.0359281104794211,0.0
3510,0.11337288444392975,0.0
3511,-0.04488521361092897,0.0
3512,0.02626738836911294,0.0
3513,-0.04255429821834013,0.0
3514,-0.015656641032771798,0.0
3515,-0.0651307799461574,0.0
3516,-0.030982862743723374,0.0
3517,0.04908558491055571,0.0
3518,-0.0465690390963507,0.0
3519,0.031191651033148915,0.0
3520,0.3818061442173641,0.0
3521,4.1402523705998995,0.0
3522,6.4576057903322175,0.0
3523,-1.187164527363214,0.0
3524,-1.4660334701999187,0.0
3525,1.4268579698954602,0.0
3526,-0.8730502859413897,0.0
3527,0.2565576419873239,0.0
3528,-0.11153807607897671,0.0
3529,-0.007028148750225045,0.0
3530,0.05426380407977112,0.0
3531,-0.02479312215835292,0.0
3532,0.05888672777409902,0.0
3533,0.06191901596605698,0.0
3534,-0.018887181848213943,0.0
3535,-0.005266240553920311,0.0
3536,0.0006982296324398521,0.0
3537,0.09347164738132291,0.0
3538,0.05141089286062278,0.0
3539,0.10702321911277923,0.0
3540,0.41016780335341424,0.0
3541,4.228401724336971,0.0
3542,6.559752327519699,0.0
3543,-1.219792353583208,0.0
3544,-1.4546934486881071,0.0
3545,1.4090283632896239,0.0
3546,-0.7884226790067237,0.0
3547,0.24790231344510386,0.0
3548,0.04985914310409607,0.0
3549,-0.05071277167462905,0.0
3550,0.07142159056118702,0.0
3551,0.04732169035876656,0.0
3552,0.12856307406458012,0.0
3553,0.011998988619233757,0.0
3554,0.001365295285854922,0.0
3555,0.027212776364623888,0.0
3556,0.012745052974477974,0.0
3557,0.0006434811541241765,0.0
3558,0.06944740111043085,0.0
3559,-0.04520480506104756,0.0
3560,0.47200573142655067,0.0
3561,4.175682745385925,0.0
3562,6.642713971425186,0.0
3563,-1.1705389691898305,0.0
3564,-1.2402706427301002,0.0
3565,1.499255200276046,0.0
3566,-0.7885728811174912,0.0
3567,0.22991906157882608,0.0
3568,-0.017197942972157758,0.0
3569,0.029852919882068816,0.0
3570,0.14614048562629683,0.0
3571,-0.011048185690999086,0.0
3572,-0.004632086774771796,0.0
3573,0.08170159219443762,0.0
3574,-0.015140784988535137,0.0
3575,0.08078866886213018,0.0
3576,-0.10091083975827317,0.0
3577,0.03469391335772913,0.0
3578,0.04222802239648209,0.0
3579,0.07521819378707639,0.0
3580,0.528241047079114,0.0
3581,4.163561937843043,0.0
3582,6.565135100132153,0.0
3583,-1.2336446588775432,0.0
3584,-1.4249522146459213,0.0
3585,1.3599716393341321,0.0
3586,-0.8492073454491581,0.0
3587,0.13816899950910666,0.0
3588,0.023214122377070393,0.0
3589,-0.10331126177180537,0.0
3590,0.02387213930500133,0.0
3591,-0.018271551876676603,0.0
3592,-0.003334577265617946,0.0
3593,-0.0004739996269700758,0.0
3594,-0.05520853168624987,0.0
3595,-0.012783816496234793,0.0
3596,-0.015419957567698185,0.0
3597,-0.08237954827525623,0.0
3598,-0.02623438146928867,0.0
3599,-0.023137049843118405,0.0
3600,0.369417007591657,0.0
3601,4.049524870977727,0.0
3602,6.525908691760698,0.0
3603,-1.2451836654375008,0.0
3604,-1.3898649553141762,0.0
3605,1.3874032916994374,0.0
3606,-0.7679001309348478,0.0
3607,0.3095922710963519,0.0
3608,-0.03268744840739063,0.0
3609,0.06807422654061124,0.0
3610,0.0283241399831003,0.0
3611,0.10263665008770842,0.0
3612,0.0840714548609869,0.0
3613,0.08381283750995622,0.0
3614,0.02089367107604051,0.0
3615,-0.0007474891143945811,0.0
3616,-0.0024672700674736314,0.0
3617,0.11423893577602087,0.0
3618,-0.023225228901617087,0.0
3619,-0.0019056786220216435,0.0
3620,0.5334477722341173,0.0
3621,4.166180043274647,0.0
3622,6.598627323707294,0.0
3623,-1.1324453899443627,0.0
3624,-1.3425863195637366,0.0
3625,1.4238370717090574,0.0
3626,-0.8198232840576305,0.0
3627,0.27420499176771185,0.0
3628,-0.13053943893275602,0.0
3629,-0.0972192708743351,0.0
3630,0.00830019766460055,0.0
3631,0.0503674567043446,0.0
3632,0.05189231054575469,0.0
3633,0.11191314095205528,0.0
3634,0.04787785381743017,0.0
3635,0.03452606692605566,0.0
3636,0.04058371962560356,0.0
3637,0.08161065458543462,0.0
3638,0.12620899854628928,0.0
3639,0.05226281709653588,0.0
3640,0.4899253586710713,0.0
3641,4.102206914312975,0.0
3642,6.586690340033684,0.0
3643,-1.1985706956963358,0.0
3644,-1.3039373733085997,0.0
3645,1.500127039954025,0.0
3646,-0.6830520469234581,0.0
3647,0.30024869869945486,0.0
3648,-0.0075778075282961314,0.0
3649,0.07603197819781983,0.0
3650,-0.01667544718366104,0.0
3651,0.09854912337497052,0.0
3652,0.1317638008101356,0.0
3653,0.1143021014439338,0.0
3654,-0.04906131962043772,0.0
3655,0.11947587103086643,0.0
3656,0.011243701943576198,0.0
3657,0.12570623845873977,0.0
3658,0.05469343223112286,0.0
3659,0.10506811510557873,0.0
3660,0.4863144269137304,0.0
3661,4.174938936264302,0.0
3662,6.632586152262696,0.0
3663,-1.1116755712573223,0.0
3664,-1.2802077622056676,0.0
3665,1.4573930684053455,0.0
3666,-0.6375695506336702,0.0
3667,0.27290386658072907,0.0
3668,0.05360511961900112,0.0
3669,0.041265732145322344,0.0
3670,0.047102268282474116,0.0
3671,0.08117513256779034,0.0
3672,-0.020586276859361513,0.0
3673,0.022251315204653226,0.0
3674,0.030826734283772923,0.0
3675,-0.052041821776078565,0.0
3676,0.10455934070552275,0.0
3677,0.008496116586191874,0.0
3678,0.07152926936298376,0.0
3679,0.030138248974984443,0.0
3680,0.4940142018214547,0.0
3681,4.307859216434358,0.0
3682,6.578615200870601,0.0
3683,-1.2606283147669306,0.0
3684,-1.2709719917330191,0.0
3685,1.4990083182440568,0.0
3686,-0.7647467758952655,0.0
3687,0.2841117115117026,0.0
3688,0.06400474122669951,0.0
3689,0.004521219499969007,0.0
3690,0.04222073537401576,0.0
3691,0.042174330556817144,0.0
3692,0.031727431329084343,0.0
3693,0.07617544519225468,0.0
3694,0.12047791201345409,0.0
3695,0.16848779815145,0.0
3696,0.03971304863136661,0.0
3697,0.05516447513055087,0.0
3698,0.02262320967673461,0.0
3699,-0.023697068744734963,0.0
3700,0.5936664934845619,0.0
3701,4.191885303867912,0.0
3702,6.517986457953496,0.0
3703,-1.242584783873905,0.0
3704,-1.2979065201616866,0.0
3705,1.4297977872840617,0.0
3706,-0.7527486285011317,0.0
3707,0.3243838734660804,0.0
3708,0.06604797952555802,0.0
3709,0.029580592743009476,0.0
3710,0.011630928190127607,0.0
3711,0.10912921067075812,0.0
3712,0.12207264768633308,0.0
3713,0.022041638176162098,0.0
3714,0.05365630435157506,0.0
3715,0.0234737220025064,0.0
3716,0.013589828977132262,0.0
3717,0.10067040471834729,0.0
3718,0.09822418421591614,0.0
3719,0.031518594093360636,0.0
3720,0.4869724839402003,0.0
3721,4.2986683322656,0.0
3722,6.659041043282494,0.0
3723,-1.2013944213129482,0.0
3724,-1.285067365452213,0.0
3725,1.40756540924015,0.0
3726,-0.7674699283982742,0.0
3727,0.3310253877267688,0.0
3728,0.03526785687610062,0.0
3729,0.03548346609439276,0.0
3730,0.05030852936102935,0.0
3731,-0.04066680611745138,0.0
3732,0.09483972447399353,0.0
3733,0.01896672212354212,0.0
3734,0.0915784955703619,0.0
3735,0.0637860094962266,0.0
3736,0.019137229704618876,0.0
3737,0.05453345960732364,0.0
3738,0.02848739058642503,0.0
3739,0.022610070289185075,0.0
3740,0.5142513052320936,0.0
3741,4.168953779095388,0.0
3742,6.576916677344724,0.0
3743,-1.2322544401519726,0.0
3744,-1.2408403784280273,0.0
3745,1.432307450517401,0.0
3746,-0.7127144486693351,0.0
3747,0.2858106414580087,0.0
3748,0.06283796238314662,0.0
3749,0.07399314152973446,0.0
3750,0.049845741642459154,0.0
3751,0.024818825346718726,0.0
3752,0.04870236615952942,0.0
3753,-0.06742102562404406,0.0
3754,0.09614709421244613,0.0
3755,0.14357668201366147,0.0
3756,0.033323073673561576,0.0
3757,0.06557096688774666,0.0
3758,0.017852910638943356,0.0
3759,0.1762752195625808,0.0
3760,0.519384570197274,0.0
3761,4.1991023722236385,0.0
3762,6.657129524843399,0.0
3763,-1.1463744158647415,0.0
3764,-1.2893051451502475,0.0
3765,1.3803140044667117,0.0
3766,-0.681553672664367,0.0
3767,0.38724066632441234,0.0
3768,0.037914898374699024,0.0
3769,0.01929533452664011,0.0
3770,-0.0016917620598839306,0.0
3771,0.08207371739852357,0.0
3772,0.04951493293324363,0.0
3773,-0.0012905789735182804,0.0
3774,0.02748817094437472,0.0
3775,0.035474365731542536,0.0
3776,0.07860027136560808,0.0
3777,0.06536581634136855,0.0
3778,0.04867437444769278,0.0
3779,0.060406352189588605,0.0
3780,0.430076425471302,0.0
3781,4.183292337133517,0.0
3782,6.525479351252663,0.0
3783,-1.2359553297220864,0.0
3784,-1.3596082380328771,0.0
3785,1.4232761800589642,0.0
3786,-0.7903229167402128,0.0
3787,0.3997501791612911,0.0
3788,-0.04404108637889162,0.0
3789,0.04144970723435229,0.0
3790,0.07289676166139233,0.0
3791,-0.020636387478894486,0.0
3792,0.04884216422111558,0.0
3793,0.01411447598397669,0.0
3794,-0.0006592335719057818,0.0
3795,0.04469814051272707,0.0
3796,-0.006863145343387063,0.0
3797,0.13442727646312871,0.0
3798,0.058403942989951725,0.0
3799,0.11376261840071221,0.0
3800,0.4898598037571545,0.0
3801,4.205661863619761,0.0
3802,6.467011011582002,0.0
3803,-1.2658497380406009,0.0
3804,-1.2893750262362398,0.0
3805,1.4620362149382387,0.0
3806,-0.8445720319996212,0.0
3807,0.3425415139885745,0.0
3808,0.04228485775145086,0.0
3809,0.012346755846003813,0.0
3810,0.008873872137598389,0.0
3811,-0.016723183338748164,0.0
3812,-0.03482031984266202,0.0
3813,0.0337600460777066,0.0
3814,0.013772851673906069,0.0
3815,-0.054828692433365384,0.0
3816,0.11191842964193803,0.0
3817,-0.021028543213327956,0.0
3818,-0.08455812801076633,0.0
3819,0.04608016734643969,0.0
3820,0.3236821433340067,0.0
3821,4.132996305489541,0.0
3822,6.522771968649704,0.0
3823,-1.314497261599851,0.0
3824,-1.263872276069682,0.0
3825,1.3919865384952435,0.0
3826,-0.8242467179067112,0.0
3827,0.21952962287174213,0.0
3828,-0.09678168921654834,0.0
3829,0.035442485650277994,0.0
3830,-0.035636718808283424,0.0
3831,0.029008107889354255,0.0
3832,0.07092591853342525,0.0
3833,0.0016952108913985773,0.0
3834,-0.057614658268021465,0.0
3835,-0.017529368685901554,0.0
3836,-0.08362885154949659,0.0
3837,-0.09664706963849778,0.0
3838,-0.02160807964537207,0.0
3839,-0.02393672046439112,0.0
3840,0.40994563779034693,0.0
3841,4.176379677350873,0.0
3842,6.415895698600933,0.0
3843,-1.2845594289790352,0.0
3844,-1.4012241554381388,0.0
3845,1.3400603192529268,0.0
3846,-0.8949155100814141,0.0
3847,0.1687646656250792,0.0
3848,-0.061302057533610226,0.0
3849,-0.08354270002307712,0.0
3850,-0.06772483006996831,0.0
3851,-0.12826082326470653,0.0
3852,-0.025596789887554497,0.0
3853,-0.11875650221782413,0.0
3854,-0.08889394992164452,0.0
3855,-0.09431542748065383,0.0
3856,-0.10328780225648165,0.0
3857,-0.06363690439156983,0.0
3858,0.03266005736663442,0.0
3859,-0.004433273548098089,0.0
3860,0.39011883886759324,0.0
3861,4.108185234666861,0.0
3862,6.431020687298454,0.0
3863,-1.3436755555026718,0.0
3864,-1.3371771032699054,0.0
3865,1.3465591152010845,0.0
3866,-0.8466052711366291,0.0
3867,0.22409131393070625,0.0
3868,-0.08044399082030408,0.0
3869,-0.20685682880611422,0.0
3870,0.019835365380993918,0.0
3871,-0.03520666103941587,0.0
3872,-0.04404397365961578,0.0
3873,-0.041147580058938975,0.0
3874,-0.06271307559074504,0.0
3875,-0.1095507493238928,0.0
3876,0.01218009668630185,0.0
3877,-0.0014048600192991603,0.0
3878,-0.004363505967116921,0.0
3879,-0.019243182855924017,0.0
3880,0.32271148362362645,0.0
3881,4.17187524774029,0.0
3882,6.47518974967408,0.0
3883,-1.311142152475554,0.0
3884,-1.2762787622291518,0.0
3885,1.3927649660906385,0.0
3886,-0.7852052698419577,0.0
3887,0.16413614025691786,0.0
3888,-0.09562520282361922,0.0
3889,-0.1028525747989894,0.0
3890,-0.03545467537915786,0.0
3891,-0.023844712687429073,0.0
3892,-0.00018343562563331167,0.0
3893,-0.04592055275074469,0.0
3894,-0.021091574459105915,0.0
3895,-0.10238545585366723,0.0
3896,-0.1395803508345899,0.0
3897,-0.009084102395376832,0.0
3898,-0.0851460444065875,0.0
3899,-0.04034193786049323,0.0
3900,0.2903665434067222,0.0
3901,4.151470411017471,0.0
3902,6.45912856702382,0.0
3903,-1.292754200836127,0.0
3904,-1.39296827327416,0.0
3905,1.2454293793196436,0.0
3906,-0.8252281690073943,0.0
3907,0.23271707529407712,0.0
3908,-0.1087991782924924,0.0
3909,-0.033360750697595185,0.0
3910,-0.09332367590278468,0.0
3911,-0.13231636781438516,0.0
3912,-0.0476498698380546,0.0
3913,-0.038871950949464495,0.0
3914,-0.05818106082641371,0.0
3915,-0.029420498395694605,0.0
3916,0.018748863668317746,0.0
3917,-0.050490434329764924,0.0
3918,0.003995446256107437,0.0
3919,0.10979651628968587,0.0
3920,0.4752718825693289,0.0
3921,4.145108752496222,0.0
3922,6.592187856943388,0.0
3923,-1.3364973326803034,0.0
3924,-1.3632491537827862,0.0
3925,1.3201339551328228,0.0
3926,-0.6802767495936469,0.0
3927,0.19312097164841197,0.0
3928,-0.07787895167495326,0.0
3929,-0.06094037755606933,0.0
3930,-0.006791981517570904,0.0
3931,-0.03715091223348993,0.0
3932,0.045738680747784935,0.0
3933,-0.005564439358505562,0.0
3934,0.013205929942311647,0.0
3935,0.13761014647683883,0.0
3936,0.10860362568323863,0.0
3937,-0.05280712596363914,0.0
3938,-0.020532749581706485,0.0
3939,-0.05962275672742271,0.0
3940,0.45389199632962207,0.0
3941,4.266580881127657,0.0
3942,6.527729398758265,0.0
3943,-1.2543083614238986,0.0
3944,-1.3862086038365884,0.0
3945,1.4150860465130075,0.0
3946,-0.9354852599495418,0.0
3947,0.20981642514833654,0.0
3948,-0.012902288033189553,0.0
3949,-0.07076212674709255,0.0
3950,-0.04152666550539467,0.0
3951,-0.005254707782699333,0.0
3952,-0.08947942143460558,0.0
3953,-0.03327389204168977,0.0
3954,0.0418084994378823,0.0
3955,-0.017479022404299938,0.0
3956,0.05987101490711767,0.0
3957,-0.06996733541987926,0.0
3958,-0.02672233191957167,0.0
3959,0.07695667830337954,0.0
3960,0.4613552436335478,0.0
3961,4.328677835223654,0.0
3962,6.544228694564106,0.0
3963,-1.2832378770046338,0.0
3964,-1.1895683355563902,0.0
3965,1.4657454130339869,0.0
3966,-0.7740570771243359,0.0
3967,0.22981770185029887,0.0
3968,0.052893241052617924,0.0
3969,0.03601307981180321,0.0
3970,0.047451709658146546,0.0
3971,0.002703270889599369,0.0
3972,0.016999763349748714,0.0
3973,-0.10173616905300144,0.0
3974,0.024659554301030652,0.0
3975,-0.03154645959535477,0.0
3976,-0.022055352105435876,0.0
3977,-0.037157194848137856,0.0
3978,0.0016033926003836962,0.0
3979,-0.010052046691814816,0.0
3980,0.3536531726861912,0.0
3981,4.222363119912386,0.0
3982,6.535362474693055,0.0
3983,-1.262020775122285,0.0
3984,-1.2297361774487632,0.0
3985,1.3544620674645225,0.0
3986,-0.8391782930120608,0.0
3987,0.27085994615665676,0.0
3988,-0.047678924372413126,0.0
3989,0.0873167280202278,0.0
3990,0.04403585087102889,0.0
3991,-0.10625676635212283,0.0
3992,-0.0652691714267601,0.0
3993,0.05679111382292005,0.0
3994,0.07593593023705153,0.0
3995,-0.0759108731156468,0.0
3996,0.07957195749516954,0.0
3997,-0.0229489172162338,0.0
3998,-0.017878206352854923,0.0
3999,-0.07860524837437939,0.0
4000,0.39013057850371746,0.0
4001,4.175986944865741,0.0
4002,6.570454877508308,0.0
4003,-1.3187035733048984,0.0
4004,-1.3199473082262732,0.0
4005,1.2676706467789,0.0
4006,-0.7749228452279707,0.0
4007,0.288235513781045,0.0
4008,0.032715074515824324,0.0
4009,-0.08711943185225163,0.0
4010,-0.05850632351750581,0.0
4011,0.04242797315598431,0.0
4012,0.019876109093183054,0.0
4013,-0.06815668468351671,0.0
4014,0.05407481386047358,0.0
4015,0.050882530945951604,0.0
4016,-0.012840034889328462,0.0
4017,-0.0123504099035762,0.0
4018,0.0014694985137702447,0.0
4019,0.03408544606662838,0.0
4020,0.464226618541092,0.0
4021,4.100151809162759,0.0
4022,6.500117475436674,0.0
4023,-1.3211936783769818,0.0
4024,-1.2684272206184033,0.0
4025,1.4381198188356825,0.0
4026,-0.7567973325367776,0.0
4027,0.27182769897212355,0.0
4028,-0.006783106429574843,0.0
4029,-0.06831115177705217,0.0
4030,-0.03763097447322697,0.0
4031,0.1182118005636568,0.0
4032,0.073354714291852,0.0
4033,-0.004544204059207198,0.0
4034,0.0304151722400182,0.0
4035,0.018196447095965643,0.0
4036,-0.09596290968638674,0.0
4037,-0.003194656377023316,0.0
4038,0.000688353035803637,0.0
4039,0.04958599811522571,0.0
4040,0.5756548009533706,0.0
4041,4.309772182965599,0.0
4042,6.518524553053061,0.0
4043,-1.3411252255798614,0.0
4044,-1.2504219902787268,0.0
4045,1.304898271852192,0.0
4046,-0.7632372485240287,0.0
4047,0.24057107715957868,0.0
4048,-0.06303908946592113,0.0
4049,-0.055995609828253766,0.0
4050,0.01797835687810303,0.0
4051,-0.07858433419649939,0.0
4052,-0.07726084490657012,0.0
4053,0.1078457178288609,0.0
4054,0.06904373460281055,0.0
4055,0.052315116599617045,0.0
4056,0.021827776962792058,0.0
4057,0.04446976685651746,0.0
4058,-0.004788381179390698,0.0
4059,-0.029806403272337294,0.0
4060,0.568710415835297,0.0
4061,4.283483626646583,0.0
4062,6.5339992819784065,0.0
4063,-1.2610036223127334,0.0
4064,-1.0806465618969006,0.0
4065,1.4637769646832688,0.0
4066,-0.6817908275499898,0.0
4067,0.2971997221755681,0.0
4068,0.055709948948600055,0.0
4069,0.01103411365961425,0.0
4070,-0.014051577414280286,0.0
4071,-0.009051225895710141,0.0
4072,-0.019639868477637712,0.0
4073,0.0025816256493751827,0.0
4074,0.07635849884850032,0.0
4075,0.06726359956722659,0.0
4076,0.07645428560979514,0.0
4077,0.05369088669505513,0.0
4078,-0.08696246637654885,0.0
4079,0.025877454337250177,0.0
4080,0.39559288152503036,0.0
4081,4.31685351046835,0.0
4082,6.50846713173901,0.0
4083,-1.298100283371174,0.0
4084,-1.272756518041625,0.0
4085,1.396626657196337,0.0
4086,-0.7741714691331812,0.0
4087,0.197133537296283,0.0
4088,0.04828054807506276,0.0
4089,-0.039753303004322414,0.0
4090,0.03498870572353728,0.0
4091,0.10690171279657454,0.0
4092,0.05922461252865875,0.0
4093,0.025427700674964526,0.0
4094,0.09717399239813715,0.0
4095,-0.06524235562832041,0.0
4096,0.021712881274319584,0.0
4097,0.05141394122786956,0.0
4098,-0.04441694518464165,0.0
4099,-0.004191277498891564,0.0
4100,0.5246304260866917,0.0
4101,4.315985960680689,0.0
4102,6.561416419486149,0.0
4103,-1.215706904809356,0.0
4104,-1.2212654711385673,0.0
4105,1.389401681544672,0.0
4106,-0.6705261755893767,0.0
4107,0.2223158472882601,0.0
4108,0.022290003500480087,0.0
4109,0.09970657630400989,0.0
4110,0.051216263751981655,0.0
4111,0.016295529857454763,0.0
4112,0.05206318929089883,0.0
4113,-0.02523108129579442,0.0
4114,0.06499914265975353,0.0
4115,-0.03832905190632163,0.0
4116,0.04524043415653124,0.0
4117,0.010267901434438505,0.0
4118,0.0533266780422475,0.0
4119,-0.04141074940111783,0.0
4120,0.43134511766711986,0.0
4121,4.31188952961212,0.0
4122,6.4734769871498266,0.0
4123,-1.307021688107747,0.0
4124,-1.2033356782454898,0.0
4125,1.343099747559757,0.0
4126,-0.797906054809547,0.0
4127,0.27622971788443146,0.0
4128,0.037849335389853314,0.0
4129,0.005284898928843857,0.0
4130,0.10291420647958432,0.0
4131,0.02490714104546108,0.0
4132,0.061780909708855226,0.0
4133,0.026539604028932656,0.0
4134,0.011611637097207084,0.0
4135,0.06351839170490617,0.0
4136,0.04414583345254015,0.0
4137,0.06945398682628755,0.0
4138,-0.006867432353673819,0.0
4139,0.06650860097931961,0.0
4140,0.4544828539531875,0.0
4141,4.184024629887808,0.0
4142,6.488379611894879,0.0
4143,-1.3744681310027482,0.0
4144,-1.35949426731202,0.0
4145,1.3167442818941377,0.0
4146,-0.7772263137568013,0.0
4147,0.19359694349820983,0.0
