timestamp,value-0,is_anomaly
0,0.3308001221740346,0.0
1,3.606290531099606,0.0
2,6.904835450320454,0.0
3,-0.25002730610098417,0.0
4,-1.8908778596047418,0.0
5,1.584368912453295,0.0
6,-0.652695684185093,0.0
7,0.13411383185922918,0.0
8,-0.0676669954693585,0.0
9,-0.09129664584445796,0.0
10,0.032253667753544796,0.0
11,-0.03098907622483373,0.0
12,0.017867037510033722,0.0
13,-0.08266308502268604,0.0
14,-0.003675418828854986,0.0
15,-0.01077842201205555,0.0
16,-0.004576486622104445,0.0
17,-0.020459154615145105,0.0
18,0.02156582552523774,0.0
19,0.04403795226148256,0.0
20,0.3855504084240803,0.0
21,3.6176769095089725,0.0
22,6.843849278849742,0.0
23,-0.20117031411332853,0.0
24,-1.9224595112085578,0.0
25,1.5458983652073255,0.0
26,-0.7434899671054325,0.0
27,0.16960658171220735,0.0
28,-0.0024354159708107337,0.0
29,-0.11279405695553403,0.0
30,0.13990920611672555,0.0
31,-0.0054905034253934434,0.0
32,0.012420423308010704,0.0
33,0.029601855442597483,0.0
34,-0.05900989913569454,0.0
35,0.005210037515185499,0.0
36,0.02991753046521434,0.0
37,0.1119526964726186,0.0
38,0.05748913608055527,0.0
39,0.040391813426380915,0.0
40,0.3376587630803315,0.0
41,3.572676088622961,0.0
42,6.95534157135135,0.0
43,-0.2529392574554785,0.0
44,-1.881112459993342,0.0
45,1.5623939339322597,0.0
46,-0.7141136632936295,0.0
47,0.1592439947967024,0.0
48,0.11187044350905277,0.0
49,0.10000538927747893,0.0
50,0.05060090701527109,0.0
51,-0.09291873640856381,0.0
52,0.08882711901264134,0.0
53,0.1041650845360102,0.0
54,-0.0017059688883161901,0.0
55,0.02355848979676005,0.0
56,0.04524207099690609,0.0
57,-0.012571566120214265,0.0
58,-0.07431952853445935,0.0
59,-0.007281985428498432,0.0
60,0.2788526976694077,0.0
61,3.6200413426370996,0.0
62,6.955786548451946,0.0
63,-0.22086639593306756,0.0
64,-2.041543257403646,0.0
65,1.4525846268031442,0.0
66,-0.820799469625422,0.0
67,-0.011049013068492347,0.0
68,-0.021050328197715525,0.0
69,-0.20790446452754985,0.0
70,-0.03536831138454958,0.0
71,-0.007497129246836959,0.0
72,-0.07834397154132294,0.0
73,-0.0713952227438748,0.0
74,-0.11425663272148667,0.0
75,-0.06646949978685925,0.0
76,0.012792943611056883,0.0
77,-0.08352324411661796,0.0
78,-0.017358807031958433,0.0
79,-0.09530907692085057,0.0
80,0.2630836265758919,0.0
81,3.486325008041617,0.0
82,6.934031473690341,0.0
83,-0.2507488867400482,0.0
84,-1.9213833791498318,0.0
85,1.544151221536257,0.0
86,-0.7133301580055315,0.0
87,0.19861141760554418,0.0
88,0.04628836369817322,0.0
89,-0.008568728663498795,0.0
90,-0.03360773325025843,0.0
91,-0.03554259386342406,0.0
92,0.001870938194049744,0.0
93,0.024686044741885564,0.0
94,-0.040343533482203285,0.0
95,-0.04988919607971427,0.0
96,0.06154300385072687,0.0
97,-0.030167354398370354,0.0
98,-0.025474006969879073,0.0
99,-0.09364752731427722,0.0
100,0.18613372114493731,0.0
101,3.4330646542462233,0.0
102,6.793912653866577,0.0
103,-0.36332698584345674,0.0
104,-1.9582673541646305,0.0
105,1.53864972848723,0.0
106,-0.7552767344034796,0.0
107,0.14951360262378,0.0
108,-0.013784037893861865,0.0
109,-0.013845937442575451,0.0
110,0.09471865937407212,0.0
111,-0.06741438298677384,0.0
112,0.04711073141788438,0.0
113,-0.014603313685237939,0.0
114,0.03613228602000046,0.0
115,-0.05625394213686337,0.0
116,0.048756490546416294,0.0
117,-0.0035849868035861777,0.0
118,-0.00020632544897538664,0.0
119,0.03245834558068741,0.0
120,0.23676682743324512,0.0
121,3.5276036127706774,0.0
122,6.854629435954101,0.0
123,-0.3103481206038747,0.0
124,-1.9625449747900767,0.0
125,1.6283845284850882,0.0
126,-0.7680902194958216,0.0
127,0.1872482333181702,0.0
128,0.12598996095372011,0.0
129,0.004352763430219578,0.0
130,0.012914971622238314,0.0
131,-0.03449815202098962,0.0
132,0.03495063269218082,0.0
133,0.014710934987900876,0.0
134,-0.0006887729411509534,0.0
135,-0.05561842651142936,0.0
136,-0.017938257655192587,0.0
137,-0.007191566512612825,0.0
138,0.005848002243399975,0.0
139,-0.09904993975611076,0.0
140,0.27405763821749973,0.0
141,3.4827123650617957,0.0
142,6.861396404039998,0.0
143,-0.29936619686867383,0.0
144,-1.9502164938212987,0.0
145,1.5463886171179848,0.0
146,-0.7779039547178707,0.0
147,0.02967125310689256,0.0
148,0.0686796300787794,0.0
149,-0.05468178841478995,0.0
150,-0.022767273335308823,0.0
151,0.024999016683947238,0.0
152,0.0017142929401763249,0.0
153,-0.01892320191162552,0.0
154,0.06109066619708371,0.0
155,-0.0402054369430851,0.0
156,-0.0002414658922359897,0.0
157,-0.05480374721315622,0.0
158,0.011606301259521945,0.0
159,-0.03310311856991169,0.0
160,0.246806652409807,0.0
161,3.5324765058792886,0.0
162,6.885820813447119,0.0
163,-0.39311542575879443,0.0
164,-1.9466157105218873,0.0
165,1.5012537390420075,0.0
166,-0.7146719501979347,0.0
167,0.08267634116917882,0.0
168,0.04750461034327027,0.0
169,-0.08145631756994073,0.0
170,0.06675634110201875,0.0
171,-0.06083149586640578,0.0
172,0.012114338572303703,0.0
173,0.09041708668146883,0.0
174,0.021126508566887678,0.0
175,-0.04069699383854835,0.0
176,-0.08033337112520628,0.0
177,-0.011077139010136773,0.0
178,-0.020654171662498843,0.0
179,-0.0826044893158851,0.0
180,0.19486454854183402,0.0
181,3.525981763774855,0.0
182,6.808218088475351,0.0
183,-0.2429130096821483,0.0
184,-2.003007973400755,0.0
185,1.403656575185639,0.0
186,-0.7896064779983445,0.0
187,0.1020317005094182,0.0
188,-0.039566679277937854,0.0
189,-0.07884405181848618,0.0
190,-0.01988674410628602,0.0
191,-0.021507569540082906,0.0
192,-0.0879854830539302,0.0
193,0.017026617948161495,0.0
194,-0.037844421931392924,0.0
195,-0.11369908468703062,0.0
196,-0.005207662123315181,0.0
197,-0.022481525569211326,0.0
198,-0.07898205394867383,0.0
199,0.08267052266235722,0.0
200,0.2803552642685372,0.0
201,3.5648229162725875,0.0
202,6.760016286695448,0.0
203,-0.32326638239704925,0.0
204,-1.935596866715716,0.0
205,1.488260902414022,0.0
206,-0.7213349738335462,0.0
207,0.12098822319673806,0.0
208,0.05065438959619293,0.0
209,-0.03907602646289964,0.0
210,0.04501637979688442,0.0
211,-0.02487803248031558,0.0
212,-0.10901747383991069,0.0
213,-0.014765797867219314,0.0
214,-0.06540288271359053,0.0
215,-0.10014891672981488,0.0
216,-0.00972168588365871,0.0
217,-0.026703044114943543,0.0
218,-0.10266630774857614,0.0
219,-0.11225615689884717,0.0
220,0.1873838552800386,0.0
221,3.4973306466505747,0.0
222,6.8807102435292435,0.0
223,-0.436990277094996,0.0
224,-1.9988741071669576,0.0
225,1.4812727236292464,0.0
226,-0.7805432138194195,0.0
227,0.032266368191401384,0.0
228,0.02215724522836142,0.0
229,-0.1312926404817098,0.0
230,-0.08815836101365941,0.0
231,-0.05172986922650815,0.0
232,0.04517798458424034,0.0
233,-0.033219126005777616,0.0
234,-0.10727900893027115,0.0
235,-0.04299679365544201,0.0
236,0.07543424964750849,0.0
237,-0.06895904187937375,0.0
238,-0.08443635303953376,0.0
239,-0.013271894352925358,0.0
240,0.24896294716080342,0.0
241,3.414475873115589,0.0
242,6.8630353981264705,0.0
243,-0.32776725389074157,0.0
244,-2.0149946338233695,0.0
245,1.4405746293130315,0.0
246,-0.775947196057821,0.0
247,-0.05121259664839786,0.0
248,0.03126811850488776,0.0
249,-0.07815465759242174,0.0
250,-0.09229779160438414,0.0
251,-0.04982878931675127,0.0
252,-0.11492825370808854,0.0
253,-0.09358193266884726,0.0
254,-0.1229880152557849,0.0
255,-0.04442532153335647,0.0
256,-0.03244829389651299,0.0
257,-0.04280636117369054,0.0
258,-0.052683499382767805,0.0
259,-0.008424084276125052,0.0
260,0.3033804327125293,0.0
261,3.6092448237776518,0.0
262,6.821129141749427,0.0
263,-0.37415301601464107,0.0
264,-1.9171758090069397,0.0
265,1.507052828173465,0.0
266,-0.6732799869640098,0.0
267,0.01392283246201187,0.0
268,-0.06728725064709311,0.0
269,-0.1816293658916636,0.0
270,0.1065859801620009,0.0
271,-0.07130897917553289,0.0
272,-0.08911753792743951,0.0
273,0.10478061615911913,0.0
274,-0.011022789495936733,0.0
275,-0.01642435366289962,0.0
276,-0.13075142851140387,0.0
277,-0.0563990431590541,0.0
278,0.04576771894659894,0.0
279,0.008325514515747048,0.0
280,0.2669783099215257,0.0
281,3.576846756975745,0.0
282,6.859785043058166,0.0
283,-0.4004815325613291,0.0
284,-1.9120946344280332,0.0
285,1.5008627509949921,0.0
286,-0.7524169162157104,0.0
287,0.05660839817070319,0.0
288,-0.025003287641976304,0.0
289,-0.0702011922558772,0.0
290,-0.0112492873528478,0.0
291,-0.016360700901185944,0.0
292,0.024341627475495155,0.0
293,-0.09759362700920662,0.0
294,-0.07754031307856876,0.0
295,-0.00033159326726226596,0.0
296,0.0027617061481751,0.0
297,-0.024663961975119754,0.0
298,-0.005908457575538194,0.0
299,0.08783010543351535,0.0
300,0.28600345482003625,0.0
301,3.531103279757359,0.0
302,6.874928111966259,0.0
303,-0.35505189364884215,0.0
304,-2.0151488467607335,0.0
305,1.5109908904870981,0.0
306,-0.775800929449724,0.0
307,0.07562270363800694,0.0
308,0.02909765078406166,0.0
309,-0.06573451157331447,0.0
310,-0.12453320760758889,0.0
311,-0.01812098940500538,0.0
312,0.07084845503121201,0.0
313,-0.08469471933187442,0.0
314,-0.07277751913423236,0.0
315,-0.09012966685648278,0.0
316,-0.011412209863396736,0.0
317,-0.0008394769925192044,0.0
318,-0.036070836392879044,0.0
319,-0.16940422634496666,0.0
320,0.23357282525543546,0.0
321,3.4625949130900135,0.0
322,6.9027974620659585,0.0
323,-0.3807763115836865,0.0
324,-1.856384780863676,0.0
325,1.494818352118785,0.0
326,-0.7987272211410309,0.0
327,0.09054978484635968,0.0
328,0.04694996870387556,0.0
329,-0.02445503839876624,0.0
330,0.016654419110108412,0.0
331,-0.002735854012166748,0.0
332,0.04712468139425922,0.0
333,0.038592470661338044,0.0
334,-0.07103771918720238,0.0
335,0.07297353716864823,0.0
336,-0.02817793638166921,0.0
337,-0.1550531085846999,0.0
338,-0.0514565816854771,0.0
339,0.029188632445035813,0.0
340,0.22003717064645034,0.0
341,3.43159347069055,0.0
342,6.824583305144931,0.0
343,-0.4403235407921583,0.0
344,-1.9595857642423489,0.0
345,1.5720249374371165,0.0
346,-0.7325497136086014,0.0
347,0.09446420348991369,0.0
348,0.02732572581264257,0.0
349,0.016265512643387908,0.0
350,0.1342184388702481,0.0
351,-0.05036197765175566,0.0
352,-0.0214390513691517,0.0
353,0.06534766603460714,0.0
354,-0.032019668325773507,0.0
355,0.047269856888210025,0.0
356,0.028914370900003802,0.0
357,-0.04300090767741917,0.0
358,0.05557402634866366,0.0
359,-0.008388585886698944,0.0
360,0.25158168055663405,0.0
361,3.506655016297352,0.0
362,6.943057944930989,0.0
363,-0.27124740596110836,0.0
364,-1.9479353041640397,0.0
365,1.5874393628446402,0.0
366,-0.7054713784994581,0.0
367,0.1660939085383493,0.0
368,0.09640574165621059,0.0
369,0.005052221663644434,0.0
370,-0.020214332125599747,0.0
371,0.04210529609361608,0.0
372,-0.03298158635295037,0.0
373,0.04166537595456364,0.0
374,-0.12479806223645516,0.0
375,-0.03590183298769583,0.0
376,-0.05886862387248197,0.0
377,-0.026775812965999273,0.0
378,-0.10153289028054194,0.0
379,-0.07186671547446404,0.0
380,0.1796620143129991,0.0
381,3.6046717096472487,0.0
382,6.832845333351068,0.0
383,-0.4161221470803651,0.0
384,-2.041808066608183,0.0
385,1.3864669720513976,0.0
386,-0.8674679420497421,0.0
387,0.07423880096232092,0.0
388,-0.14416164926652136,0.0
389,-0.13418206003020408,0.0
390,-0.06268787530659256,0.0
391,-0.10726583547629612,0.0
392,-0.022879727986725024,0.0
393,-0.10334713639156706,0.0
394,-0.10887630620488108,0.0
395,-0.03386133337673543,0.0
396,-0.058947691410996525,0.0
397,-0.05471337759039796,0.0
398,0.003174350183023991,0.0
399,-0.06899520619287379,0.0
400,0.1935099697484819,0.0
401,3.5446426847881805,0.0
402,6.849080638396802,0.0
403,-0.36029352479793236,0.0
404,-1.930689460353573,0.0
405,1.6062193765617867,0.0
406,-0.7425264339794191,0.0
407,0.19173539537829004,0.0
408,0.027267440562882196,0.0
409,-0.052679098324249385,0.0
410,0.052199949768239835,0.0
411,0.04194647949072282,0.0
412,-0.05324868870912511,0.0
413,0.008617435071991838,0.0
414,0.019360288343094074,0.0
415,-0.09051246865779193,0.0
416,-0.03253535825501832,0.0
417,-0.023432380716017727,0.0
418,0.034652990392254925,0.0
419,-0.09463751333844778,0.0
420,0.21988165336078294,0.0
421,3.535674937331963,0.0
422,6.814477034819663,0.0
423,-0.3967758117904747,0.0
424,-1.9846901583612644,0.0
425,1.5121225257588662,0.0
426,-0.7542709538260751,0.0
427,0.12707695182601392,0.0
428,0.053804435713350224,0.0
429,-0.07243582982450468,0.0
430,0.19963236258818295,0.0
431,-0.021693055662921165,0.0
432,0.039199190088581255,0.0
433,-0.01062806210163409,0.0
434,0.07172272988222798,0.0
435,-0.016749938389005715,0.0
436,0.016819402126683168,0.0
437,0.08007070977855518,0.0
438,0.13447965735629838,0.0
439,0.07468372349646984,0.0
440,0.34511568168225765,0.0
441,3.617137995511205,0.0
442,6.8638484493490965,0.0
443,-0.27464191294199986,0.0
444,-1.846500749498809,0.0
445,1.521839865833766,0.0
446,-0.6134980727259353,0.0
447,0.1649146665754126,0.0
448,0.03003040187753401,0.0
449,0.010396220938510933,0.0
450,-0.009009534900360562,0.0
451,0.030493168375647764,0.0
452,0.0044716717137683135,0.0
453,0.1149632413901937,0.0
454,-0.05786874907380153,0.0
455,0.06408028194946444,0.0
456,-0.09204921693110735,0.0
457,0.024420981631146976,0.0
458,-0.03684659967179581,0.0
459,-0.050644145425719676,0.0
460,0.3624129722846535,0.0
461,3.604534272029016,0.0
462,6.8452009777083775,0.0
463,-0.42199189960154204,0.0
464,-1.9497591093809628,0.0
465,1.5410871023035728,0.0
466,-0.7316265846974466,0.0
467,0.09826910091850782,0.0
468,-0.02462300499251873,0.0
469,-0.03776350044180359,0.0
470,-0.020054750341891803,0.0
471,0.04571071423429604,0.0
472,-0.05167086692234074,0.0
473,-0.012008588056610661,0.0
474,0.04267258359865965,0.0
475,-0.09617294655042904,0.0
476,0.005879310729861434,0.0
477,0.03920813267322609,0.0
478,0.027021451459975407,0.0
479,0.016460423817062787,0.0
480,0.21679693280088608,0.0
481,3.6313674189888996,0.0
482,6.86411635805158,0.0
483,-0.4148378390719522,0.0
484,-1.940012916062348,0.0
485,1.5556514174661318,0.0
486,-0.72272413224746,0.0
487,0.09513761610739074,0.0
488,-0.010820226510051812,0.0
489,-0.11170824333627026,0.0
490,0.004451859362076371,0.0
491,-0.0934973300376335,0.0
492,-0.044449142289346585,0.0
493,0.030657494607962105,0.0
494,-0.02306569169129128,0.0
495,-0.011784133895032092,0.0
496,-0.09351132885564205,0.0
497,-0.10143072213830717,0.0
498,0.025440870236498103,0.0
499,-0.02337655902681325,0.0
500,0.29655986902882314,0.0
501,3.460783131462215,0.0
502,6.835249294255557,0.0
503,-0.3808754204221606,0.0
504,-1.8682821631998754,0.0
505,1.5164815996808159,0.0
506,-0.782509107379867,0.0
507,0.1414099891112267,0.0
508,0.01738345975457523,0.0
509,-0.027416264576112064,0.0
510,-0.02325072487412079,0.0
511,0.01988098090341981,0.0
512,-0.08846096324925254,0.0
513,-0.05454876235528029,0.0
514,-0.08535632319167533,0.0
515,-0.08001652433470197,0.0
516,-0.13699779019997158,0.0
517,-0.04540215817933201,0.0
518,-0.07346793009863223,0.0
519,-0.08237996179434261,0.0
520,0.2089160901945331,0.0
521,3.5259278114629646,0.0
522,6.828608523953353,0.0
523,-0.3317410282664835,0.0
524,-1.8522262479493516,0.0
525,1.4640437063170568,0.0
526,-0.7864374298931097,0.0
527,0.09591612612820545,0.0
528,-0.03560775604067315,0.0
529,-0.0963496829128959,0.0
530,0.0040173266242971885,0.0
531,0.11597162860721935,0.0
532,-0.01648444705733014,0.0
533,0.02040720641356419,0.0
534,-0.08054296733029104,0.0
535,-0.019414236050079588,0.0
536,-0.08053239221660907,0.0
537,-0.00700523574007271,0.0
538,-0.06149550203111143,0.0
539,-0.053669722497099934,0.0
540,0.1999972724071256,0.0
541,3.46280173449208,0.0
542,6.79776351937815,0.0
543,-0.4212344791642114,0.0
544,-1.8838393828836877,0.0
545,1.3524943368051685,0.0
546,-0.7660695413306295,0.0
547,0.16962354101984886,0.0
548,-0.046272935019293644,0.0
549,-0.09950597001922928,0.0
550,0.09851443176762524,0.0
551,-0.0964018565018021,0.0
552,0.031614987191593856,0.0
553,-0.01909572125724076,0.0
554,-0.09286753868010182,0.0
555,-0.0018474842057431239,0.0
556,-0.030130242880286845,0.0
557,0.006630689992436038,0.0
558,-0.06833255623406603,0.0
559,-0.10818950515953041,0.0
560,0.3288374214451726,0.0
561,3.583615869009515,0.0
562,6.872916766621799,0.0
563,-0.5115494187875611,0.0
564,-1.98311179666086,0.0
565,1.5018213787305232,0.0
566,-0.7582276918891568,0.0
567,0.0569647962912681,0.0
568,-0.10189425373110872,0.0
569,-0.11891591455023204,0.0
570,-0.0969204407043989,0.0
571,-0.018453529885157673,0.0
572,-0.015185758990539498,0.0
573,0.02657138552747615,0.0
574,-0.1286014516018225,0.0
575,-0.04397858237057321,0.0
576,-0.05101249243589147,0.0
577,-0.039102786346895575,0.0
578,0.016853913654158115,0.0
579,-0.06346546854257537,0.0
580,0.1880165718441273,0.0
581,3.5508225805481066,0.0
582,6.799620480791169,0.0
583,-0.41817197759389585,0.0
584,-1.942071989049183,0.0
585,1.4315418029402085,0.0
586,-0.8314204501812738,0.0
587,0.09681149221469942,0.0
588,-0.02372317751291997,0.0
589,-0.07593217586235057,0.0
590,0.0288100931554457,0.0
591,-0.010337814752991437,0.0
592,-0.04126114479775815,0.0
593,-0.007287936753117941,0.0
594,-0.028711994282694928,0.0
595,0.0010554021177672582,0.0
596,0.005184458399463826,0.0
597,-0.109483701493165,0.0
598,-0.0005170152955997903,0.0
599,-0.05423075249995829,0.0
600,0.3201895154136466,0.0
601,3.516556739311533,0.0
602,6.762621354420426,0.0
603,-0.42532847485496367,0.0
604,-1.9824736374357634,0.0
605,1.5005979652626518,0.0
606,-0.8147774587185701,0.0
607,0.1148682743441794,0.0
608,-0.0006113930376391496,0.0
609,-0.049068968394085324,0.0
610,-0.016152552684950208,0.0
611,0.01006654724539641,0.0
612,-0.12654910329156677,0.0
613,0.008990424059932587,0.0
614,-0.01569482694642609,0.0
615,0.056454370298012216,0.0
616,0.055650043009593114,0.0
617,-0.006968227880031902,0.0
618,-0.03839518075664822,0.0
619,-0.09046367482225562,0.0
620,0.26990784345122076,0.0
621,3.5583115537670515,0.0
622,6.753455100047018,0.0
623,-0.5841675824400788,0.0
624,-1.9756627213443603,0.0
625,1.4617535184361574,0.0
626,-0.8460600063433091,0.0
627,-0.000544303610751036,0.0
628,-0.06660867144775413,0.0
629,-0.15940249717635466,0.0
630,-0.11065399601848104,0.0
631,-0.09036449247267694,0.0
632,-0.09526641105563186,0.0
633,-0.15060199111559341,0.0
634,-0.13532156702449594,0.0
635,-0.1832207542800714,0.0
636,0.008879331825584869,0.0
637,-0.05397040891724493,0.0
638,0.01655512883019028,0.0
639,0.019997077901404207,0.0
640,0.36263052191047146,0.0
641,3.5842532338535897,0.0
642,6.734762574816277,0.0
643,-0.37349065417706334,0.0
644,-1.857269157478807,0.0
645,1.5289413324592807,0.0
646,-0.7185557147917314,0.0
647,0.12438916602108772,0.0
648,0.07191869093941808,0.0
649,-0.04690518879636334,0.0
650,0.05405735527875412,0.0
651,-0.10126125864082838,0.0
652,0.06498052860710014,0.0
653,0.0177106638577131,0.0
654,-0.04628496055788424,0.0
655,-0.04387462473039985,0.0
656,0.01623215601559214,0.0
657,0.0015565221235917474,0.0
658,0.0345189912680408,0.0
659,0.07313949637334202,0.0
660,0.3280460511230141,0.0
661,3.6417605035594027,0.0
662,6.853585002933379,0.0
663,-0.43856709138097427,0.0
664,-1.8823860949597297,0.0
665,1.5566787936947846,0.0
666,-0.7053602217649032,0.0
667,0.14000911959839737,0.0
668,0.029178162151739746,0.0
669,-0.0672645714563328,0.0
670,-0.006162187687622568,0.0
671,0.015238767044774056,0.0
672,-0.05461169047829763,0.0
673,0.06035963838511761,0.0
674,-0.03802469932685432,0.0
675,0.004641281945239625,0.0
676,-0.03384817649541763,0.0
677,-0.0692558121074965,0.0
678,0.04803904697982639,0.0
679,0.03965348310418346,0.0
680,0.25441446239213317,0.0
681,3.677487731395818,0.0
682,6.900844613752597,0.0
683,-0.3987686804019682,0.0
684,-1.89977218440518,0.0
685,1.5607625623593573,0.0
686,-0.7034739592347262,0.0
687,0.13495554109759644,0.0
688,0.05959881266584709,0.0
689,-0.010078838358089315,0.0
690,0.032664886738833346,0.0
691,0.015467333274153424,0.0
692,-0.05347509557947284,0.0
693,0.010095054640679866,0.0
694,-0.010633886824898785,0.0
695,-0.012820316645232017,0.0
696,0.01482342535054302,0.0
697,0.05125647805934793,0.0
698,-0.036820892346287125,0.0
699,-0.026722899492479333,0.0
700,0.43084189372559234,0.0
701,3.586862186584049,0.0
702,6.868661619813283,0.0
703,-0.34028448016063856,0.0
704,-1.8079698571257807,0.0
705,1.5402838284743123,0.0
706,-0.7839816231769092,0.0
707,0.1317567928270605,0.0
708,0.056311350830587505,0.0
709,-0.043839961709817146,0.0
710,0.0491035357901326,0.0
711,-0.03547592023018892,0.0
712,0.09711669496052502,0.0
713,-0.028107363418467948,0.0
714,-0.05408098724448943,0.0
715,0.06862751789642774,0.0
716,-0.05724775430317192,0.0
717,0.024345640062899583,0.0
718,-0.10593919837622244,0.0
719,-0.039981683276155464,0.0
720,0.2663817953535136,0.0
721,3.65661761867327,0.0
722,6.769665853105672,0.0
723,-0.5386506575749279,0.0
724,-1.8808665882055127,0.0
725,1.4657769174464077,0.0
726,-0.6371833301667145,0.0
727,0.048738885202556495,0.0
728,-0.05153371747525615,0.0
729,-0.1186243641570219,0.0
730,-0.008826084862433668,0.0
731,-0.04964251290866212,0.0
732,0.04535704780219811,0.0
733,-0.001352314813671776,0.0
734,0.06068513314345459,0.0
735,-0.051123715698559655,0.0
736,-0.06007946639927091,0.0
737,-0.023108848333038993,0.0
738,0.07078684129163375,0.0
739,-0.044215567821985415,0.0
740,0.23512297521107037,0.0
741,3.7390113401418446,0.0
742,6.87283240542002,0.0
743,-0.5194852886793162,0.0
744,-1.8570342845317032,0.0
745,1.5314815948708207,0.0
746,-0.7093006002456834,0.0
747,0.12156838399637365,0.0
748,0.01844394615949112,0.0
749,-0.08335829877105677,0.0
750,0.010186244783773918,0.0
751,0.05339411185040923,0.0
752,0.01264338300207436,0.0
753,-0.04863559106819912,0.0
754,0.036263363837209066,0.0
755,-0.02815062483962083,0.0
756,0.014348269973946108,0.0
757,-0.019263257571743662,0.0
758,-0.05956406025322232,0.0
759,-0.04460540578859639,0.0
760,0.2280101387452893,0.0
761,3.507572588269499,0.0
762,6.796658592731694,0.0
763,-0.5156639444692523,0.0
764,-1.8502027809341492,0.0
765,1.5226022538481883,0.0
766,-0.7303189974437279,0.0
767,0.1808577845882106,0.0
768,0.07226902091124657,0.0
769,-0.016480456558533692,0.0
770,0.03591513836107473,0.0
771,-0.029739739303467055,0.0
772,0.04958748189878624,0.0
773,-0.019954621572731684,0.0
774,-0.04415061336717273,0.0
775,0.09792038573212768,0.0
776,-0.04430391076708193,0.0
777,-0.03620647654966645,0.0
778,0.04790251048725995,0.0
779,-0.03317309919915075,0.0
780,0.22626796734204963,0.0
781,3.5793561847911537,0.0
782,6.778375775104109,0.0
783,-0.40608809793416334,0.0
784,-1.944493473117488,0.0
785,1.4503732338075914,0.0
786,-0.7463792657232594,0.0
787,0.1255062988256842,0.0
788,-0.008517027897588635,0.0
789,-0.05667548608141966,0.0
790,0.005289300275999227,0.0
791,-0.023216875618142903,0.0
792,0.05620525643086052,0.0
793,0.005357795109684298,0.0
794,-0.09126313430278707,0.0
795,-0.05397969034719115,0.0
796,-0.09726137850589352,0.0
797,-0.09836718293091157,0.0
798,-0.07113617509610105,0.0
799,-0.02719192304061591,0.0
800,0.3322806958094532,0.0
801,3.551144442878945,0.0
802,6.810974375740567,0.0
803,-0.5505627172415537,0.0
804,-1.8849504782389628,0.0
805,1.45148579525566,0.0
806,-0.9183645650616323,0.0
807,0.08433437935557755,0.0
808,-0.08465898846792924,0.0
809,-0.04837156682476516,0.0
810,0.06187139525400785,0.0
811,-0.1285057725228008,0.0
812,-0.07433470595617855,0.0
813,-0.0014104561589080473,0.0
814,-0.03592535254211593,0.0
815,-0.02597547435618937,0.0
816,0.0007324119944974276,0.0
817,0.062226230997447333,0.0
818,-0.060978264682402736,0.0
819,0.020650692403881624,0.0
820,0.3082298958912935,0.0
821,3.647011610346384,0.0
822,6.883282356099386,0.0
823,-0.5119720739864347,0.0
824,-1.8294585921318867,0.0
825,1.5745742172735846,0.0
826,-0.7459953899550877,0.0
827,0.15232179629262382,0.0
828,0.00584499227491914,0.0
829,0.054104343281180994,0.0
830,0.015840105156243157,0.0
831,-0.006927377808607419,0.0
832,-0.005310141464195613,0.0
833,-0.06257619320252013,0.0
834,-0.020934417317143933,0.0
835,-0.013139394488608238,0.0
836,-0.07247241096633536,0.0
837,-0.052622427908853735,0.0
838,-0.020342053565868965,0.0
839,-0.021114916720125304,0.0
840,0.2640081442551582,0.0
841,3.678021891172443,0.0
842,6.891555794168195,0.0
843,-0.5804941474931187,0.0
844,-1.9388818845434972,0.0
845,1.470116472689327,0.0
846,-0.7681001516160323,0.0
847,0.11109239192093442,0.0
848,-0.03861668894506381,0.0
849,-0.10592205459394843,0.0
850,-0.04781635114642598,0.0
851,-0.09525737220008207,0.0
852,-0.05614556986137649,0.0
853,-0.023767622400084405,0.0
854,-0.0292939885258081,0.0
855,-0.030025313486349542,0.0
856,0.07301819603856959,0.0
857,-0.016685496565619275,0.0
858,0.08744768677781052,0.0
859,0.0017942458839249331,0.0
860,0.29554447114318383,0.0
861,3.6431123631407045,0.0
862,6.95518219053544,0.0
863,-0.4463045070205007,0.0
864,-1.7718262493001073,0.0
865,1.5030175515370916,0.0
866,-0.7593579923861375,0.0
867,0.18331320802843318,0.0
868,-0.05004572349292433,0.0
869,-0.03956718694320985,0.0
870,0.0033402826779619435,0.0
871,0.07628611708865876,0.0
872,-0.03513978675279312,0.0
873,0.026569192535703928,0.0
874,-0.12503598358240378,0.0
875,0.07349093477735373,0.0
876,-0.04063519511486205,0.0
877,-0.028621083243748072,0.0
878,0.025719224207857355,0.0
879,0.02102527131824207,0.0
880,0.2797675305001538,0.0
881,3.716087958285028,0.0
882,6.8994443685828415,0.0
883,-0.5240371500681922,0.0
884,-1.788304703830208,0.0
885,1.5214993858309283,0.0
886,-0.7483987317948899,0.0
887,0.1602771870915622,0.0
888,-0.0673758160408618,0.0
889,-0.05765411117878373,0.0
890,0.02113516387271503,0.0
891,-0.07601607644181595,0.0
892,-0.017768824134236277,0.0
893,-0.0858992276348364,0.0
894,-0.10850459273736057,0.0
895,-0.06914171581995009,0.0
896,-0.10101469666789684,0.0
897,0.04960106954626497,0.0
898,-0.023881791473135253,0.0
899,-0.0267204312343417,0.0
900,0.30291861443747126,0.0
901,3.6773473142131214,0.0
902,6.863221228428174,0.0
903,-0.5790229146232567,0.0
904,-1.7679275248812385,0.0
905,1.599159405502206,0.0
906,-0.7301718243116856,0.0
907,0.15294294160315294,0.0
908,0.047040381331527915,0.0
909,0.054873554687297606,0.0
910,-0.002797227455014529,0.0
911,-0.02079833759193527,0.0
912,-0.028214672396192412,0.0
913,-0.07340729338624329,0.0
914,-0.11701640088140837,0.0
915,-0.05168743424353477,0.0
916,-0.006374705698565357,0.0
917,-0.024422322989116795,0.0
918,-0.06654302436800963,0.0
919,-0.036501140699503554,0.0
920,0.2992425273792068,0.0
921,3.656736281949424,0.0
922,6.899801136961361,0.0
923,-0.38242671984581533,0.0
924,-1.8789516073906323,0.0
925,1.5878514365295933,0.0
926,-0.782723875024151,0.0
927,0.1506667376476567,0.0
928,-0.07216296012222234,0.0
929,-0.03678836295147905,0.0
930,0.00903278755635116,0.0
931,0.04895835848422611,0.0
932,0.09819057631113152,0.0
933,0.001662761844569682,0.0
934,-0.056399267630427366,0.0
935,-0.01935309574140431,0.0
936,0.11653690856993101,0.0
937,0.025320288820322397,0.0
938,-0.004945955341632221,0.0
939,0.05575030800843232,0.0
940,0.27559323696935,0.0
941,3.7687620984588346,0.0
942,6.786143858892837,0.0
943,-0.5060098634561542,0.0
944,-1.8552138509627465,0.0
945,1.4667137530356378,0.0
946,-0.765667724049046,0.0
947,0.17654593597853246,0.0
948,-0.021869869386263986,0.0
949,-0.08827031967870753,0.0
950,-0.011858816160835908,0.0
951,0.01973058735699048,0.0
952,0.010020840268414433,0.0
953,-0.04919507028404006,0.0
954,0.05325005631242213,0.0
955,-0.10466492688077307,0.0
956,0.07715216978755668,0.0
957,0.04210160515772509,0.0
958,0.05466401532592249,0.0
959,0.06613596158312983,0.0
960,0.3277720371993987,0.0
961,3.621134773423129,0.0
962,6.881523092584263,0.0
963,-0.5731379239150534,0.0
964,-1.8586463171252354,0.0
965,1.462864090024601,0.0
966,-0.7429243433227579,0.0
967,0.15757446337168382,0.0
968,-0.05718955216581828,0.0
969,-0.08319567102102701,0.0
970,-0.01897769276077214,0.0
971,-0.1303478700331941,0.0
972,-0.09934396825147447,0.0
973,-0.002473759745348303,0.0
974,-0.06875778437419706,0.0
975,-0.1719869708182823,0.0
976,-0.1728630701038677,0.0
977,0.031025601285848903,0.0
978,0.050907770143092564,0.0
979,-0.10016719423379748,0.0
980,0.2903434812440585,0.0
981,3.608428264781637,0.0
982,6.836658450460453,0.0
983,-0.5619690470113828,0.0
984,-1.7254098274754932,0.0
985,1.6090449307085675,0.0
986,-0.6963520791185717,0.0
987,0.14804509682048225,0.0
988,0.05669871848297511,0.0
989,-0.14801871456875493,0.0
990,0.03543086248965661,0.0
991,0.003819877001926354,0.0
992,0.03223770127012023,0.0
993,-0.00660825080740984,0.0
994,-0.11228032807645483,0.0
995,-0.07492527605785007,0.0
996,-0.030072529720426937,0.0
997,-0.04044236700346294,0.0
998,0.03071550419392962,0.0
999,0.023733945139713292,0.0
1000,0.34393504333507097,0.0
1001,3.597907178505095,0.0
1002,6.858037274224434,0.0
1003,-0.48399076368495375,0.0
1004,-1.7808427752902936,0.0
1005,1.5778692908826886,0.0
1006,-0.7125290271107864,0.0
1007,0.1612689873407511,0.0
1008,0.03989293156546085,0.0
1009,-0.025230336400777178,0.0
1010,0.05485297766508827,0.0
1011,-0.02913424307407471,0.0
1012,0.053473308688965694,0.0
1013,0.004718294092599128,0.0
1014,0.030934026771417225,0.0
1015,-0.016261610233427592,0.0
1016,-0.05860353763861713,0.0
1017,-0.0650784983037986,0.0
1018,0.057951475947635916,0.0
1019,0.006368984186933012,0.0
1020,0.2637567010360102,0.0
1021,3.7040054828870836,0.0
1022,6.850007611379366,0.0
1023,-0.5642891796224444,0.0
1024,-1.7187604758635686,0.0
1025,1.554225215496387,0.0
1026,-0.7549038748555984,0.0
1027,0.11784320516473622,0.0
1028,-0.021976272521353105,0.0
1029,-0.04910839057287437,0.0
1030,-0.015759445155454223,0.0
1031,-0.0489882161912666,0.0
1032,0.009871431765998882,0.0
1033,-0.0759039911192471,0.0
1034,-0.05462337827885359,0.0
1035,-0.026019725071329818,0.0
1036,-0.011061741509362434,0.0
1037,-0.08522939079357016,0.0
1038,0.02618128994276629,0.0
1039,-0.04107952671516661,0.0
1040,0.23705861283198526,0.0
1041,3.6735980538770336,0.0
1042,6.746889105132146,0.0
1043,-0.5071208400474957,0.0
1044,-1.8461416495766738,0.0
1045,1.653832233646559,0.0
1046,-0.6349156449470372,0.0
1047,0.17274071293494897,0.0
1048,0.021312718133843528,0.0
1049,0.03899110194949052,0.0
1050,0.10725310313630405,0.0
1051,-0.01453839725063518,0.0
1052,0.017495459834679664,0.0
1053,0.06523957674137466,0.0
1054,0.023491353917704856,0.0
1055,-0.05742925651977514,0.0
1056,0.060774325055183175,0.0
1057,0.0936934622291967,0.0
1058,-0.016205066894286885,0.0
1059,0.05986745441708584,0.0
1060,0.34990213674622095,0.0
1061,3.584660597506654,0.0
1062,6.789389678289007,0.0
1063,-0.5127211418274327,0.0
1064,-1.7457158079718689,0.0
1065,1.4964719758705993,0.0
1066,-0.7099323385903801,0.0
1067,0.1863230576573427,0.0
1068,-0.005226514307509148,0.0
1069,-0.07625640396728996,0.0
1070,0.07622212497970797,0.0
1071,0.012422522893278352,0.0
1072,0.04305282934878016,0.0
1073,-0.0990356333035818,0.0
1074,-0.019538062320372224,0.0
1075,-0.020483238622352924,0.0
1076,-0.05088583831412979,0.0
1077,0.02104474595698046,0.0
1078,-0.03333473412406797,0.0
1079,0.004490039825162648,0.0
1080,0.2818376661706003,0.0
1081,3.725977732362474,0.0
1082,6.918758635623687,0.0
1083,-0.4102037802929697,0.0
1084,-1.851765495515161,0.0
1085,1.604377117548587,0.0
1086,-0.8269364410252606,0.0
1087,0.1620609525409,0.0
1088,0.09964225955242598,0.0
1089,0.05108583898455196,0.0
1090,0.016909561385534913,0.0
1091,0.09625823509280933,0.0
1092,-0.05044546209595871,0.0
1093,0.10413561363982055,0.0
1094,-0.0027808616643610964,0.0
1095,0.04748107827255069,0.0
1096,0.020660337042644607,0.0
1097,-0.03624697777315482,0.0
1098,0.16345950228171252,0.0
1099,0.02021930456117165,0.0
1100,0.34165523965260153,0.0
1101,3.8349380951645267,0.0
1102,6.828193629880854,0.0
1103,-0.5321521878347997,0.0
1104,-1.7315477384798892,0.0
1105,1.5425876078689076,0.0
1106,-0.7060382336431676,0.0
1107,0.18971365542328827,0.0
1108,-0.016506730788742027,0.0
1109,-0.084059288320223,0.0
1110,-0.07087233322014662,0.0
1111,0.003713058507683411,0.0
1112,-0.014758190747340166,0.0
1113,0.05452542537891977,0.0
1114,-0.06468925425113943,0.0
1115,0.05249599196410401,0.0
1116,0.020011506699799172,0.0
1117,-0.025490413438452833,0.0
1118,-0.02643363627676391,0.0
1119,-0.025559907492319026,0.0
1120,0.40455973766031306,0.0
1121,3.692021282440392,0.0
1122,6.782737643273251,0.0
1123,-0.5538222835611304,0.0
1124,-1.752680178639382,0.0
1125,1.5460121046353288,0.0
1126,-0.6959274973383024,0.0
1127,0.016933045373818983,0.0
1128,-0.06570779064296066,0.0
1129,-0.008672594659818206,0.0
1130,-0.024419496582732295,0.0
1131,-0.06463572135517985,0.0
1132,-0.014272608398864739,0.0
1133,0.0944675017449076,0.0
1134,-0.051678565323422423,0.0
1135,-0.04641260274996502,0.0
1136,-0.03785236307482104,0.0
1137,-0.0008016767521412688,0.0
1138,0.04290396673847596,0.0
1139,0.02041150721001543,0.0
1140,0.38627622969584074,0.0
1141,3.767751369201546,0.0
1142,6.755162082776936,0.0
1143,-0.5999405352318331,0.0
1144,-1.8670134848249038,0.0
1145,1.4589447654442702,0.0
1146,-0.7356422933446723,0.0
1147,0.07061543511203279,0.0
1148,0.0002603795126614114,0.0
1149,-0.028892439742564426,0.0
1150,0.11078419916896291,0.0
1151,-0.038397018824369175,0.0
1152,-0.03573089314385027,0.0
1153,-0.030826981200014987,0.0
1154,0.014961923475716229,0.0
1155,0.03987001935041079,0.0
1156,-0.12533725683092778,0.0
1157,-0.02741672773243516,0.0
1158,0.0518608264370766,0.0
1159,-0.12187496383711882,0.0
1160,0.37935274149822334,0.0
1161,3.6799603596748165,0.0
1162,6.7203458189668925,0.0
1163,-0.6939669854067194,0.0
1164,-1.8443386946194031,0.0
1165,1.478236336664939,0.0
1166,-0.9186580343059506,0.0
1167,0.08741677469127745,0.0
1168,-0.0007892985515103694,0.0
1169,-0.17216744782158716,0.0
1170,0.03191893705882612,0.0
1171,-0.07289309899737455,0.0
1172,-0.08411201657646725,0.0
1173,-0.12699751493617722,0.0
1174,-0.013082565710752149,0.0
1175,0.03392179403346517,0.0
1176,-0.1580535734307015,0.0
1177,0.01472399863746196,0.0
1178,-0.08655194372771682,0.0
1179,-0.07802941918164616,0.0
1180,0.3327768134412388,0.0
1181,3.646579386506904,0.0
1182,6.708343874443406,0.0
1183,-0.5748700606963856,0.0
1184,-1.8504394532675061,0.0
1185,1.4322393428582396,0.0
1186,-0.761279379200251,0.0
1187,0.08943458552878156,0.0
1188,-0.063957404939049,0.0
1189,-0.1153318823521135,0.0
1190,-0.07886316750545139,0.0
1191,-0.04943860744701322,0.0
1192,-0.046881486783798144,0.0
1193,-0.07939598612050584,0.0
1194,-0.023447052841972748,0.0
1195,-0.03910031523660164,0.0
1196,-0.12567720756690193,0.0
1197,-0.0896433073407524,0.0
1198,-0.059628763378336634,0.0
1199,-0.04802539835525596,0.0
1200,0.28002990403799005,0.0
1201,3.6530122401657623,0.0
1202,6.800090650802269,0.0
1203,-0.656275217256628,0.0
1204,-1.918024276656599,0.0
1205,1.5481389506274839,0.0
1206,-0.780423141366467,0.0
1207,0.1910247012955646,0.0
1208,0.01816965901760246,0.0
1209,-0.07233942990096866,0.0
1210,-0.012622482487449276,0.0
1211,-0.10083461117538695,0.0
1212,-0.03928906013323797,0.0
1213,-0.010803217803357655,0.0
1214,-0.07827253424402231,0.0
1215,-0.004157899422967945,0.0
1216,-0.03224007350636231,0.0
1217,-0.11257493605712002,0.0
1218,-0.015644961087941216,0.0
1219,-0.057362724927307006,0.0
1220,0.40196986724549233,0.0
1221,3.657302663642998,0.0
1222,6.8630294994794285,0.0
1223,-0.6926301472514858,0.0
1224,-1.8418525015436207,0.0
1225,1.4816892554749315,0.0
1226,-0.7247409386181243,0.0
1227,0.11644627938597091,0.0
1228,-0.009605048173351706,0.0
1229,-0.11701060672393693,0.0
1230,0.05571672804246598,0.0
1231,-0.030134564640816854,0.0
1232,-0.03142781578983769,0.0
1233,-0.07040468419148044,0.0
1234,-0.056556179511678975,0.0
1235,-0.07538216486457264,0.0
1236,0.02359901718905793,0.0
1237,-0.017513566019538955,0.0
1238,-0.09861782380270544,0.0
1239,-0.03302576765591593,0.0
1240,0.32285097194381607,0.0
1241,3.770818770508423,0.0
1242,6.797709230107973,0.0
1243,-0.6758711333302736,0.0
1244,-1.7698814029680152,0.0
1245,1.4438782370376668,0.0
1246,-0.7814903937986132,0.0
1247,0.09957965669334476,0.0
1248,-0.1069158650112436,0.0
1249,-0.05426306461062176,0.0
1250,-0.01936095334515612,0.0
1251,0.012561290932461742,0.0
1252,-0.0467459532006675,0.0
1253,0.0033817231271270135,0.0
1254,-0.0587269617736156,0.0
1255,0.0838189138531484,0.0
1256,0.05466887692732762,0.0
1257,-0.031518877773510506,0.0
1258,0.006124539740822833,0.0
1259,-0.05660066585039905,0.0
1260,0.30062203326576475,0.0
1261,3.736350000701017,0.0
1262,6.850439931637086,0.0
1263,-0.571416094713299,0.0
1264,-1.6700317256883437,0.0
1265,1.5739659504534413,0.0
1266,-0.7004205759575735,0.0
1267,0.17905599088463112,0.0
1268,0.09958482145459312,0.0
1269,-0.012232929036757934,0.0
1270,0.007177811277061311,0.0
1271,0.04016247871481714,0.0
1272,-0.004929605603913631,0.0
1273,0.0067268462520396356,0.0
1274,0.07888631147999624,0.0
1275,0.10368459756010324,0.0
1276,0.08441520347799092,0.0
1277,0.07518341081022814,0.0
1278,0.09789286332223826,0.0
1279,0.03822919086468811,0.0
1280,0.2961908118890332,0.0
1281,3.7406716302345755,0.0
1282,6.836865719053284,0.0
1283,-0.5746306877742872,0.0
1284,-1.761766525239155,0.0
1285,1.5014979766753795,0.0
1286,-0.7951711390150279,0.0
1287,0.2757127069885126,0.0
1288,0.030881160544435807,0.0
1289,0.051405757013835505,0.0
1290,0.11708456996275828,0.0
1291,0.10825718248631427,0.0
1292,-0.034069690211522195,0.0
1293,-0.015594059855942269,0.0
1294,0.08126212988798179,0.0
1295,0.055810067288759466,0.0
1296,0.06478369911633902,0.0
1297,0.05141181835643803,0.0
1298,0.1854670433730743,0.0
1299,0.10173474057885838,0.0
1300,0.3210949760272481,0.0
1301,3.713340644689981,0.0
1302,6.771393684776831,0.0
1303,-0.6289781507237237,0.0
1304,-1.723708720035906,0.0
1305,1.6230504040079619,0.0
1306,-0.7408281163898268,0.0
1307,0.20234009121536506,0.0
1308,0.09485154748430699,0.0
1309,0.012370642926735918,0.0
1310,0.021491370153649755,0.0
1311,-0.01055056804752932,0.0
1312,-0.07203271178976323,0.0
1313,0.0739226059604066,0.0
1314,-0.050087722969205974,0.0
1315,0.01648204884197643,0.0
1316,-0.013965540324412919,0.0
1317,0.014137527855100678,0.0
1318,0.06477196032523783,0.0
1319,0.06714913122772984,0.0
1320,0.30802277660935273,0.0
1321,3.8395054291279993,0.0
1322,6.853572536075003,0.0
1323,-0.5575825338333673,0.0
1324,-1.6625333783460707,0.0
1325,1.656451177675207,0.0
1326,-0.7807290114961787,0.0
1327,0.22397655675540262,0.0
1328,0.05781265596813222,0.0
1329,0.07422591780186927,0.0
1330,0.0421773880231674,0.0
1331,0.0629571151052077,0.0
1332,0.08362495847918601,0.0
1333,0.1516536426289869,0.0
1334,0.0657566426370036,0.0
1335,0.01990755605359733,0.0
1336,0.1207340166207929,0.0
1337,0.08232158226918629,0.0
1338,0.024706663664233786,0.0
1339,0.0068686078787319575,0.0
1340,0.39796989411039774,0.0
1341,3.7323033134927543,0.0
1342,6.764411776241314,0.0
1343,-0.658640282565032,0.0
1344,-1.7255848005676342,0.0
1345,1.5218932309527697,0.0
1346,-0.6249251318160556,0.0
1347,0.15999854498113436,0.0
1348,0.03796313560435126,0.0
1349,0.09382292013822274,0.0
1350,0.0712107091293824,0.0
1351,-0.0248130153224059,0.0
1352,0.14375574722672735,0.0
1353,0.08055979961493251,0.0
1354,0.045792440769228775,0.0
1355,0.13920312189819398,0.0
1356,0.009215732117214381,0.0
1357,0.06474174408915738,0.0
1358,0.0778691593805114,0.0
1359,0.018493986996419867,0.0
1360,0.38129414449638954,0.0
1361,3.812580613531733,0.0
1362,6.8376040694546365,0.0
1363,-0.6148453632553628,0.0
1364,-1.6900860474894808,0.0
1365,1.4995869540908546,0.0
1366,-0.661639220422691,0.0
1367,0.2465687441276333,0.0
1368,0.05184556184409757,0.0
1369,0.00845220446385377,0.0
1370,0.13576995379058912,0.0
1371,0.06022879655990335,0.0
1372,0.10405888164269098,0.0
1373,0.032960834889454275,0.0
1374,0.030374288416814582,0.0
1375,0.04687291131979047,0.0
1376,0.06865090589403483,0.0
1377,0.15881096962043695,0.0
1378,0.029155728360841213,0.0
1379,0.09063243512654556,0.0
1380,0.3875456952800776,0.0
1381,3.7958417258782373,0.0
1382,6.872684273356678,0.0
1383,-0.5793617887911506,0.0
1384,-1.651294534776164,0.0
1385,1.545571637131891,0.0
1386,-0.6498406464645523,0.0
1387,0.23484664056962085,0.0
1388,0.16041908869531246,0.0
1389,0.08759678708976551,0.0
1390,0.12786431843853885,0.0
1391,0.06727592056198645,0.0
1392,0.020456024691120622,0.0
1393,-0.01756103309565328,0.0
1394,0.13701042698635618,0.0
1395,0.07381560116014402,0.0
1396,0.07537428037586397,0.0
1397,0.05723260111528127,0.0
1398,0.1807185366073995,0.0
1399,0.006383241814008275,0.0
1400,0.3886210137255138,0.0
1401,3.7963534618499426,0.0
1402,6.765547429218509,0.0
1403,-0.6090468685095242,0.0
1404,-1.6958188709928939,0.0
1405,1.6237953809839407,0.0
1406,-0.7442613607882573,0.0
1407,0.24887776904407793,0.0
1408,0.1328832432758621,0.0
1409,-0.07118537656780935,0.0
1410,0.14290182868687315,0.0
1411,0.19931529985879665,0.0
1412,0.07414334697596886,0.0
1413,0.07759478588811909,0.0
1414,0.08118543333850686,0.0
1415,0.04748660961330754,0.0
1416,0.04199731829923114,0.0
1417,0.0597445584585951,0.0
1418,0.07436143397921056,0.0
1419,0.07527504539501081,0.0
1420,0.26537218770706217,0.0
1421,3.721588545440298,0.0
1422,6.899719384329773,0.0
1423,-0.5971472594086519,0.0
1424,-1.748900654581578,0.0
1425,1.5462185758741667,0.0
1426,-0.6816942212574435,0.0
1427,0.2197015737523164,0.0
1428,0.023831138792453882,0.0
1429,-0.02487023924030727,0.0
1430,0.006518654050606382,0.0
1431,0.042157996768115366,0.0
1432,-0.10488148979850269,0.0
1433,-0.033433910473756746,0.0
1434,-0.06673733549733314,0.0
1435,-0.07376798009217037,0.0
1436,0.06495084270281397,0.0
1437,-0.06840573406769043,0.0
1438,0.09727673413457921,0.0
1439,0.02676570368673381,0.0
1440,0.41902747909445637,0.0
1441,3.752501599848086,0.0
1442,6.8984776347656,0.0
1443,-0.6454158374119825,0.0
1444,-1.6891508371406787,0.0
1445,1.4819406953204906,0.0
1446,-0.7286451687762772,0.0
1447,0.22045522212905497,0.0
1448,0.014825322862026327,0.0
1449,-0.047235145896699124,0.0
1450,0.03883456284487022,0.0
1451,0.004588851744000089,0.0
1452,0.06540531542218743,0.0
1453,0.012842608052593893,0.0
1454,-0.05181451961923702,0.0
1455,0.04440842513116925,0.0
1456,0.09540139560926703,0.0
1457,-0.06990866243011427,0.0
1458,0.04045737451744363,0.0
1459,0.05048546740689505,0.0
1460,0.21068549958893523,0.0
1461,3.8105041347338995,0.0
1462,6.7539434890869074,0.0
1463,-0.5925462971328704,0.0
1464,-1.6640220783896873,0.0
1465,1.4578150301959658,0.0
1466,-0.7330500387241472,0.0
1467,0.20559216436798752,0.0
1468,0.007835743144490459,0.0
1469,-0.07294744436908612,0.0
1470,0.037284368320575335,0.0
1471,0.08327710146218886,0.0
1472,-0.029660670102590138,0.0
1473,0.07740019974129558,0.0
1474,0.1272917068280804,0.0
1475,-0.009857125178185456,0.0
1476,0.03043658043986209,0.0
1477,-0.04762429648258573,0.0
1478,-0.008681436321162622,0.0
1479,-0.021047670716501186,0.0
1480,0.4121608956348806,0.0
1481,3.7616652434918345,0.0
1482,6.811391683856971,0.0
1483,-0.6402507721553736,0.0
1484,-1.6841838616785063,0.0
1485,1.5508986685594268,0.0
1486,-0.7619284667112465,0.0
1487,0.2622436858217648,0.0
1488,0.010705218177402734,0.0
1489,-0.12600657929422646,0.0
1490,0.10004846592215941,0.0
1491,0.012089890818727408,0.0
1492,-0.03758796262206335,0.0
1493,0.04160145094864374,0.0
1494,0.020193659300932698,0.0
1495,0.12500212541864103,0.0
1496,0.026062405551336792,0.0
1497,0.022848865291054028,0.0
1498,-0.07886968870965805,0.0
1499,-0.0237266478253638,0.0
1500,0.31097174616068807,0.0
1501,3.7745966402577253,0.0
1502,6.720519917343658,0.0
1503,-0.7156341346696053,0.0
1504,-1.6652269115189862,0.0
1505,1.5276813994737442,0.0
1506,-0.8322011564667261,0.0
1507,0.16226092635775835,0.0
1508,-0.030030505070813965,0.0
1509,-0.033080450815025184,0.0
1510,0.039369732871428136,0.0
1511,0.02657876027919943,0.0
1512,0.08536317002298523,0.0
1513,0.08198556356792676,0.0
1514,0.05937793594286371,0.0
1515,0.018985534752739567,0.0
1516,0.03128972969977439,0.0
1517,0.028722405364575567,0.0
1518,0.08436048826863572,0.0
1519,-0.04031735007323653,0.0
1520,0.36371386411494844,0.0
1521,3.8825977107564666,0.0
1522,6.886549281166944,0.0
1523,-0.654721521328161,0.0
1524,-1.6818697360428927,0.0
1525,1.4857535751060396,0.0
1526,-0.8271152988514308,0.0
1527,0.2161896582095037,0.0
1528,0.050616992121576165,0.0
1529,0.02353167911633604,0.0
1530,0.04650878974860314,0.0
1531,-0.07702410364656584,0.0
1532,0.07147144623912481,0.0
1533,0.04694815783866472,0.0
1534,-0.03572216514368415,0.0
1535,0.01743920593632902,0.0
1536,0.02317060536631332,0.0
1537,0.03432377822656803,0.0
1538,0.0017363592659209552,0.0
1539,-0.05071377387088787,0.0
1540,0.2914831997581784,0.0
1541,3.8414334884858707,0.0
1542,6.701661165536196,0.0
1543,-0.7039192887570255,0.0
1544,-1.6838089862918744,0.0
1545,1.4606149600674099,0.0
1546,-0.7130727362673134,0.0
1547,0.22385125317928953,0.0
1548,-0.058821464484519186,0.0
1549,-0.11153611206129574,0.0
1550,0.02039684103647954,0.0
1551,-0.007754190932726383,0.0
1552,-0.011918429167356664,0.0
1553,0.07899709314238999,0.0
1554,0.009140085420900126,0.0
1555,0.0087313426384864,0.0
1556,0.0035967433671593094,0.0
1557,-0.06209987064150836,0.0
1558,0.07697967876048105,0.0
1559,0.07983562621854462,0.0
1560,0.43794524387202083,0.0
1561,3.825366589587215,0.0
1562,6.685269616935028,0.0
1563,-0.6583580950241963,0.0
1564,-1.636729030483311,0.0
1565,1.502210549374528,0.0
1566,-0.7495161243626726,0.0
1567,0.1482615871082788,0.0
1568,-0.020846210503454154,0.0
1569,-0.09455952034271389,0.0
1570,-0.05791926654911014,0.0
1571,-0.07591488129353599,0.0
1572,0.00788202427705282,0.0
1573,-0.07499208955791406,0.0
1574,-0.07085758500743194,0.0
1575,-0.03491169634270008,0.0
1576,-0.010430901707258505,0.0
1577,-0.08038682865590205,0.0
1578,-0.03676238812697201,0.0
1579,0.07305086174258617,0.0
1580,0.28232174784459557,0.0
1581,3.79046868992168,0.0
1582,6.725897048616355,0.0
1583,-0.7434501572625102,0.0
1584,-1.6947901526446068,0.0
1585,1.581335640198034,0.0
1586,-0.7053956135104216,0.0
1587,0.16510213453524364,0.0
1588,0.14298533291710286,0.0
1589,-0.028301662561864904,0.0
1590,0.06873995862090375,0.0
1591,-0.07337010342052389,0.0
1592,0.018112773934906092,0.0
1593,0.04724345410604474,0.0
1594,0.047156333491407916,0.0
1595,0.06177112219274236,0.0
1596,-0.03339763429093304,0.0
1597,0.0760417724661232,0.0
1598,0.03284672065408524,0.0
1599,-0.026588850062499683,0.0
1600,0.35646866097035595,0.0
1601,3.7944207210534873,0.0
1602,6.818406270832098,0.0
1603,-0.7016213961395833,0.0
1604,-1.6427014104692161,0.0
1605,1.5034804617609825,0.0
1606,-0.7002670418567026,0.0
1607,0.09794963108565932,0.0
1608,0.11003172999262409,0.0
1609,-0.08390520425016963,0.0
1610,-0.004777098719563673,0.0
1611,0.03132737494553117,0.0
1612,0.07950993672674248,0.0
1613,-0.026143752816722102,0.0
1614,0.047798060952551284,0.0
1615,0.02328703041107482,0.0
1616,-0.0199508805626887,0.0
1617,0.05586960395424831,0.0
1618,0.015598450111092258,0.0
1619,-0.007608172408863276,0.0
1620,0.3891311908305856,0.0
1621,3.7918040118566854,0.0
1622,6.859310085266086,0.0
1623,-0.6859358209219739,0.0
1624,-1.6817258265608264,0.0
1625,1.5363313689865519,0.0
1626,-0.8025063055478937,0.0
1627,0.12001431147839042,0.0
1628,-0.001489938775123839,0.0
1629,-0.04672246965964969,0.0
1630,0.0013984252497377687,0.0
1631,-0.01442585333744278,0.0
1632,-0.05750977341591278,0.0
1633,-0.08616438404982331,0.0
1634,0.0213587651672828,0.0
1635,-0.004459922593701704,0.0
1636,0.00041359382923862945,0.0
1637,-0.040903781580514116,0.0
1638,-0.008240995675280008,0.0
1639,-0.034270657847506235,0.0
1640,0.2782140007115036,0.0
1641,3.800802731256341,0.0
1642,6.7232178811017045,0.0
1643,-0.6727994889626681,0.0
1644,-1.7459851083823426,0.0
1645,1.4903748171760824,0.0
1646,-0.7901047076457615,0.0
1647,0.19531485017702055,0.0
1648,0.05300101857711682,0.0
1649,0.004082299243913554,0.0
1650,0.06293388824077698,0.0
1651,-0.03470598643363328,0.0
1652,-0.06297961598507298,0.0
1653,0.009408470885123414,0.0
1654,-0.061597187637110515,0.0
1655,0.02331273031584192,0.0
1656,-0.020710197827147482,0.0
1657,0.05030008948116523,0.0
1658,0.003459957489663344,0.0
1659,0.005579609568597708,0.0
1660,0.3726953394413027,0.0
1661,3.707398622353127,0.0
1662,6.801261572159734,0.0
1663,-0.62808630968419,0.0
1664,-1.6618188292318483,0.0
1665,1.5103406607512542,0.0
1666,-0.7033484205991678,0.0
1667,0.21581002494370766,0.0
1668,0.03873081368609419,0.0
1669,0.07450950003541129,0.0
1670,0.02078308266150683,0.0
1671,0.04198778155491304,0.0
1672,-0.033808786150626075,0.0
1673,-0.007839417928742237,0.0
1674,0.033180572924065274,0.0
1675,-0.08138036184133127,0.0
1676,0.004634547224769754,0.0
1677,0.08432803174426715,0.0
1678,-0.05431259290878099,0.0
1679,-0.04158368135754485,0.0
1680,0.2964295842311389,0.0
1681,3.7325758937339018,0.0
1682,6.700897840412885,0.0
1683,-0.7436303810617331,0.0
1684,-1.7309262997561223,0.0
1685,1.3605791231950732,0.0
1686,-0.7466629272463932,0.0
1687,0.08744699238558286,0.0
1688,-0.0897479630215062,0.0
1689,-0.03617195560593378,0.0
1690,0.04739580467545839,0.0
1691,-0.007673083306601038,0.0
1692,-0.05778407700970187,0.0
1693,0.003431566135263034,0.0
1694,0.015238819534594791,0.0
1695,0.03203582824551793,0.0
1696,-0.026522738168280657,0.0
1697,-0.1269161630768218,0.0
1698,0.0717187143257987,0.0
1699,0.05505803826271595,0.0
1700,0.353909912021928,0.0
1701,3.7660234794669334,0.0
1702,6.655963700566448,0.0
1703,-0.72369044517789,0.0
1704,-1.597548632006399,0.0
1705,1.4321812285032993,0.0
1706,-0.737149604214218,0.0
1707,0.14027592588816337,0.0
1708,-0.0568432733547187,0.0
1709,-0.19896897065105512,0.0
1710,-0.06708588356273226,0.0
1711,-0.05408298337410556,0.0
1712,-0.061715155668684796,0.0
1713,-0.04409838533355177,0.0
1714,-0.090283098205569,0.0
1715,-0.04726545920982907,0.0
1716,-0.05650704578934618,0.0
1717,0.027099241271886676,0.0
1718,-0.1026934774515735,0.0
1719,-0.012669948488487903,0.0
1720,0.33332779376280985,0.0
1721,3.7173660033730447,0.0
1722,6.618342469034771,0.0
1723,-0.7129943122346938,0.0
1724,-1.7645551221274576,0.0
1725,1.4569762205966388,0.0
1726,-0.8220819634756061,0.0
1727,0.12211559741931544,0.0
1728,-0.08322224246997201,0.0
1729,-0.18814329788827305,0.0
1730,-0.002820420871115975,0.0
1731,-0.08726044682135592,0.0
1732,-0.024673492175261692,0.0
1733,-0.05673930027358358,0.0
1734,-0.0021826085540527437,0.0
1735,-0.02363283096151854,0.0
1736,0.022183649997883054,0.0
1737,0.02319802620533326,0.0
1738,-0.0001272184702961407,0.0
1739,0.005441413431609719,0.0
1740,0.2858767054307552,0.0
1741,3.8476342451547665,0.0
1742,6.7207393994918165,0.0
1743,-0.7120851981958458,0.0
1744,-1.590767776119325,0.0
1745,1.4214577273854334,0.0
1746,-0.7268420516593597,0.0
1747,0.12543246109159636,0.0
1748,-0.0301016043433055,0.0
1749,0.05320362622996225,0.0
1750,-0.09630812044227233,0.0
1751,0.005689690362775322,0.0
1752,-0.028730428299540187,0.0
1753,0.07025823565845098,0.0
1754,-0.05535215185900481,0.0
1755,0.020338476781628766,0.0
1756,-0.11895632588993513,0.0
1757,-0.00023223397602593204,0.0
1758,-0.056122870758864095,0.0
1759,-0.06224206832142404,0.0
1760,0.2649023652281757,0.0
1761,3.746545918357327,0.0
1762,6.59264413838816,0.0
1763,-0.8200292273768223,0.0
1764,-1.6971958892968668,0.0
1765,1.3440282071949619,0.0
1766,-0.9348689609688727,0.0
1767,0.09136309401480379,0.0
1768,-0.10863078385265844,0.0
1769,-0.15840129246269516,0.0
1770,-0.07612091191687619,0.0
1771,-0.18695011835078706,0.0
1772,-0.06250836834459124,0.0
1773,-0.08491793741915955,0.0
1774,-0.09614390558588036,0.0
1775,-0.05582741390733918,0.0
1776,-0.07698241000387346,0.0
1777,-0.04933693835030857,0.0
1778,-0.10881089371371538,0.0
1779,-0.015504079026491847,0.0
1780,0.2928745016049769,0.0
1781,3.777911029082679,0.0
1782,6.687303476618566,0.0
1783,-0.9186629693963759,0.0
1784,-1.7060468986025523,0.0
1785,1.3469462692546827,0.0
1786,-0.8882186308747032,0.0
1787,0.1309424505707139,0.0
1788,-0.10017870327980583,0.0
1789,-0.19076942446873513,0.0
1790,0.012807335712896273,0.0
1791,-0.08483326745909182,0.0
1792,-0.1459942243365691,0.0
1793,-0.09167248174119685,0.0
1794,-0.10924328640105599,0.0
1795,-0.09139883509769832,0.0
1796,-0.17450680104267913,0.0
1797,-0.05101789813047081,0.0
1798,-0.09626045582620571,0.0
1799,-0.08047086125229216,0.0
1800,0.26734190761110666,0.0
1801,3.6897549131017056,0.0
1802,6.721519209808878,0.0
1803,-0.8291602998885295,0.0
1804,-1.6850542677533906,0.0
1805,1.3007689535804312,0.0
1806,-0.810393356232382,0.0
1807,0.18601179824595715,0.0
1808,-0.1092848792701073,0.0
1809,-0.1450056468601163,0.0
1810,-0.113187951682769,0.0
1811,-0.11211513608704447,0.0
1812,-0.14262179522563417,0.0
1813,-0.0801371119289293,0.0
1814,-0.09023953838712964,0.0
1815,-0.14236175196067963,0.0
1816,-0.06689578964385487,0.0
1817,0.030143325770218152,0.0
1818,-0.04199719083201413,0.0
1819,-0.036551113524646864,0.0
1820,0.2876786630358088,0.0
1821,3.754275326893316,0.0
1822,6.646153871736113,0.0
1823,-0.7941194281485702,0.0
1824,-1.7737077588795436,0.0
1825,1.4650708127391492,0.0
1826,-0.8565185368143763,0.0
1827,0.10487656536321466,0.0
1828,-0.09174035387400914,0.0
1829,-0.12923437604828375,0.0
1830,-0.0012923302962895983,0.0
1831,-0.06150132505824059,0.0
1832,0.0002703552427674172,0.0
1833,-0.013997483297679289,0.0
1834,-0.056374054618922545,0.0
1835,-0.1262212651016356,0.0
1836,-0.07277379234859825,0.0
1837,-0.025600725276179473,0.0
1838,-0.103121398924852,0.0
1839,-0.08596255055986285,0.0
1840,0.24164034611200577,0.0
1841,3.7395349724077436,0.0
1842,6.6374278844731585,0.0
1843,-0.8719238164809533,0.0
1844,-1.7125713483105613,0.0
1845,1.4932643286723086,0.0
1846,-0.7850146814990953,0.0
1847,0.08892325047644017,0.0
1848,-0.04686227877231329,0.0
1849,-0.036825320283968684,0.0
1850,0.03374019518621024,0.0
1851,0.016150042731488713,0.0
1852,-0.03809066678918992,0.0
1853,0.010982486836265935,0.0
1854,-0.03518641925514494,0.0
1855,0.007760043576721755,0.0
1856,0.005504198139542196,0.0
1857,0.002070254185364514,0.0
1858,0.023182855094310784,0.0
1859,-0.042170277623248376,0.0
1860,0.29382762463369116,0.0
1861,3.7442101413645794,0.0
1862,6.673729773604693,0.0
1863,-0.7406922321883488,0.0
1864,-1.7151714415815031,0.0
1865,1.4879247067249974,0.0
1866,-0.7149990501334068,0.0
1867,0.16587754098431187,0.0
1868,-0.019326872839053755,0.0
1869,-0.042280306836280326,0.0
1870,0.16018905142703718,0.0
1871,-0.01736777247280269,0.0
1872,-0.113518225532548,0.0
1873,-0.024856904782853056,0.0
1874,-0.05428945737638945,0.0
1875,-0.08797834039484767,0.0
1876,-0.062475155694412865,0.0
1877,-0.007920456238627853,0.0
1878,0.018899716251622012,0.0
1879,0.001041402443332104,0.0
1880,0.2690138775958347,0.0
1881,3.8469150745227303,0.0
1882,6.720266199468147,0.0
1883,-0.8138668036765317,0.0
1884,-1.7042753000585282,0.0
1885,1.3868486117342116,0.0
1886,-0.7951637400685901,0.0
1887,0.20612235843381188,0.0
1888,0.033460657708076894,0.0
1889,-0.06220373108402115,0.0
1890,0.08694045927381214,0.0
1891,-0.002838551663861405,0.0
1892,0.05351074258748638,0.0
1893,0.055031038722222314,0.0
1894,-0.031600801854205204,0.0
1895,0.08550837260976382,0.0
1896,-0.020289725058564387,0.0
1897,0.047063652549514584,0.0
1898,0.12766461774956406,0.0
1899,-0.013563966443239858,0.0
1900,0.38970642676677275,0.0
1901,3.8757460898524485,0.0
1902,6.7232542911653095,0.0
1903,-0.6498582765813128,0.0
1904,-1.6559327043244518,0.0
1905,1.5838867223351372,0.0
1906,-0.7083290235475372,0.0
1907,0.2392082274999177,0.0
1908,-0.02567484174923905,0.0
1909,-0.05775853434239916,0.0
1910,0.12945389144646618,0.0
1911,-0.015231338102696099,0.0
1912,0.003163934115956786,0.0
1913,0.049770848673786644,0.0
1914,-0.022027068637405285,0.0
1915,-0.009190538638596549,0.0
1916,0.06831343808556993,0.0
1917,-0.07044967874526091,0.0
1918,0.03607670951388729,0.0
1919,-0.11000751505122622,0.0
1920,0.30019418605069675,0.0
1921,3.7789763926762614,0.0
1922,6.606378906762172,0.0
1923,-0.8331934418799303,0.0
1924,-1.6202658810410093,0.0
1925,1.4282755889114827,0.0
1926,-0.8193952394800821,0.0
1927,0.18130471190357175,0.0
1928,0.0766443167776794,0.0
1929,-0.07167932579915262,0.0
1930,0.1552258575755332,0.0
1931,0.04255031569540095,0.0
1932,0.045172620589088136,0.0
1933,-0.044859690618805646,0.0
1934,0.020534642294423495,0.0
1935,0.058751103555185404,0.0
1936,0.04260332400722975,0.0
1937,-0.024987100122692615,0.0
1938,-0.005691777631338367,0.0
1939,-0.07493055785422462,0.0
1940,0.26691827880898916,0.0
1941,3.8265352675803923,0.0
1942,6.710870338981912,0.0
1943,-0.7819896001164653,0.0
1944,-1.6520750293308195,0.0
1945,1.5135029313912791,0.0
1946,-0.7641628149580049,0.0
1947,0.18610591661414,0.0
1948,0.0013220950991116344,0.0
1949,-0.0591550353022837,0.0
1950,0.044382828679864275,0.0
1951,-0.0032664664735984547,0.0
1952,0.07504546590165703,0.0
1953,0.018343620485533417,0.0
1954,0.020146930375793595,0.0
1955,0.08783963704091415,0.0
1956,0.019525688168217814,0.0
1957,0.05114460798122081,0.0
1958,0.07890296750845296,0.0
1959,0.030131069832272643,0.0
1960,0.35342424641015124,0.0
1961,3.9219034399973873,0.0
1962,6.8203146007866255,0.0
1963,-0.7061718418290978,0.0
1964,-1.6093014482514572,0.0
1965,1.4960267048309264,0.0
1966,-0.6727048657758309,0.0
1967,0.24832020651484227,0.0
1968,0.04034873061195059,0.0
1969,-0.007926540166255137,0.0
1970,0.09284397799215857,0.0
1971,0.046496024061511966,0.0
1972,0.13318463408773798,0.0
1973,0.031139157041895557,0.0
1974,0.029456247785851885,0.0
1975,-0.03601548800516595,0.0
1976,-0.09229372934983109,0.0
1977,-0.04513187051483898,0.0
1978,-0.019978066447101542,0.0
1979,-0.06987749306093502,0.0
1980,0.43711356789614664,0.0
1981,3.831512416708655,0.0
1982,6.831971252389499,0.0
1983,-0.8596454035069502,0.0
1984,-1.6563097636710575,0.0
1985,1.4864499299834653,0.0
1986,-0.6949507881927659,0.0
1987,0.2913760801009072,0.0
1988,0.07999377557173652,0.0
1989,0.014968711438093803,0.0
1990,0.10094823135670906,0.0
1991,0.047709850389543035,0.0
1992,0.043835956894765216,0.0
1993,0.08362011666959122,0.0
1994,0.05361642446230365,0.0
1995,0.14233339973273557,0.0
1996,0.05803644717928096,0.0
1997,0.0330975366004161,0.0
1998,0.0011637837713521504,0.0
1999,0.023041785710519118,0.0
2000,0.4131444318591313,0.0
2001,3.9024429169357697,0.0
2002,6.719429352955386,0.0
2003,-0.8064559850638893,0.0
2004,-1.600499086590743,0.0
2005,1.539032194011172,0.0
2006,-0.6836624393207541,0.0
2007,0.15905346750217125,0.0
2008,0.036074309673874004,0.0
2009,-0.04809204070383699,0.0
2010,0.04212958341006707,0.0
2011,0.05304842330791543,0.0
2012,-0.03652670315533514,0.0
2013,0.053865487389911676,0.0
2014,-0.0026474697274187185,0.0
2015,0.02111438099098576,0.0
2016,0.05026321150271559,0.0
2017,0.05941039618929128,0.0
2018,0.01407638978141235,0.0
2019,-0.029570208192795933,0.0
2020,0.389837864678106,0.0
2021,3.920526324553954,0.0
2022,6.7216595013439635,0.0
2023,-0.8978744931100446,0.0
2024,-1.6331496685310676,0.0
2025,1.4252730208417028,0.0
2026,-0.8408066529420717,0.0
2027,0.1366543100395778,0.0
2028,-0.04549974231443055,0.0
2029,-0.1590535492584994,0.0
2030,-0.016904979985209356,0.0
2031,-0.06405804411892453,0.0
2032,-0.0541292111616877,0.0
2033,-0.0692947674138254,0.0
2034,-0.050222358321124566,0.0
2035,0.008298587104828677,0.0
2036,-0.03895120340774266,0.0
2037,-0.016494922298239796,0.0
2038,-0.013767232360837585,0.0
2039,0.020139266466962187,0.0
2040,0.33137875597831956,0.0
2041,3.8931935807442657,0.0
2042,6.798393790178163,0.0
2043,-0.8283199937948867,0.0
2044,-1.5501399527344566,0.0
2045,1.5666183964159737,0.0
2046,-0.6580200373477038,0.0
2047,0.12871830763010478,0.0
2048,-0.029622960372478364,0.0
2049,-0.06852794258008318,0.0
2050,-0.03877487632765345,0.0
2051,-0.05139706298022626,0.0
2052,-0.12059226678492431,0.0
2053,-0.04669963882988888,0.0
2054,0.024340674351132126,0.0
2055,-0.003691725967140961,0.0
2056,-0.013702663475161013,0.0
2057,-0.0828678426542858,0.0
2058,0.021675839630108513,0.0
2059,0.08708533679955333,0.0
2060,0.3302344303870255,0.0
2061,3.70336929935274,0.0
2062,6.71076467411861,0.0
2063,-0.8711463959932,0.0
2064,-1.6486260454069628,0.0
2065,1.4268816835683293,0.0
2066,-0.7838677475044814,0.0
2067,0.190389323365915,0.0
2068,0.05798706549793875,0.0
2069,-0.015067255243474027,0.0
2070,-0.0785105048131893,0.0
2071,0.02032988245520767,0.0
2072,-0.047208000019278704,0.0
2073,0.10482895800645173,0.0
2074,-0.017955626076704517,0.0
2075,-0.019232537248536585,0.0
2076,0.03961182575587253,0.0
2077,-0.0370926005744016,0.0
2078,-0.03035118204907978,0.0
2079,-0.014209217608622704,0.0
2080,0.4147119108420032,0.0
2081,3.9103582602176257,0.0
2082,6.812013237846473,0.0
2083,-0.8602309046039379,0.0
2084,-1.6383520692655,0.0
2085,1.5363748100948724,0.0
2086,-0.8046610938142671,0.0
2087,0.28513505661155963,0.0
2088,0.052845907130458045,0.0
2089,-0.012512191062699414,0.0
2090,-0.013535644264391964,0.0
2091,0.023457196169662943,0.0
2092,-0.05323978528717683,0.0
2093,-0.04141086164032199,0.0
2094,-0.06524025847321765,0.0
2095,0.0033825893522955106,0.0
2096,-0.06426090784862097,0.0
2097,-0.12403052692785778,0.0
2098,-0.05705085325351174,0.0
2099,-0.09477907079314063,0.0
2100,0.28298951067930417,0.0
2101,3.810740635845327,0.0
2102,6.665877050483866,0.0
2103,-0.9265593679398353,0.0
2104,-1.7364649042407583,0.0
2105,1.4604256542195944,0.0
2106,-0.8224558042486552,0.0
2107,0.15779778401652905,0.0
2108,-0.09066082158723204,0.0
2109,-0.07488250021533331,0.0
2110,-0.020004106319987607,0.0
2111,-0.06675433876523472,0.0
2112,-0.004325914239295028,0.0
2113,0.027361492084040463,0.0
2114,-0.10590129582690683,0.0
2115,-0.059613193057296024,0.0
2116,0.10716382184817307,0.0
2117,0.018539071306631474,0.0
2118,-0.0012179246017761033,0.0
2119,-0.01600108071821317,0.0
2120,0.33132548278600477,0.0
2121,3.953643097073893,0.0
2122,6.6317503387062615,0.0
2123,-0.836481608396081,0.0
2124,-1.6330381237551908,0.0
2125,1.441298441372738,0.0
2126,-0.7865092913166177,0.0
2127,0.10858301840295534,0.0
2128,-0.04832386137166643,0.0
2129,-0.008401957262922963,0.0
2130,-0.07822564948199079,0.0
2131,0.0034214775361698924,0.0
2132,-0.06803216091306649,0.0
2133,-0.06498155071950105,0.0
2134,-0.11369255038625303,0.0
2135,-0.03052768549168867,0.0
2136,-0.14637875137586515,0.0
2137,-0.07222286243213398,0.0
2138,-0.0824283685551892,0.0
2139,-0.02584605503988347,0.0
2140,0.2769993008227555,0.0
2141,3.819547550211959,0.0
2142,6.653803523238054,0.0
2143,-0.8734928044498647,0.0
2144,-1.6151821207785568,0.0
2145,1.3548930088465223,0.0
2146,-0.7371971126293531,0.0
2147,0.2613307336570882,0.0
2148,0.001875823595538513,0.0
2149,-0.14638302446127485,0.0
2150,-0.04686766091044703,0.0
2151,-0.07415774468787036,0.0
2152,-0.019000335283476694,0.0
2153,-0.042314461634083166,0.0
2154,-0.011914283402729847,0.0
2155,-0.07041606310203186,0.0
2156,-0.09741548126444435,0.0
2157,-0.0022403149480395845,0.0
2158,-0.11584768851700192,0.0
2159,-0.09183685470930686,0.0
2160,0.265287243974158,0.0
2161,3.7637185508375337,0.0
2162,6.658856651596283,0.0
2163,-0.9123637053441868,0.0
2164,-1.7488951813262028,0.0
2165,1.361375081239069,0.0
2166,-0.876085441118324,0.0
2167,0.09929321095926338,0.0
2168,-0.09910444100721544,0.0
2169,-0.09245094256033419,0.0
2170,-0.034390992964632466,0.0
2171,0.0030036422037263352,0.0
2172,0.0019727432771963344,0.0
2173,-0.13800346638013225,0.0
2174,0.002689377581809378,0.0
2175,-0.017461083487232548,0.0
2176,-0.07295423316921452,0.0
2177,-0.09811002086270793,0.0
2178,-0.12431911752862221,0.0
2179,-0.04790920014472477,0.0
2180,0.33990237058359474,0.0
2181,3.816131048083396,0.0
2182,6.695658209126,0.0
2183,-0.8328341320929855,0.0
2184,-1.6365461486436443,0.0
2185,1.3637951769106018,0.0
2186,-0.8259144034581426,0.0
2187,0.13578116398169657,0.0
2188,-0.010848875720489119,0.0
2189,-0.06994102578352553,0.0
2190,-0.1272128376258189,0.0
2191,0.02986367404378421,0.0
2192,0.06189511271458535,0.0
2193,0.022351061881282747,0.0
2194,-0.018896078723011342,0.0
2195,-0.06435758426235479,0.0
2196,-0.05211153570186072,0.0
2197,-0.06087349524300257,0.0
2198,0.012978660797351164,0.0
2199,0.026228615014111528,0.0
2200,0.32109759723621145,0.0
2201,3.965675051643271,0.0
2202,6.706079626769371,0.0
2203,-0.8176014605403473,0.0
2204,-1.5608363076264595,0.0
2205,1.5029609911316282,0.0
2206,-0.8041060392020247,0.0
2207,0.16409149482155552,0.0
2208,0.045059335967078736,0.0
2209,-0.01537829130969601,0.0
2210,0.007059859249531172,0.0
2211,-0.08500094570976438,0.0
2212,0.03314705230082775,0.0
2213,-0.07357307972076697,0.0
2214,-0.026989437757605494,0.0
2215,-0.07824843044600877,0.0
2216,-0.016888139618142138,0.0
2217,-0.01271424317657023,0.0
2218,-0.046094106769732156,0.0
2219,-0.06171007041440035,0.0
2220,0.27210386214811816,0.0
2221,3.8782609678284623,0.0
2222,6.5566435672848264,0.0
2223,-0.973586859983754,0.0
2224,-1.729352345833715,0.0
2225,1.304217001045279,0.0
2226,-0.7995364961880315,0.0
2227,0.17654446970713497,0.0
2228,-0.1022296688905352,0.0
2229,-0.05793531422597467,0.0
2230,-0.10495361205535454,0.0
2231,-0.0550562325514448,0.0
2232,-0.00013870235292822233,0.0
2233,-0.005436312616346568,0.0
2234,-0.08544604826844476,0.0
2235,-0.004317927070400476,0.0
2236,-0.019657948649404695,0.0
2237,-0.03477392792962035,0.0
2238,0.0064784806660471645,0.0
2239,-0.013631570264817896,0.0
2240,0.36246912733903336,0.0
2241,3.944568916334745,0.0
2242,6.6933166058490805,0.0
2243,-1.0057475008900012,0.0
2244,-1.5740606229309284,0.0
2245,1.481459765499004,0.0
2246,-0.7042681707465188,0.0
2247,0.22782149165508006,0.0
2248,-0.03261419454299324,0.0
2249,-0.01381670860287866,0.0
2250,-0.03096255187262301,0.0
2251,-0.10676773328396102,0.0
2252,-0.03915886785740858,0.0
2253,0.04871329366101427,0.0
2254,-0.03450148454708339,0.0
2255,0.033334436313900956,0.0
2256,-0.10579796461475902,0.0
2257,0.001304068657354114,0.0
2258,-0.03283384075044188,0.0
2259,-0.006228206433916354,0.0
2260,0.32714491047718774,0.0
2261,3.805455025643922,0.0
2262,6.688408175271463,0.0
2263,-0.9988509344116635,0.0
2264,-1.5913101806885672,0.0
2265,1.4358947357280012,0.0
2266,-0.8163344075656926,0.0
2267,0.1363405253802846,0.0
2268,0.00410405841168749,0.0
2269,-0.027875172056317107,0.0
2270,-0.029640331603277177,0.0
2271,-0.10600949527279832,0.0
2272,-0.03842689746025966,0.0
2273,-0.09126919482905738,0.0
2274,-0.006304656155409868,0.0
2275,-0.10300552911177685,0.0
2276,-0.0764245861147125,0.0
2277,-0.007662517246726903,0.0
2278,-0.0387637682621683,0.0
2279,-0.09407531366957961,0.0
2280,0.361141279742077,0.0
2281,3.7963066924832383,0.0
2282,6.678582091998209,0.0
2283,-0.8370285608887609,0.0
2284,-1.6308715310118613,0.0
2285,1.4278552241018234,0.0
2286,-0.8316466833752703,0.0
2287,0.0834176657772967,0.0
2288,-0.14688528507658102,0.0
2289,-0.032211471300429416,0.0
2290,-0.05197977294100545,0.0
2291,0.03355166433501171,0.0
2292,-0.053708281169172915,0.0
2293,0.027600441014689378,0.0
2294,-0.15657771166207343,0.0
2295,-0.15167523901847338,0.0
2296,-0.011057284111919911,0.0
2297,-0.02248354747090004,0.0
2298,-0.09775075262461123,0.0
2299,-0.10740460702170518,0.0
2300,0.2537206713515393,0.0
2301,3.8402565426246777,0.0
2302,6.609495296569336,0.0
2303,-0.9311538133558722,0.0
2304,-1.660041542261379,0.0
2305,1.350535766359732,0.0
2306,-0.9597328764514044,0.0
2307,0.12010591878671688,0.0
2308,0.037579576539472206,0.0
2309,-0.15215531396855686,0.0
2310,-0.14005331487781134,0.0
2311,-0.09070311698787392,0.0
2312,-0.026873116869713887,0.0
2313,-0.09033576466583532,0.0
2314,-0.1868722927535031,0.0
2315,-0.10831807114438072,0.0
2316,-0.08961293098480375,0.0
2317,-0.042425191778955325,0.0
2318,-0.09945938175910006,0.0
2319,-0.1231572246670574,0.0
2320,0.23387347334649014,0.0
2321,3.953224562262257,0.0
2322,6.682642384722048,0.0
2323,-0.9114472667156757,0.0
2324,-1.6611976569308116,0.0
2325,1.4037368506554821,0.0
2326,-0.8514535517560835,0.0
2327,0.15886574142829782,0.0
2328,-0.08974933584736074,0.0
2329,-0.10793874209982153,0.0
2330,-0.009832510246668938,0.0
2331,-0.08128523550364312,0.0
2332,0.01136753099643431,0.0
2333,-0.06370659293127695,0.0
2334,-0.06212638792162115,0.0
2335,-0.06274875186310404,0.0
2336,-0.04402859753538896,0.0
2337,-0.1520155424659855,0.0
2338,-0.06224407997921197,0.0
2339,-0.1346170004780233,0.0
2340,0.35907352937679754,0.0
2341,3.8304550416647976,0.0
2342,6.665552540755805,0.0
2343,-0.9621690111331556,0.0
2344,-1.568611966506488,0.0
2345,1.349283067270988,0.0
2346,-0.9088271706727338,0.0
2347,0.014011562639028044,0.0
2348,-0.018577514830029257,0.0
2349,-0.09421774101932359,0.0
2350,-0.12326323765320027,0.0
2351,-0.09655408706857466,0.0
2352,-0.10040449211006902,0.0
2353,-0.09331450246577674,0.0
2354,-0.05581113252315681,0.0
2355,0.023071598362086682,0.0
2356,-0.10255217267831082,0.0
2357,-0.04353827288179252,0.0
2358,0.016488688242196,0.0
2359,-0.007662097063518211,0.0
2360,0.4240301567250186,0.0
2361,3.889760979411079,0.0
2362,6.800341386472261,0.0
2363,-0.8937047562784849,0.0
2364,-1.4784191836884377,0.0
2365,1.543809112813311,0.0
2366,-0.7542566986601513,0.0
2367,0.23553442528602728,0.0
2368,-0.041843672044885545,0.0
2369,-0.0006800936225907703,0.0
2370,-0.10698869095657698,0.0
2371,-0.006173410697466811,0.0
2372,-0.0763243442032171,0.0
2373,-0.04435188503253855,0.0
2374,-0.041209898284994245,0.0
2375,-0.05515091119918181,0.0
2376,-0.2071174429305486,0.0
2377,-0.15183739360099413,0.0
2378,-0.08650928385793562,0.0
2379,-0.1008891622062161,0.0
2380,0.25251434154181174,0.0
2381,3.7760192493305227,0.0
2382,6.590908722338832,0.0
2383,-0.9811357907982092,0.0
2384,-1.6393046169512282,0.0
2385,1.4443280366481932,0.0
2386,-0.8622790877527154,0.0
2387,0.1052108161467114,0.0
2388,-0.09696933486502554,0.0
2389,-0.02745686178262105,0.0
2390,-0.10582963601597907,0.0
2391,-0.021773663074786703,0.0
2392,-0.05926557822210728,0.0
2393,-0.09626122365001948,0.0
2394,-0.14367453948589579,0.0
2395,-0.12560370959991268,0.0
2396,-0.038663015962537246,0.0
2397,-0.08867138564260582,0.0
2398,0.03291816603856873,0.0
2399,-0.05064614766997093,0.0
2400,0.3293265589207453,0.0
2401,3.850999218723146,0.0
2402,6.593089004907665,0.0
2403,-0.9238232702750925,0.0
2404,-1.5392648064188796,0.0
2405,1.4543937583775177,0.0
2406,-0.7973974301432908,0.0
2407,0.16818380824068777,0.0
2408,0.0006568286360067455,0.0
2409,0.03836563991230736,0.0
2410,-0.07505187425467559,0.0
2411,0.008023450580262423,0.0
2412,-0.031320778324904805,0.0
2413,0.028520035989754604,0.0
2414,-0.041561714636980336,0.0
2415,-0.024571203228779565,0.0
2416,-0.004208203174902697,0.0
2417,-0.053809195998418644,0.0
2418,-0.08337533800777022,0.0
2419,-0.06596974668813171,0.0
2420,0.3688540249495081,0.0
2421,3.9257563807032274,0.0
2422,6.673398215362441,0.0
2423,-0.9495060039599338,0.0
2424,-1.6276310411133696,0.0
2425,1.3774205603878447,0.0
2426,-0.7269276079940746,0.0
2427,0.25986912622364017,0.0
2428,-0.03870817907567373,0.0
2429,-0.1179181557722852,0.0
2430,-0.009614447646050042,0.0
2431,-0.0632078475509244,0.0
2432,-0.12565290711681873,0.0
2433,0.03997964687453407,0.0
2434,-0.09775443025671077,0.0
2435,-0.022079872123817706,0.0
2436,0.016147093339102966,0.0
2437,0.020074855773379856,0.0
2438,-0.011529291438914104,0.0
2439,-0.009290446636972004,0.0
2440,0.37609441738869676,0.0
2441,3.923738864014561,0.0
2442,6.70704689006884,0.0
2443,-1.0000049142737535,0.0
2444,-1.6095950451572039,0.0
2445,1.359346676284643,0.0
2446,-0.8853280155775649,0.0
2447,0.10030379676174056,0.0
2448,0.0117014829964293,0.0
2449,0.011024294306908891,0.0
2450,-0.11461764019792856,0.0
2451,-0.029741677404815647,0.0
2452,-0.08894111063625793,0.0
2453,-0.02065911172148202,0.0
2454,-0.042260612648319706,0.0
2455,-0.06270034875846013,0.0
2456,-0.0380541116856594,0.0
2457,-0.043351203076638985,0.0
2458,-0.10016488226199897,0.0
2459,-0.033882652401289425,0.0
2460,0.32919185615292873,0.0
2461,3.8308799526022983,0.0
2462,6.664987407942015,0.0
2463,-0.8448788990822426,0.0
2464,-1.5840549443604717,0.0
2465,1.505897706341269,0.0
2466,-0.7134763157855248,0.0
2467,0.2337892039690832,0.0
2468,-0.04893034958337086,0.0
2469,-0.036475279613434226,0.0
2470,0.18207894461404694,0.0
2471,0.07345747379558622,0.0
2472,0.10406637447741612,0.0
2473,-0.01943323311277196,0.0
2474,0.030077758958208925,0.0
2475,0.0991516505286013,0.0
2476,-0.014204423474724066,0.0
2477,0.048788765492553426,0.0
2478,-0.020571298073654418,0.0
2479,0.05406058496067142,0.0
2480,0.3378326589119385,0.0
2481,4.014128891540148,0.0
2482,6.7276264342894025,0.0
2483,-0.9026012446168713,0.0
2484,-1.5439998219162778,0.0
2485,1.5372277333068318,0.0
2486,-0.8328922437364918,0.0
2487,0.1974610720608925,0.0
2488,0.07569658365136717,0.0
2489,0.03095812827833307,0.0
2490,0.1032373718408835,0.0
2491,0.046262573030306745,0.0
2492,0.06397986025167424,0.0
2493,0.011951085566745057,0.0
2494,0.08002980246354105,0.0
2495,0.07916633458678654,0.0
2496,0.09502045161347039,0.0
2497,0.013966884630200335,0.0
2498,0.024703524459784926,0.0
2499,-0.02756093332719799,0.0
2500,0.4055747721473803,0.0
2501,3.936286966924422,0.0
2502,6.695702387744908,0.0
2503,-0.7996514769841491,0.0
2504,-1.5196821241928933,0.0
2505,1.5827435703156132,0.0
2506,-0.6840050802267346,0.0
2507,0.18264677525600007,0.0
2508,0.019413261673737907,0.0
2509,-0.05055698554993671,0.0
2510,0.16261814597501476,0.0
2511,0.09258717404340142,0.0
2512,0.039539596554186075,0.0
2513,0.008900863142639562,0.0
2514,-0.010199252367275702,0.0
2515,0.041018594921887294,0.0
2516,0.052668193174345415,0.0
2517,0.0448466010424733,0.0
2518,0.06755682578287271,0.0
2519,-0.00696602968956804,0.0
2520,0.3497472511313244,0.0
2521,3.9486788776599866,0.0
2522,6.726738722906529,0.0
2523,-0.8955446184091117,0.0
2524,-1.5919977703773847,0.0
2525,1.450848478461258,0.0
2526,-0.7639825556097724,0.0
2527,0.17467128820388889,0.0
2528,-0.07199249491100437,0.0
2529,-0.003784220401789204,0.0
2530,0.05040275995990336,0.0
2531,0.048309108979820686,0.0
2532,-0.0634819212619104,0.0
2533,-0.033999446013823355,0.0
2534,0.07983443458262102,0.0
2535,-0.04699293147951379,0.0
2536,-0.03134477345931698,0.0
2537,-0.07529544079981124,0.0
2538,-0.0013677632939277703,0.0
2539,0.023145606296494425,0.0
2540,0.32533533971406625,0.0
2541,3.977644070449443,0.0
2542,6.646727801352413,0.0
2543,-1.002820599111919,0.0
2544,-1.4974465946250837,0.0
2545,1.439740960801951,0.0
2546,-0.7723767745337234,0.0
2547,0.24596398782002665,0.0
2548,-0.06277564533170137,0.0
2549,0.019401156083466264,0.0
2550,0.0584451660873548,0.0
2551,0.0094710812484885,0.0
2552,0.006179350686662654,0.0
2553,-0.012859217466321191,0.0
2554,-0.03956355614785606,0.0
2555,0.07465998569070072,0.0
2556,0.03582609576457434,0.0
2557,0.05162606823353012,0.0
2558,-0.05325471582381198,0.0
2559,-0.04688803922179308,0.0
2560,0.36471988028667685,0.0
2561,3.94020283065088,0.0
2562,6.676946475388165,0.0
2563,-1.037048404600463,0.0
2564,-1.5931429861851312,0.0
2565,1.4563174723963308,0.0
2566,-0.7714762022748856,0.0
2567,0.13009156447051445,0.0
2568,-0.054027388520172706,0.0
2569,-0.12904129373474163,0.0
2570,0.0078008787458777665,0.0
2571,-0.030694225059523544,0.0
2572,-0.11292570760742068,0.0
2573,-0.1064208682764511,0.0
2574,-0.07827384631776496,0.0
2575,-0.04734488860132703,0.0
2576,-0.1294666123556672,0.0
2577,-0.14353975198696226,0.0
2578,-0.04528078273067866,0.0
2579,-0.09200994027307335,0.0
2580,0.25002552267316913,0.0
2581,3.9335731391886672,0.0
2582,6.523453428004492,0.0
2583,-0.9825134167855046,0.0
2584,-1.6017922172193022,0.0
2585,1.3147578965167512,0.0
2586,-0.8947998776298843,0.0
2587,0.20893033120775437,0.0
2588,-0.012607271746414336,0.0
2589,-0.06730634455672627,0.0
2590,0.09436753970514339,0.0
2591,0.026303692256324285,0.0
2592,0.03193163223939226,0.0
2593,0.05688926898117033,0.0
2594,0.03691905840177812,0.0
2595,0.07090147493214066,0.0
2596,0.08638154590962914,0.0
2597,0.05148885346211765,0.0
2598,0.10712409360134664,0.0
2599,-0.017559440478501297,0.0
2600,0.3376728073391488,0.0
2601,3.8629756091392733,0.0
2602,6.5784723728222065,0.0
2603,-1.0644465922182693,0.0
2604,-1.5598988934106932,0.0
2605,1.5467089917393506,0.0
2606,-0.7355193479318608,0.0
2607,0.060896514607418295,0.0
2608,0.010211375306913455,0.0
2609,-0.06333206413054032,0.0
2610,-0.1306232880482124,0.0
2611,-0.10184660705519082,0.0
2612,-0.042263262735350665,0.0
2613,-0.001785707782540901,0.0
2614,-0.0917621562432524,0.0
2615,0.0480425984255144,0.0
2616,-0.06037150839062353,0.0
2617,0.03788530367303825,0.0
2618,0.04301660293196863,0.0
2619,-0.026071090080001576,0.0
2620,0.31932684996838545,0.0
2621,3.917595857979467,0.0
2622,6.615994650159518,0.0
2623,-1.01190970033205,0.0
2624,-1.468520943955374,0.0
2625,1.4583402338374396,0.0
2626,-0.7724224782295978,0.0
2627,0.019473473271413383,0.0
2628,-0.04454784742924751,0.0
2629,-0.039032032649940256,0.0
2630,-0.010441789291246714,0.0
2631,-0.0884728680663008,0.0
2632,-0.090697961768955,0.0
2633,-0.022933144593888403,0.0
2634,-0.12962123950452564,0.0
2635,-0.04947861114337796,0.0
2636,-0.04202269712347297,0.0
2637,-0.014768944813401602,0.0
2638,0.01870359565440223,0.0
2639,-0.01195926271551518,0.0
2640,0.35035283759397495,0.0
2641,3.8870515677808144,0.0
2642,6.627934055648487,0.0
2643,-0.9774654444746181,0.0
2644,-1.5248880193819616,0.0
2645,1.3705782010769851,0.0
2646,-0.8082591801735973,0.0
2647,0.19892021341570504,0.0
2648,-0.07962001711314085,0.0
2649,-0.006088219058187426,0.0
2650,-5.169899319707469e-05,0.0
2651,-0.02169490883033918,0.0
2652,0.014719701773507211,0.0
2653,-0.02772402114827442,0.0
2654,-0.1117429754468589,0.0
2655,-0.044366461917519376,0.0
2656,-0.08361134251849583,0.0
2657,-0.03813219221121112,0.0
2658,0.010775394851245068,0.0
2659,-0.06328444651048674,0.0
2660,0.32401621567109706,0.0
2661,3.8330177682749693,0.0
2662,6.5638893824897195,0.0
2663,-1.0545265358120233,0.0
2664,-1.6060805243046943,0.0
2665,1.3905425427593976,0.0
2666,-0.78697257742417,0.0
2667,0.2590462637730119,0.0
2668,0.01741950562854369,0.0
2669,-0.14987255758579132,0.0
2670,0.005258270366190858,0.0
2671,-0.015939306348038845,0.0
2672,-0.01838706882385527,0.0
2673,0.033507981557280075,0.0
2674,-0.10353045653406032,0.0
2675,-0.0626006863686231,0.0
2676,-0.03686909852046826,0.0
2677,-0.15578884988448766,0.0
2678,-0.034616343096482385,0.0
2679,-0.18467114461074036,0.0
2680,0.2691158655994377,0.0
2681,3.957958114389586,0.0
2682,6.441561936551301,0.0
2683,-1.0997215335170483,0.0
2684,-1.609037877698392,0.0
2685,1.3433042413111627,0.0
2686,-0.8191755245163314,0.0
2687,0.15730694235840803,0.0
2688,-0.03550189855156692,0.0
2689,-0.10348540309223628,0.0
2690,-0.06589068926696753,0.0
2691,-0.06797938186561214,0.0
2692,-0.0789062587614763,0.0
2693,-0.046554102935526864,0.0
2694,-0.00759102689187998,0.0
2695,0.030795695568132816,0.0
2696,-0.09037727449527763,0.0
2697,0.009264930427760804,0.0
2698,-0.12731249249705956,0.0
2699,-0.06849510732946196,0.0
2700,0.4042757701447741,0.0
2701,3.967703846648114,0.0
2702,6.575266018159965,0.0
2703,-1.0480908288965078,0.0
2704,-1.5789918129744804,0.0
2705,1.446424476272582,0.0
2706,-0.7767902950801882,0.0
2707,0.11077901876191762,0.0
2708,-0.021224006278134026,0.0
2709,-0.029262812227998425,0.0
2710,-0.11916784735844788,0.0
2711,-0.044225295897204364,0.0
2712,-0.13330747765901013,0.0
2713,-0.0101028027098055,0.0
2714,-0.00825460758733812,0.0
2715,-0.05088990103123285,0.0
2716,-0.025334252551157885,0.0
2717,-0.027201131449572622,0.0
2718,0.049069733520511305,0.0
2719,-0.06129533511762552,0.0
2720,0.3088903153289233,0.0
2721,3.864941286296912,0.0
2722,6.673032487658639,0.0
2723,-0.9460659252284699,0.0
2724,-1.5590233572740055,0.0
2725,1.4299318602466689,0.0
2726,-0.806395995802249,0.0
2727,0.19051658601278873,0.0
2728,0.06604741922516866,0.0
2729,-0.06207827985640427,0.0
2730,-0.12680468845911158,0.0
2731,-0.05289456130121493,0.0
2732,0.005795996173663644,0.0
2733,0.05469363069768529,0.0
2734,0.0027411771330301815,0.0
2735,-0.030169280021093117,0.0
2736,0.01135525074867046,0.0
2737,0.05380136775987149,0.0
2738,-0.005125046040943592,0.0
2739,-0.0402700704168672,0.0
2740,0.31216304444206106,0.0
2741,4.008748682935334,0.0
2742,6.603023061079501,0.0
2743,-1.0538833035360264,0.0
2744,-1.588256485975119,0.0
2745,1.578026660634511,0.0
2746,-0.8293353744130753,0.0
2747,0.24039909419332686,0.0
2748,0.034682975465742574,0.0
2749,-0.09387179166359197,0.0
2750,-0.027110170457393515,0.0
2751,0.11443442982497701,0.0
2752,0.048224567712469045,0.0
2753,0.06803552039653209,0.0
2754,0.004407177592754453,0.0
2755,0.07747949351908366,0.0
2756,0.12966857771824097,0.0
2757,0.004913253544723908,0.0
2758,-0.05751560980021583,0.0
2759,-0.05167862174766376,0.0
2760,0.3612956661048693,0.0
2761,3.9144574690407072,0.0
2762,6.730910321040042,0.0
2763,-0.9951608181112808,0.0
2764,-1.4929329813026404,0.0
2765,1.4527111952717586,0.0
2766,-0.7400417145049691,0.0
2767,0.23855936096294114,0.0
2768,-8.843542740333277e-05,0.0
2769,-0.09596111673447383,0.0
2770,0.026013869422423775,0.0
2771,-0.029446714510648547,0.0
2772,-0.01690763748948295,0.0
2773,-0.03563753371399356,0.0
2774,-0.09590905490778387,0.0
2775,-0.11991628300642013,0.0
2776,0.03434695176269778,0.0
2777,-0.023634385283698604,0.0
2778,0.009670234567131505,0.0
2779,-0.0004568324390135242,0.0
2780,0.32730590738093884,0.0
2781,3.9332538000373294,0.0
2782,6.606967895118114,0.0
2783,-0.9693072809154969,0.0
2784,-1.5437408223079607,0.0
2785,1.4407185335821784,0.0
2786,-0.7678653769762988,0.0
2787,0.2509989982736045,0.0
2788,0.03369258268316164,0.0
2789,-0.08880045453637571,0.0
2790,0.03767567078959749,0.0
2791,0.050544431881562636,0.0
2792,0.01981875813352591,0.0
2793,0.1832898452996582,0.0
2794,-0.02941251494394055,0.0
2795,0.014500198314835365,0.0
2796,0.021897466015166227,0.0
2797,0.10616298720773878,0.0
2798,0.04747622420157368,0.0
2799,0.11814996680712628,0.0
2800,0.39643473035043036,0.0
2801,4.016453566440098,0.0
2802,6.738402974678727,0.0
2803,-1.0364623177477839,0.0
2804,-1.5381854899814265,0.0
2805,1.3615357520154354,0.0
2806,-0.7699508956302,0.0
2807,0.23661633925079467,0.0
2808,-0.05715732432393607,0.0
2809,-0.0576107750975031,0.0
2810,-0.03783483086753769,0.0
2811,-0.02376086410353816,0.0
2812,-0.03885066084461321,0.0
2813,0.03157966548695444,0.0
2814,0.003006030374884946,0.0
2815,-0.028105535279095345,0.0
2816,0.006426833778273661,0.0
2817,-0.03487745273673104,0.0
2818,-0.03687224013147148,0.0
2819,-0.08623690526618347,0.0
2820,0.4519467173756784,0.0
2821,4.021361714911556,0.0
2822,6.696233913022095,0.0
2823,-1.0575716046050947,0.0
2824,-1.4494529336261526,0.0
2825,1.4806206415374419,0.0
2826,-0.8330652492249688,0.0
2827,0.24043863236390653,0.0
2828,-0.05428400531707578,0.0
2829,-0.0349892065547671,0.0
2830,0.029601709641958275,0.0
2831,0.04264458144273684,0.0
2832,0.03089899024057571,0.0
2833,-0.04294669173063649,0.0
2834,0.03493657947094372,0.0
2835,0.07778733091038004,0.0
2836,0.002185759787494617,0.0
2837,0.03974167127258103,0.0
2838,0.0548604430112518,0.0
2839,0.0017650374860421207,0.0
2840,0.2229111844707712,0.0
2841,4.004802768553418,0.0
2842,6.645746278602608,0.0
2843,-1.0689586167407965,0.0
2844,-1.4986132140916626,0.0
2845,1.508756836692284,0.0
2846,-0.7455725045751126,0.0
2847,0.1448504262057691,0.0
2848,-0.08614386835590401,0.0
2849,-0.1008482211334619,0.0
2850,-0.08613413996065714,0.0
2851,-0.008898974108632138,0.0
2852,-0.0032156723155550865,0.0
2853,-0.0055324481249518255,0.0
2854,-0.0115684778840399,0.0
2855,-0.01662903111821184,0.0
2856,-0.050469372646376985,0.0
2857,0.018227902541065513,0.0
2858,-0.029735137763751692,0.0
2859,0.013434635182558809,0.0
2860,0.4035855118800688,0.0
2861,4.055339664229807,0.0
2862,6.543712928070244,0.0
2863,-1.0515851925251491,0.0
2864,-1.4895782207994277,0.0
2865,1.42917300631445,0.0
2866,-0.8753411861767236,0.0
2867,0.17876668115736172,0.0
2868,0.009223657596759968,0.0
2869,0.08383155524099951,0.0
2870,0.049757856526038854,0.0
2871,-0.07154238645278829,0.0
2872,-0.03753941760367467,0.0
2873,-0.029656533752014366,0.0
2874,-0.03814169346260071,0.0
2875,0.057929933672522305,0.0
2876,0.00970047071437148,0.0
2877,0.0648251955188185,0.0
2878,0.04073945795820851,0.0
2879,-0.040363294173060414,0.0
2880,0.3678080743338806,0.0
2881,3.998452001921428,0.0
2882,6.687119204980525,0.0
2883,-1.0835097355705188,0.0
2884,-1.390720951105117,0.0
2885,1.436770554781772,0.0
2886,-0.7612406550200764,0.0
2887,0.2045456748504638,0.0
2888,-0.07258569588878966,0.0
2889,-0.10024949169719988,0.0
2890,0.015807388980141446,0.0
2891,-0.034301665320277515,0.0
2892,0.02554939941507211,0.0
2893,-0.012743977192597181,0.0
2894,-0.013121668435727233,0.0
2895,-0.033331173404011705,0.0
2896,-0.022397997690629147,0.0
2897,-0.04514095937172374,0.0
2898,-0.05236154216172475,0.0
2899,-0.0041865563901547255,0.0
2900,0.42589194806188807,0.0
2901,4.026863815751613,0.0
2902,6.657172255959983,0.0
2903,-1.1125026079876335,0.0
2904,-1.4092259676703955,0.0
2905,1.3991570047143644,0.0
2906,-0.7943029889084379,0.0
2907,0.11365265278548406,0.0
2908,-0.03919974663117585,0.0
2909,-0.13831346492052804,0.0
2910,0.002176388460325668,0.0
2911,-0.07960929059433608,0.0
2912,-0.11004512034348052,0.0
2913,-0.04938957505684019,0.0
2914,-0.04234197626987998,0.0
2915,-0.0036923601335295056,0.0
2916,-0.04694002267589832,0.0
2917,-0.08026635981289784,0.0
2918,-0.002582089419628057,0.0
2919,-0.019443891822685962,0.0
2920,0.38650560999119643,0.0
2921,4.073105519775254,0.0
2922,6.711795304395402,0.0
2923,-1.0607446412871309,0.0
2924,-1.4900094542116729,0.0
2925,1.3630300142463534,0.0
2926,-0.7849196180917675,0.0
2927,0.21204904034926453,0.0
2928,-0.08505753227950799,0.0
2929,-0.057890213560222295,0.0
2930,-0.00240356937122772,0.0
2931,0.03855519373227588,0.0
2932,-0.10375710932963145,0.0
2933,0.01191119332019537,0.0
2934,-0.0169451963071529,0.0
2935,-0.05041773096320687,0.0
2936,0.08341189936002524,0.0
2937,-0.011118520646469975,0.0
2938,-0.07614035292768703,0.0
2939,0.005548614684410834,0.0
2940,0.42689609143549345,0.0
2941,4.0756732644146725,0.0
2942,6.555334913580771,0.0
2943,-1.0610049245388256,0.0
2944,-1.4743323882962598,0.0
2945,1.4085364046308761,0.0
2946,-0.7002051185672195,0.0
2947,0.19722300888505537,0.0
2948,0.030549576286833878,0.0
2949,-0.013296961468398849,0.0
2950,-0.029812840117638788,0.0
2951,0.029393731653765697,0.0
2952,0.004465345971991911,0.0
2953,0.055859300100219514,0.0
2954,-0.0006910084551292541,0.0
2955,-0.021329911777643012,0.0
2956,0.02229514204151834,0.0
2957,-0.042788660985103484,0.0
2958,-0.01465159497416574,0.0
2959,-0.01283860456930091,0.0
2960,0.39488343324853026,0.0
2961,4.047326261724959,0.0
2962,6.642860093578993,0.0
2963,-1.1039931889297352,0.0
2964,-1.42144053580084,0.0
2965,1.4903976286444012,0.0
2966,-0.7512873830442113,0.0
2967,0.2642535931136023,0.0
2968,0.020558347950020324,0.0
2969,0.034818469004218845,0.0
2970,0.10018307676908501,0.0
2971,-0.037749151411168407,0.0
2972,-0.03195082349944864,0.0
2973,-0.030397056364313897,0.0
2974,0.0024997806074396143,0.0
2975,-0.054609254953483746,0.0
2976,-0.04094101665326624,0.0
2977,-0.06610313792305293,0.0
2978,-0.01674826287605512,0.0
2979,0.026584632498512104,0.0
2980,0.40925981282391666,0.0
2981,4.064968718628102,0.0
2982,6.616600903325148,0.0
2983,-0.9416312558122906,0.0
2984,-1.5099809071669765,0.0
2985,1.454912532898143,0.0
2986,-0.7277480297489232,0.0
2987,0.18931463585499098,0.0
2988,-0.0033482655767593933,0.0
2989,-0.17330455538204287,0.0
2990,-0.03669659992086224,0.0
2991,-0.08360760314110974,0.0
2992,0.03226011056737374,0.0
2993,0.0016508687812266803,0.0
2994,-0.023408297757446364,0.0
2995,-0.08515827050351359,0.0
2996,-0.010322840680002639,0.0
2997,0.025125550936289657,0.0
2998,-0.02075479525307472,0.0
2999,0.02027396770994883,0.0
3000,0.39872010639728545,0.0
3001,3.9778123531499934,0.0
3002,6.657420614224488,0.0
3003,-1.0786547801349042,0.0
3004,-1.4434416229955074,0.0
3005,1.4527024399413269,0.0
3006,-0.7348225612723074,0.0
3007,0.1707423949701541,0.0
3008,-0.07813592138301857,0.0
3009,-0.02962448967313182,0.0
3010,-0.0009146258497726538,0.0
3011,-0.05767269290689324,0.0
3012,-0.052801030344297464,0.0
3013,-0.00856757070381928,0.0
3014,0.04941889297106711,0.0
3015,0.005619707701189337,0.0
3016,0.02622995439252378,0.0
3017,0.03155087757287287,0.0
3018,0.12939041393127174,0.0
3019,0.051408581141739525,0.0
3020,0.4160295666956185,0.0
3021,4.160292506089945,0.0
3022,6.687479541227239,0.0
3023,-1.0303328713686462,0.0
3024,-1.4215183858498268,0.0
3025,1.5412714662399405,0.0
3026,-0.6973519122409736,0.0
3027,0.258945195179632,0.0
3028,0.07596658404354639,0.0
3029,-0.019520598052588687,0.0
3030,0.11161344612628504,0.0
3031,-0.029753335234049407,0.0
3032,0.01812793201379565,0.0
3033,-0.09462536482463585,0.0
3034,-0.024127505828385305,0.0
3035,-0.04761443445778807,0.0
3036,-0.05668706710114545,0.0
3037,0.013791531232180793,0.0
3038,0.011234133225795787,0.0
3039,0.013182051934941924,0.0
3040,0.37195055443075664,0.0
3041,4.042302443915433,0.0
3042,6.524195523792016,0.0
3043,-1.0487434146046941,0.0
3044,-1.4253179065651636,0.0
3045,1.4629658062761868,0.0
3046,-0.7829368749799495,0.0
3047,0.1219355412632863,0.0
3048,-0.01448476249755282,0.0
3049,-0.07441464025798897,0.0
3050,0.0028441032462862767,0.0
3051,-0.010474434212282363,0.0
3052,0.04067729724940854,0.0
3053,-0.039340957953118746,0.0
3054,-0.04737737357972448,0.0
3055,0.17698252129559763,0.0
3056,-0.033819880927228096,0.0
3057,0.03865523244257283,0.0
3058,0.06120979872945497,0.0
3059,0.04964872912808777,0.0
3060,0.35586180996103295,0.0
3061,4.046952620145273,0.0
3062,6.617100319284208,0.0
3063,-0.9795091934313207,0.0
3064,-1.4369949465457768,0.0
3065,1.3941694300575844,0.0
3066,-0.8094228068156835,0.0
3067,0.21505555337678173,0.0
3068,0.0004764702409649725,0.0
3069,-0.007966067024558139,0.0
3070,0.06751336127028035,0.0
3071,0.001644718448377538,0.0
3072,0.07242229534108587,0.0
3073,0.03743975716139732,0.0
3074,-0.02284760492415104,0.0
3075,0.062447200419949625,0.0
3076,0.03940490847020271,0.0
3077,0.0320258985373618,0.0
3078,-0.008986062815577697,0.0
3079,-0.05371117477611841,0.0
3080,0.414427284359814,0.0
3081,4.074376887661957,0.0
3082,6.6600837799871995,0.0
3083,-1.0979636475955208,0.0
3084,-1.399323504383316,0.0
3085,1.4419595086282042,0.0
3086,-0.7468090899251335,0.0
3087,0.24446954778356716,0.0
3088,-0.05588957729283802,0.0
3089,-0.14086147623877987,0.0
3090,0.05818762630643984,0.0
3091,0.146392297161581,0.0
3092,-0.036501731769604154,0.0
3093,0.021099172200171455,0.0
3094,-0.05290685899575903,0.0
3095,-0.0077319908740593555,0.0
3096,-0.00843800203709322,0.0
3097,0.052555521496280705,0.0
3098,0.0620220686291993,0.0
3099,0.0351172896799685,0.0
3100,0.4520945518941955,0.0
3101,4.016286984749798,0.0
3102,6.591896380902695,0.0
3103,-1.1975773134211263,0.0
3104,-1.4517049233387962,0.0
3105,1.3009835776635519,0.0
3106,-0.8158267911046831,0.0
3107,0.2308050426290287,0.0
3108,-0.03232177195111098,0.0
3109,-0.060662081301364815,0.0
3110,-0.04265058441170811,0.0
3111,-0.12359679916526753,0.0
3112,-0.05283945049852204,0.0
3113,0.03809132472751923,0.0
3114,0.03196801582536823,0.0
3115,-0.012076377571276845,0.0
3116,0.08907476494015396,0.0
3117,0.029524674201256453,0.0
3118,-0.020023023687677874,0.0
3119,0.05646041127159121,0.0
3120,0.3962020220213338,0.0
3121,3.9996587720863346,0.0
3122,6.585167697751915,0.0
3123,-1.0395412169447333,0.0
3124,-1.4861520989065158,0.0
3125,1.4203979966048201,0.0
3126,-0.7445603992343388,0.0
3127,0.18427180109111163,0.0
3128,-0.014383853501393696,0.0
3129,-0.11218615282138467,0.0
3130,0.06971757485938099,0.0
3131,-0.11194067548162398,0.0
3132,-0.0683169995904941,0.0
3133,0.07404673033991967,0.0
3134,0.02064437376956259,0.0
3135,0.04425081210411935,0.0
3136,-0.04158927955604422,0.0
3137,-0.0712955879457871,0.0
3138,-0.02923153727765782,0.0
3139,-0.17069778590843127,0.0
3140,0.4333600898376645,0.0
3141,3.9619419068573745,0.0
3142,6.6039284318750155,0.0
3143,-1.0387301703720888,0.0
3144,-1.3827947901888034,0.0
3145,1.430005351693653,0.0
3146,-0.7919496863193437,0.0
3147,0.1610524087943641,0.0
3148,-0.08780768433704313,0.0
3149,-0.0913393780212623,0.0
3150,-0.07267303653228904,0.0
3151,0.01422016654170112,0.0
3152,-0.0026268774405229234,0.0
3153,-0.09597001753115758,0.0
3154,-0.04996790644675535,0.0
3155,0.009752611656888701,0.0
3156,0.0060942329855118126,0.0
3157,-0.11545228511468389,0.0
3158,-0.13524054072562486,0.0
3159,0.002150900007243127,0.0
3160,0.34043420064969,0.0
3161,4.037451644974407,0.0
3162,6.622707596335499,0.0
3163,-1.0807580620882853,0.0
3164,-1.4757639246305425,0.0
3165,1.5495847823771707,0.0
3166,-0.7965604447530406,0.0
3167,0.20662870940392766,0.0
3168,-0.03866702299137908,0.0
3169,-0.003425844467883521,0.0
3170,-0.030416019538455845,0.0
3171,0.041274347045896755,0.0
3172,-0.08333557998195781,0.0
3173,0.011135715269087156,0.0
3174,0.02241900450253368,0.0
3175,-0.0774171117851671,0.0
3176,-0.005043084329371094,0.0
3177,0.05171089516798048,0.0
3178,-0.004912757821091822,0.0
3179,-0.00765552197328002,0.0
3180,0.4715525764768591,0.0
3181,4.03365009938998,0.0
3182,6.5496424847920816,0.0
3183,-1.0970086878584,0.0
3184,-1.431352343389074,0.0
3185,1.412403865852072,0.0
3186,-0.8561153636272283,0.0
3187,0.23785705033108795,0.0
3188,-0.05037380689601214,0.0
3189,0.025224353913593643,0.0
3190,0.03646957575922972,0.0
3191,0.05446200278989092,0.0
3192,0.1177055098374094,0.0
3193,0.0077743694850510164,0.0
3194,0.03886024703557505,0.0
3195,0.0742808018608051,0.0
3196,0.07178575350424762,0.0
3197,0.08130961691157161,0.0
3198,0.017048281597295996,0.0
3199,0.07747940631897454,0.0
3200,0.5387683221296622,0.0
3201,4.157025694822753,0.0
3202,6.639007023650363,0.0
3203,-1.1096534680818075,0.0
3204,-1.3240323009446502,0.0
3205,1.4745602637130992,0.0
3206,-0.7750904680060956,0.0
3207,0.1046417878911254,0.0
3208,-0.0028542424231734476,0.0
3209,-0.1404865456418052,0.0
3210,0.06071612649364659,0.0
3211,-0.0066843208141097,0.0
3212,-0.013965365800124134,0.0
3213,-0.0038312080482971744,0.0
3214,0.00403836912936216,0.0
3215,-0.07620941561950272,0.0
3216,-0.10201061887642356,0.0
3217,-0.030030843597883425,0.0
3218,-0.05714688004323941,0.0
3219,-0.02743396935707202,0.0
3220,0.4324817904226552,0.0
3221,4.169827310792059,0.0
3222,6.641398473583897,0.0
3223,-0.9677298474979116,0.0
3224,-1.4021295792295168,0.0
3225,1.5029140589947656,0.0
3226,-0.6829103772832771,0.0
3227,0.20655972568191477,0.0
3228,-0.02934862455041288,0.0
3229,-0.07197172164454248,0.0
3230,0.07384133995521323,0.0
3231,-0.011899036416120825,0.0
3232,-0.016575368790138503,0.0
3233,-0.014657010769319464,0.0
3234,0.15153255635030152,0.0
3235,-0.018931415123731303,0.0
3236,0.016842819831071467,0.0
3237,0.035134791756703095,0.0
3238,0.0920461317175625,0.0
3239,0.0006550330388320992,0.0
3240,0.42414653799939206,0.0
3241,3.9866705203020363,0.0
3242,6.59087421932308,0.0
3243,-1.1926477056396023,0.0
3244,-1.4423044375132772,0.0
3245,1.2671997646943791,0.0
3246,-0.7584675069807244,0.0
3247,0.2706103785955351,0.0
3248,-0.06262331761865667,0.0
3249,-0.025965440021892557,0.0
3250,0.05978495092158345,0.0
3251,0.034768798601867996,0.0
3252,0.036694175996973485,0.0
3253,-0.007072860697187422,0.0
3254,-0.009212733513932281,0.0
3255,-0.023846118179916415,0.0
3256,0.0030344346050996014,0.0
3257,0.058203830503146974,0.0
3258,-0.032282491907920284,0.0
3259,-0.06594385084229284,0.0
3260,0.3097777702207326,0.0
3261,4.010208799772399,0.0
3262,6.565745724675168,0.0
3263,-1.1525797517365193,0.0
3264,-1.4565151453159557,0.0
3265,1.3826289517802186,0.0
3266,-0.8402686837795755,0.0
3267,0.21832899288286373,0.0
3268,0.00614075057747876,0.0
3269,-0.05040780138721877,0.0
3270,-0.060604740963617475,0.0
3271,0.009388230341151046,0.0
3272,-0.027683859142272862,0.0
3273,-0.01235800606594766,0.0
3274,-0.055463711578726246,0.0
3275,0.1137314461064857,0.0
3276,0.12444262325853273,0.0
3277,0.01585235233082588,0.0
3278,-0.02385406356014018,0.0
3279,0.09091851377559719,0.0
3280,0.3088863979929257,0.0
3281,4.083656894269054,0.0
3282,6.617520464725556,0.0
3283,-1.15045393941336,0.0
3284,-1.3529008473582713,0.0
3285,1.4279563848251005,0.0
3286,-0.7424326304149552,0.0
3287,0.21753027996794655,0.0
3288,0.08277778722908302,0.0
3289,0.00086348495104073,0.0
3290,-0.08403188346965096,0.0
3291,0.07633160247016986,0.0
3292,-0.006342996080903593,0.0
3293,-0.08647324755380274,0.0
3294,-0.00038200076381916977,0.0
3295,0.05350113138512096,0.0
3296,-0.043829583302706684,0.0
3297,0.03651164166387745,0.0
3298,0.0080806695006751,0.0
3299,0.017374240942690106,0.0
3300,0.49187074925522023,0.0
3301,4.106783724466906,0.0
3302,6.64224871373578,0.0
3303,-1.050918919207332,0.0
3304,-1.315214459563767,0.0
3305,1.3972540989441466,0.0
3306,-0.7106292407104001,0.0
3307,0.25997785107816357,0.0
3308,0.048372123923244914,0.0
3309,-0.04678293375692451,0.0
3310,-0.03757319304774691,0.0
3311,0.05921868819385888,0.0
3312,0.008546136537914195,0.0
3313,0.00988682217768327,0.0
3314,-0.022207765949002346,0.0
3315,-0.015756778945490685,0.0
3316,-0.06928547356085143,0.0
3317,0.060007522890066715,0.0
3318,-0.15347209774614967,0.0
3319,-0.046446036988899195,0.0
3320,0.4391732042066667,0.0
3321,4.059008378541837,0.0
3322,6.4860979724756245,0.0
3323,-1.2068938439239585,0.0
3324,-1.3931228667011042,0.0
3325,1.4068004501760125,0.0
3326,-0.7265997696934657,0.0
3327,0.23709466403054824,0.0
3328,-0.010013721714226327,0.0
3329,-0.02889939002037931,0.0
3330,-0.03694054645282849,0.0
3331,-0.026896155668115117,0.0
3332,-0.02072740959545679,0.0
3333,-0.010866662279049377,0.0
3334,-0.04751162226263864,0.0
3335,0.0053843924819213,0.0
3336,0.06714784777892921,0.0
3337,-0.12479628082548977,0.0
3338,0.07964218263533439,0.0
3339,0.015126580720197074,0.0
3340,0.38006637603914634,0.0
3341,4.084318167110254,0.0
3342,6.53259642144478,0.0
3343,-1.1539630544032047,0.0
3344,-1.3521705898126566,0.0
3345,1.4736466149095826,0.0
3346,-0.795108056225038,0.0
3347,0.2492274230708134,0.0
3348,0.01513694722237022,0.0
3349,-0.05372608874968947,0.0
3350,0.044707117288806726,0.0
3351,0.12720638452879218,0.0
3352,0.05534702121343831,0.0
3353,0.0765864982300748,0.0
3354,-0.003481870166325285,0.0
3355,0.02012307446905678,0.0
3356,0.032814271273733264,0.0
3357,-0.00864831012874772,0.0
3358,0.011575339964346093,0.0
3359,-0.02387778208144469,0.0
3360,0.44788928974059666,0.0
3361,4.06570950210185,0.0
3362,6.685756549768046,0.0
3363,-1.1576105566880106,0.0
3364,-1.4192412773139498,0.0
3365,1.410854882209005,0.0
3366,-0.8322241780976692,0.0
3367,0.12880269566153635,0.0
3368,-0.06452955201987179,0.0
3369,-0.05328699804230175,0.0
3370,0.011959622185864159,0.0
3371,-0.04559648172091214,0.0
3372,0.08339678490161267,0.0
3373,-0.011369838102229688,0.0
3374,0.08022334124439767,0.0
3375,-0.06244350023234272,0.0
3376,-0.02289899921239497,0.0
3377,0.005641820971000539,0.0
3378,-0.03179623917645035,0.0
3379,0.01660463350659224,0.0
3380,0.3787301079657047,0.0
3381,4.04665307947448,0.0
3382,6.586278672427191,0.0
3383,-1.1109458692588179,0.0
3384,-1.4748937622808378,0.0
3385,1.310890848464406,0.0
3386,-0.8202945575571403,0.0
3387,0.274457137775955,0.0
3388,0.04597819673664541,0.0
3389,-0.18114391350349046,0.0
3390,0.03504448852093778,0.0
3391,-0.11219823879965628,0.0
3392,-0.08103606545842804,0.0
3393,-0.12023025874941369,0.0
3394,0.058067784477151746,0.0
3395,-0.11247765682838926,0.0
3396,-0.011491069010501669,0.0
3397,0.029281770198904093,0.0
3398,-0.05527780664736154,0.0
3399,-0.01905213278647687,0.0
3400,0.46189157067581227,0.0
3401,4.046845406270481,0.0
3402,6.559987909036681,0.0
3403,-1.1365221688647633,0.0
3404,-1.4176641153950718,0.0
3405,1.4328712282598115,0.0
3406,-0.7625741884019221,0.0
3407,0.23240225834402,0.0
3408,-0.07965434991706308,0.0
3409,-0.03568077290600223,0.0
3410,-0.07600520758603085,0.0
3411,-0.03721684490973007,0.0
3412,0.06817879871578397,0.0
3413,-0.12539822747349172,0.0
3414,-0.012187139441739651,0.0
3415,-0.00011240763575971063,0.0
3416,0.02714640869495691,0.0
3417,-0.008622327148411074,0.0
3418,-0.06566242014211092,0.0
3419,-0.17034906209564893,0.0
3420,0.3778724468349109,0.0
3421,4.083286067126995,0.0
3422,6.611964226857478,0.0
3423,-1.262324634642993,0.0
3424,-1.4338017851018312,0.0
3425,1.4067834386276972,0.0
3426,-0.8153623668057461,0.0
3427,0.1671542584944612,0.0
3428,0.004318581639576068,0.0
3429,0.004289326147254857,0.0
3430,-0.06945768284418623,0.0
3431,-0.031119145422792226,0.0
3432,-0.054526651081248725,0.0
3433,-0.00010652408064388066,0.0
3434,0.08319941838285617,0.0
3435,-0.045381258586025756,0.0
3436,-0.04332904502393584,0.0
3437,0.01900805203046145,0.0
3438,-0.06478984994415593,0.0
3439,-0.041217490197807655,0.0
3440,0.31084501110072055,0.0
3441,4.061895109367347,0.0
3442,6.555941612825971,0.0
3443,-1.3027839021843597,0.0
3444,-1.4788526890999258,0.0
3445,1.2988584574668365,0.0
3446,-0.8214135495970765,0.0
3447,0.1848610894091726,0.0
3448,-0.05218216692605048,0.0
3449,-0.07722998104793088,0.0
3450,-0.03692325787572795,0.0
3451,-0.11270576536621218,0.0
3452,-0.08609092957076943,0.0
3453,-0.08111839460524528,0.0
3454,-0.07894212699409613,0.0
3455,-0.15241493844985174,0.0
3456,0.03541705461234496,0.0
3457,0.013267255567206593,0.0
3458,0.05845522659164421,0.0
3459,0.09725794637808206,0.0
3460,0.42527997269454876,0.0
3461,4.07944368885866,0.0
3462,6.566267992512476,0.0
3463,-1.2081918040014832,0.0
3464,-1.3998992693335965,0.0
3465,1.45120927373098,0.0
3466,-0.8164125709570845,0.0
3467,0.23065909088510322,0.0
3468,-0.14024643645050633,0.0
3469,-0.04298603960974804,0.0
3470,-0.0010515300092068317,0.0
3471,-0.05300326660304753,0.0
3472,0.03151588581595047,0.0
3473,-0.058043884016809995,0.0
3474,0.0059654277690096985,0.0
3475,-0.10497618410240525,0.0
3476,-0.09949416904234751,0.0
3477,-0.028083771813601922,0.0
3478,-0.015955980347828344,0.0
3479,-0.10041572468319448,0.0
3480,0.35016160978833605,0.0
3481,4.066087405249583,0.0
3482,6.554426451148517,0.0
3483,-1.2460034582374038,0.0
3484,-1.4603033905279255,0.0
3485,1.4134296742225676,0.0
3486,-0.8094297254175179,0.0
3487,0.20775462116686277,0.0
3488,-0.1285476140887059,0.0
3489,-0.015793068598305482,0.0
3490,-0.04868347444520341,0.0
3491,-0.01375805401172532,0.0
3492,-0.03610936711474467,0.0
3493,-0.0617187329827175,0.0
3494,-0.048989225513951073,0.0
3495,-0.06278270151134024,0.0
3496,-0.07486808610870281,0.0
3497,-0.12146646055968115,0.0
3498,0.012546239751603534,0.0
3499,-0.04514231678364999,0.0
3500,0.36782742728430184,0.0
3501,4.117389027899563,0.0
3502,6.636687547726175,0.0
3503,-1.2007535825339328,0.0
3504,-1.3350405504284826,0.0
3505,1.4193348013947253,0.0
3506,-0.8061645031591972,0.0
3507,0.16259943819290149,0.0
3508,0.01030471662119841,0.0
3509,-0.15837394515923725,0.0
3510,-0.006108986789818958,0.0
3511,0.022047798208489622,0.0
3512,0.16630130496453516,0.0
3513,-0.07275193183300181,0.0
3514,0.13217195585419458,0.0
3515,-0.012254363969085436,0.0
3516,0.008918603159824016,0.0
3517,-0.08544402526415994,0.0
3518,0.0020764850742485998,0.0
3519,-0.06939392021646114,0.0
3520,0.36590786861519803,0.0
3521,4.09837426825872,0.0
3522,6.524268791036994,0.0
3523,-1.1829062201941958,0.0
3524,-1.3004489503290257,0.0
3525,1.2221853931138644,0.0
3526,-0.8041428961014109,0.0
3527,0.1367276006037509,0.0
3528,0.014124945079384083,0.0
3529,-0.11085514752647059,0.0
3530,-0.05455841634576369,0.0
3531,-0.0685197031847343,0.0
3532,-0.03737980507446702,0.0
3533,-0.07160461216134102,0.0
3534,0.04889245457961909,0.0
3535,0.013274427411059393,0.0
3536,-0.07184352606976403,0.0
3537,0.04295959136274335,0.0
3538,-0.05034421313084493,0.0
3539,-0.03627167541735279,0.0
3540,0.49382759758342426,0.0
3541,4.10310113890866,0.0
3542,6.560657944989974,0.0
3543,-1.1605127922006635,0.0
3544,-1.281851374175836,0.0
3545,1.3627591658433467,0.0
3546,-0.8085945964040321,0.0
3547,0.2506987690481103,0.0
3548,-0.021465004948360903,0.0
3549,0.019314906293287464,0.0
3550,0.08745065392985349,0.0
3551,0.06572867195035702,0.0
3552,0.023263517700520656,0.0
3553,-0.026075042101570148,0.0
3554,0.0025519947869066216,0.0
3555,-0.07717945026788688,0.0
3556,0.034574497236208354,0.0
3557,-0.11679257490443548,0.0
3558,-0.03861007142636522,0.0
3559,-0.16848410153602092,0.0
3560,0.3815498228800148,0.0
3561,4.070799194048648,0.0
3562,6.524831803980488,0.0
3563,-1.195004013968672,0.0
3564,-1.4613291146726033,0.0
3565,1.2643918748570484,0.0
3566,-0.7969160951833486,0.0
3567,0.23677378523901793,0.0
3568,-0.029027302704947237,0.0
3569,-0.14456728861789386,0.0
3570,-0.06337615759957642,0.0
3571,-0.0640504171919647,0.0
3572,-0.088416780253926,0.0
3573,-0.10344339631315624,0.0
3574,0.07530796424844448,0.0
3575,-0.04773184946824545,0.0
3576,-0.07175511819439653,0.0
3577,-0.004001695211621675,0.0
3578,0.1629232500629581,0.0
3579,-0.052442168946907904,0.0
3580,0.5267173263170732,0.0
3581,4.129655529030432,0.0
3582,6.599205339567448,0.0
3583,-1.1926850391302126,0.0
3584,-1.3294914362712136,0.0
3585,1.391285557614265,0.0
3586,-0.7373815332425893,0.0
3587,0.1755479673172134,0.0
3588,0.0004836019272954524,0.0
3589,-0.10287921615988249,0.0
3590,0.032527422679633,0.0
3591,0.03166759688497949,0.0
3592,0.01919205576431752,0.0
3593,0.011977990774663931,0.0
3594,0.015159856293319944,0.0
3595,-0.007392270445983626,0.0
3596,-0.03607108320352167,0.0
3597,0.017161871883379642,0.0
3598,-0.05904889327272954,0.0
3599,0.13266739329955737,0.0
3600,0.3830362696877959,0.0
3601,4.192855625840517,0.0
3602,6.702407646713851,0.0
3603,-1.1146706059340232,0.0
3604,-1.3605992189091707,0.0
3605,1.3809002400669073,0.0
3606,-0.8139655822171521,0.0
3607,0.13927898922406765,0.0
3608,-0.040235980878971386,0.0
3609,-0.04487293247440739,0.0
3610,-0.03805184295796979,0.0
3611,-0.06598008058875797,0.0
3612,-0.008394432411965294,0.0
3613,0.006746378924208953,0.0
3614,0.07886214524404876,0.0
3615,-0.027493574252994445,0.0
3616,-0.0670680602572292,0.0
3617,-0.000360495463856695,0.0
3618,-0.16418130756817145,0.0
3619,0.07696853530597722,0.0
3620,0.3818937938981399,0.0
3621,4.04185241123912,0.0
3622,6.502086586703139,0.0
3623,-1.1507483246693526,0.0
3624,-1.3828184892724709,0.0
3625,1.3878452879827108,0.0
3626,-0.8136147366423404,0.0
3627,0.28796694369536885,0.0
3628,-0.06905413599976308,0.0
3629,0.04698720703082115,0.0
3630,-0.008291780607813062,0.0
3631,0.029926471237874324,0.0
3632,0.080340759940158,0.0
3633,-0.062409336491850154,0.0
3634,0.00521700496738413,0.0
3635,-0.021254730725617125,0.0
3636,-0.05778129840856171,0.0
3637,0.03138478579717527,0.0
3638,0.024257853057434164,0.0
3639,-0.05020225247214681,0.0
3640,0.3693055856818041,0.0
3641,4.160580738232897,0.0
3642,6.575720296443871,0.0
3643,-1.220461601811475,0.0
3644,-1.2756288039823902,0.0
3645,1.423872773968625,0.0
3646,-0.8495387348488442,0.0
3647,0.267204714483813,0.0
3648,-0.05970857456106664,0.0
3649,0.011338727848273392,0.0
3650,0.06150201446120298,0.0
3651,-0.00936053669990728,0.0
3652,0.061874228854809116,0.0
3653,0.07337325044301382,0.0
3654,0.04022720026846545,0.0
3655,-0.06917476852977396,0.0
3656,0.07889324137836315,0.0
3657,0.03897999486940191,0.0
3658,0.012507190130993858,0.0
3659,0.034473647058609815,0.0
3660,0.37899149495973317,0.0
3661,4.0936977119169615,0.0
3662,6.579789311734894,0.0
3663,-1.1995270715103823,0.0
3664,-1.3461889448437594,0.0
3665,1.4368678457757629,0.0
3666,-0.7798031037656143,0.0
3667,0.197454598208123,0.0
3668,-0.012985419553737804,0.0
3669,0.0163869509897267,0.0
3670,-0.04348227064914549,0.0
3671,0.031596114328444516,0.0
3672,0.02481504384089082,0.0
3673,0.015764217825078003,0.0
3674,0.024950075719599285,0.0
3675,-0.015569983110567035,0.0
3676,-0.07530870148149998,0.0
3677,0.06760739227465139,0.0
3678,0.040130441572050646,0.0
3679,0.08951800045697078,0.0
3680,0.4388369868795465,0.0
3681,4.230294080893113,0.0
3682,6.534044711949424,0.0
3683,-1.1843155459615942,0.0
3684,-1.2091678202549199,0.0
3685,1.4089640317665582,0.0
3686,-0.7630455813022659,0.0
3687,0.2683447217180378,0.0
3688,0.10007603802338969,0.0
3689,0.1284383713193798,0.0
3690,0.1616244648983449,0.0
3691,0.1221184545289857,0.0
3692,0.20044866765549407,0.0
3693,0.15613427818362716,0.0
3694,0.1421686291746883,0.0
3695,0.11549019752133957,0.0
3696,0.15241682926337508,0.0
3697,0.13136547277454808,0.0
3698,0.10702788251332093,0.0
3699,0.017338091623082016,0.0
3700,0.43529056277018763,0.0
3701,4.22656874714134,0.0
3702,6.58954671198303,0.0
3703,-1.1698163258163072,0.0
3704,-1.2281083150191243,0.0
3705,1.3760229920888,0.0
3706,-0.7888695363766023,0.0
3707,0.25136503406038274,0.0
3708,0.013128630572904865,0.0
3709,-0.06801212771587836,0.0
3710,-0.007874370482790327,0.0
3711,0.011866645366348702,0.0
3712,0.03833280803797615,0.0
3713,0.0048205032131630535,0.0
3714,0.061580576802503416,0.0
3715,-0.018051148224168014,0.0
3716,-0.004838480341314816,0.0
3717,0.041545326019514814,0.0
3718,-0.015193404991670524,0.0
3719,0.12043535228781913,0.0
3720,0.40964977204705794,0.0
3721,4.173905764507307,0.0
3722,6.550215903418571,0.0
3723,-1.2687863748759562,0.0
3724,-1.344342123843689,0.0
3725,1.5188588466933668,0.0
3726,-0.6923609576142515,0.0
3727,0.23057530763594025,0.0
3728,0.024423056938831882,0.0
3729,-0.02554320881795542,0.0
3730,0.026344960928240367,0.0
3731,0.02710364921479842,0.0
3732,0.04965807480536164,0.0
3733,0.03568448634271896,0.0
3734,-0.06800036705209855,0.0
3735,0.004925656338506896,0.0
3736,-0.047981054678010476,0.0
3737,0.06240001520763919,0.0
3738,-0.10992918420037162,0.0
3739,0.06480630296125206,0.0
3740,0.4768685536578216,0.0
3741,4.212037827525015,0.0
3742,6.5449910854297135,0.0
3743,-1.38008912061167,0.0
3744,-1.385122957303194,0.0
3745,1.3721211884544136,0.0
3746,-0.7597030777208125,0.0
3747,0.2258393453818717,0.0
3748,-0.05079032434063208,0.0
3749,-0.01564052756945447,0.0
3750,0.09659634803865651,0.0
3751,0.09916021152026708,0.0
3752,0.04445822273449911,0.0
3753,0.10716403750034714,0.0
3754,0.03253176402851658,0.0
3755,0.009590158208421656,0.0
3756,-0.04508933294029743,0.0
3757,0.10499004306132557,0.0
3758,0.07551886657546243,0.0
3759,0.12250804180334054,0.0
3760,0.5243920626396541,0.0
3761,4.1765136476825875,0.0
3762,6.56092786863845,0.0
3763,-1.1376995466512294,0.0
3764,-1.2582251508089488,0.0
3765,1.4093785707840103,0.0
3766,-0.8000678926717651,0.0
3767,0.39852937433559066,0.0
3768,0.02157280513940209,0.0
3769,-0.08756749633499486,0.0
3770,0.05887993876335759,0.0
3771,0.0695850249978589,0.0
3772,-0.016789974623057747,0.0
3773,-0.004181165864235779,0.0
3774,0.03015756093698098,0.0
3775,0.05884990521265161,0.0
3776,-0.0875445248314989,0.0
3777,-0.026176017261787483,0.0
3778,0.05490532948672558,0.0
3779,0.03555271328022713,0.0
3780,0.4580273521260346,0.0
3781,4.204445897736952,0.0
3782,6.4452188758243505,0.0
3783,-1.215294212192121,0.0
3784,-1.3278908574197845,0.0
3785,1.4385357660054208,0.0
3786,-0.7941415908431243,0.0
3787,0.30089829031089793,0.0
3788,0.073049749375362,0.0
3789,0.08728821365697834,0.0
3790,0.10279104893145785,0.0
3791,0.18088293242578657,0.0
3792,0.0350330409462702,0.0
3793,0.08212971858569183,0.0
3794,0.09946750291354936,0.0
3795,0.16384023228684327,0.0
3796,0.07585132798772835,0.0
3797,0.05891292734816928,0.0
3798,0.04795574358441397,0.0
3799,0.0374606886606345,0.0
3800,0.483029434811945,0.0
3801,4.147255661224447,0.0
3802,6.6923286722223825,0.0
3803,-1.2558443418277059,0.0
3804,-1.4293724512993573,0.0
3805,1.4396238291154202,0.0
3806,-0.7482926231884846,0.0
3807,0.21471219160016486,0.0
3808,-0.049105118319517346,0.0
3809,-0.0632870691911897,0.0
3810,-0.028106417680612256,0.0
3811,-0.013516823012910973,0.0
3812,0.034615927590104054,0.0
3813,0.13231688496211788,0.0
3814,0.024734673210594704,0.0
3815,-0.001438096214906287,0.0
3816,-0.03472983085513696,0.0
3817,-0.010066147265829134,0.0
3818,0.020118329998462817,0.0
3819,0.05415583686841584,0.0
3820,0.4589830366090298,0.0
3821,4.2052274887698085,0.0
3822,6.603030485134733,0.0
3823,-1.167862798238864,0.0
3824,-1.3220340503368229,0.0
3825,1.4725557216546736,0.0
3826,-0.7839867358936689,0.0
3827,0.17639455455725406,0.0
3828,-0.03623104855916111,0.0
3829,0.036505366677483914,0.0
3830,0.03667321357380213,0.0
3831,-0.018541940376467815,0.0
3832,-0.06940433191299097,0.0
3833,0.01596490080074585,0.0
3834,-0.05468030010856473,0.0
3835,-0.04124147653456384,0.0
3836,0.0013624201571551392,0.0
3837,0.031866534557144964,0.0
3838,-0.08660370749347476,0.0
3839,-0.010015855660037504,0.0
3840,0.40569393656411934,0.0
3841,4.3049586392680945,0.0
3842,6.656766370344562,0.0
3843,-1.0886865722027625,0.0
3844,-1.24750404261292,0.0
3845,1.5513280971447705,0.0
3846,-0.831783245415611,0.0
3847,0.23980983202540487,0.0
3848,0.01813824082505509,0.0
3849,0.034551374111327235,0.0
3850,0.15207054687690785,0.0
3851,0.0096741072426409,0.0
3852,-0.02814107235564959,0.0
3853,0.03068058953034655,0.0
3854,0.017821318775310787,0.0
3855,0.048081846231341,0.0
3856,0.04538996379360907,0.0
3857,0.011014559910697282,0.0
3858,0.05316919928935279,0.0
3859,-0.052761789329807705,0.0
3860,0.4826198487035857,0.0
3861,4.253136361320618,0.0
3862,6.610089190858062,0.0
3863,-1.2252945793143717,0.0
3864,-1.2495345441478527,0.0
3865,1.4775056052032542,0.0
3866,-0.7157414967380282,0.0
3867,0.2522652928501835,0.0
3868,0.014669473584023464,0.0
3869,0.0333164800958966,0.0
3870,0.017322818133171526,0.0
3871,-0.026235507497165154,0.0
3872,-0.001509323669037714,0.0
3873,0.022672443258384207,0.0
3874,-0.013865735685825123,0.0
3875,0.007739851103065715,0.0
3876,-0.02996827169974558,0.0
3877,-0.01981247882459265,0.0
3878,-0.05692019729018644,0.0
3879,-0.03020260575316866,0.0
3880,0.3242991039348466,0.0
3881,4.142548725666222,0.0
3882,6.372104922940629,0.0
3883,-1.2887799930922716,0.0
3884,-1.406750007267433,0.0
3885,1.4057274982520966,0.0
3886,-0.8076129124629862,0.0
3887,0.16561291180019672,0.0
3888,-0.04906175976003613,0.0
3889,-0.04095333821920036,0.0
3890,0.045181647929208764,0.0
3891,0.010327560494569014,0.0
3892,-0.06401181607546444,0.0
3893,-0.031054273430198384,0.0
3894,0.0330555420064353,0.0
3895,0.046850799918549915,0.0
3896,-0.004829227056331554,0.0
3897,-0.03080709441364556,0.0
3898,-0.01154220779459695,0.0
3899,-0.11966961124985025,0.0
3900,0.41488497670457825,0.0
3901,4.214337490512177,0.0
3902,6.590355560677311,0.0
3903,-1.3140183581883007,0.0
3904,-1.2312959879887497,0.0
3905,1.3620292102241431,0.0
3906,-0.7481961760407765,0.0
3907,0.2275281153506341,0.0
3908,-0.08827747283795082,0.0
3909,-0.03090164936782342,0.0
3910,-0.015403920271131796,0.0
3911,0.017067268297107092,0.0
3912,0.01564362977599485,0.0
3913,-0.1052625626351824,0.0
3914,0.05136661401032124,0.0
3915,0.02695506677848565,0.0
3916,0.018104547905986604,0.0
3917,0.05666056461797906,0.0
3918,0.009319973257852,0.0
3919,0.05686458137925636,0.0
3920,0.43035150503058783,0.0
3921,4.284087072545753,0.0
3922,6.4915402126541135,0.0
3923,-1.3091341737916633,0.0
3924,-1.3233432625478923,0.0
3925,1.443370861891422,0.0
3926,-0.781807555109755,0.0
3927,0.27460247875690114,0.0
3928,-0.030654583880150334,0.0
3929,0.015780117992246816,0.0
3930,0.04390134970228411,0.0
3931,0.01257194441241969,0.0
3932,0.0839523163279828,0.0
3933,0.0006252977068757232,0.0
3934,-0.11078949172519144,0.0
3935,-0.059655513747949085,0.0
3936,0.0997102879949432,0.0
3937,0.11415367911298782,0.0
3938,0.00534032621391246,0.0
3939,0.021281210402609732,0.0
3940,0.4714904219752106,0.0
3941,4.1068293575952195,0.0
3942,6.480929847705256,0.0
3943,-1.2213312016693931,0.0
3944,-1.3234732660498887,0.0
3945,1.4712256113997533,0.0
3946,-0.7817467910928954,0.0
3947,0.28727636351383523,0.0
3948,0.029126604197295056,0.0
3949,0.1579695791211309,0.0
3950,0.04454633352745689,0.0
3951,0.09063037269582883,0.0
3952,0.08363449700788941,0.0
3953,0.0883080097855296,0.0
3954,0.09906436413589156,0.0
3955,0.02702564164859896,0.0
3956,0.10522084489340526,0.0
3957,0.07364863168491265,0.0
3958,0.10022069989337656,0.0
3959,0.028918773641760147,0.0
3960,0.5154981847338924,0.0
3961,4.190756460158806,0.0
3962,6.526768016009933,0.0
3963,-1.279511359480329,0.0
3964,-1.3110046801706847,0.0
3965,1.3862778191452587,0.0
3966,-0.7154303005915875,0.0
3967,0.2695562142499205,0.0
3968,-0.0068046536602564146,0.0
3969,-0.05489244435036084,0.0
3970,0.0327683860775191,0.0
3971,0.026291258804704294,0.0
3972,-0.0127212363783757,0.0
3973,0.01854880638587542,0.0
3974,0.003907479968138922,0.0
3975,-0.04473710573076904,0.0
3976,0.005850047737426253,0.0
3977,0.020172165046421952,0.0
3978,0.04451906753456571,0.0
3979,-0.032232213263757886,0.0
3980,0.4461474411629348,0.0
3981,4.198663454838416,0.0
3982,6.558745126490558,0.0
3983,-1.321312990649147,0.0
3984,-1.2658808715053858,0.0
3985,1.2960961598395582,0.0
3986,-0.7793220457422169,0.0
3987,0.3264587963940214,0.0
3988,-0.015693886332539757,0.0
3989,0.021578258426736552,0.0
3990,0.045528356547464184,0.0
3991,0.018675989376500765,0.0
3992,0.06869552290787807,0.0
3993,0.01918524915268998,0.0
3994,0.0006324985978830369,0.0
3995,0.027325240652084942,0.0
3996,0.10630338637559889,0.0
3997,-0.0020950348566880495,0.0
3998,0.05592361315567156,0.0
3999,0.006742719970130741,0.0
4000,0.5469074344197529,0.0
4001,4.263109666415609,0.0
4002,6.585515024119042,0.0
4003,-1.3412091433073543,0.0
4004,-1.2535738620732835,0.0
4005,1.3423832659567025,0.0
4006,-0.7051331734512949,0.0
4007,0.3689381180954476,0.0
4008,0.08528109783697034,0.0
4009,0.0218413070122552,0.0
4010,0.06569509852007312,0.0
4011,0.08992383370872295,0.0
4012,-0.015044020895813817,0.0
4013,-0.022952084111251256,0.0
4014,-0.0087363658951789,0.0
4015,0.07610879750133975,0.0
4016,0.13335335361889772,0.0
4017,0.021894545508718957,0.0
4018,-0.01385507114434676,0.0
4019,-0.027918827918162484,0.0
4020,0.4531742518005299,0.0
4021,4.31197643437439,0.0
4022,6.606196113426824,0.0
4023,-1.2258042288329096,0.0
4024,-1.2986373079376892,0.0
4025,1.3937085353816272,0.0
4026,-0.7121418964327716,0.0
4027,0.39182479876043763,0.0
4028,0.03983919780319126,0.0
4029,0.035776224248750814,0.0
4030,0.018752952030767017,0.0
4031,0.030892374032741546,0.0
4032,0.1267807235089242,0.0
4033,0.07656046672423747,0.0
4034,0.12474602299560503,0.0
4035,0.08150738967743495,0.0
4036,0.10264609622350267,0.0
4037,0.028092858443657644,0.0
4038,-0.004650721912964811,0.0
4039,0.1164564546010259,0.0
4040,0.5120242991264575,0.0
4041,4.335057309451258,0.0
4042,6.566512057088468,0.0
4043,-1.187454635817454,0.0
4044,-1.2570800034437601,0.0
4045,1.5096748312309334,0.0
4046,-0.726243911996624,0.0
4047,0.25923641046038676,0.0
4048,0.04566195745126385,0.0
4049,-0.035047471448247644,0.0
4050,0.08803678727236905,0.0
4051,0.0698843316838805,0.0
4052,0.07657357722493677,0.0
4053,0.07824727131463086,0.0
4054,0.06775892975241116,0.0
4055,0.02558711054298922,0.0
4056,0.14285045914584885,0.0
4057,0.05538343650057624,0.0
4058,0.09850933364109425,0.0
4059,0.02847459414118842,0.0
4060,0.4980680180658961,0.0
4061,4.3183308895578145,0.0
4062,6.526707933738722,0.0
4063,-1.2346875345290613,0.0
4064,-1.183140486386891,0.0
4065,1.3287693323600644,0.0
4066,-0.7945753599406705,0.0
4067,0.3348476078758853,0.0
4068,0.0443757189726108,0.0
4069,0.024143146363266556,0.0
4070,0.15921458461405869,0.0
4071,0.043798194823623335,0.0
4072,0.05363863651654019,0.0
4073,0.08228264328045487,0.0
4074,0.03585354898340352,0.0
4075,-0.08127107914772481,0.0
4076,-0.05241713237121831,0.0
4077,0.007805521197599495,0.0
4078,0.06470382967495014,0.0
4079,-0.001882285063257924,0.0
4080,0.5300549057826746,0.0
4081,4.3621963965266755,0.0
4082,6.4701966073239445,0.0
4083,-1.244028470070509,0.0
4084,-1.1235712873115486,0.0
4085,1.388881354559271,0.0
4086,-0.6527092817328122,0.0
4087,0.299660658490866,0.0
4088,-0.03500333924346304,0.0
4089,0.027705914576441695,0.0
4090,0.005010311810495292,0.0
4091,0.15371969353097342,0.0
4092,0.0812091854253542,0.0
4093,-0.0016780773516206979,0.0
4094,0.14115597787561798,0.0
4095,0.07134800764148601,0.0
4096,0.06771837833034165,0.0
4097,0.0618593926600209,0.0
4098,0.1316639140675654,0.0
4099,0.08860519490729747,0.0
4100,0.4977377380302993,0.0
4101,4.292414462097744,0.0
4102,6.614458539412302,0.0
4103,-1.2995122644273494,0.0
4104,-1.1874319870594658,0.0
4105,1.5166765579901824,0.0
4106,-0.7110526185175212,0.0
4107,0.2866086225759924,0.0
4108,0.09805809559296985,0.0
4109,0.06364360039989068,0.0
4110,0.10603879945036167,0.0
4111,0.0036637966336804453,0.0
4112,0.07506922679673526,0.0
4113,0.030805667844053367,0.0
4114,0.03494647513209785,0.0
4115,0.04095800834493604,0.0
4116,-0.04942926865816118,0.0
4117,-0.0729946258819286,0.0
4118,0.06707703090642501,0.0
4119,-0.018400676888029967,0.0
4120,0.48248151480278584,0.0
4121,4.341882957089529,0.0
4122,6.535247279203767,0.0
4123,-1.4078706673881427,0.0
4124,-1.1715712824301698,0.0
4125,1.4367215795803259,0.0
4126,-0.7040680952092321,0.0
4127,0.25592070853410304,0.0
4128,0.016114469858340866,0.0
4129,-0.006837756418333712,0.0
4130,0.10456361147747441,0.0
4131,0.09508010146227386,0.0
4132,-0.004290667966545779,0.0
4133,0.07731713360117051,0.0
4134,0.04158406850076658,0.0
4135,0.023645510822289006,0.0
4136,0.12085624402816178,0.0
4137,0.03494572926647489,0.0
4138,0.028768254768821052,0.0
4139,0.14574971107121487,0.0
4140,0.5866881536151325,0.0
4141,4.342263696612336,0.0
4142,6.477464214824515,0.0
4143,-1.321635485733623,0.0
