timestamp,value-0,is_anomaly
0,0.2839362769879175,0
1,3.5779733910339417,0
2,6.853973446708808,0
3,-0.2846232406701143,0
4,-1.9041055205067803,0
5,1.54048498612168,0
6,-0.6494319203861937,0
7,0.1328069187944974,0
8,-0.006736249872502251,0
9,-0.024065693962022357,0
10,-0.03431762494086894,0
11,0.05156184452168132,0
12,-0.11270266813836119,0
13,0.10116296064529903,0
14,-0.02134036470177144,0
15,-0.05033324023695283,0
16,0.05143175987961618,0
17,0.02926916495981941,0
18,0.04322698551426946,0
19,0.06575675282629134,0
20,0.31659164079270824,0
21,3.496067860195847,0
22,6.871805378000186,0
23,-0.27462038469423433,0
24,-1.888352215035643,0
25,1.6207332371215,0
26,-0.6696770570758704,0
27,0.12030184132347982,0
28,0.08358953385804174,0
29,0.04026939334631067,0
30,0.06771111635286371,0
31,0.014853872424930102,0
32,0.061105889541843636,0
33,0.03974674035786128,0
34,0.02929795438535704,0
35,-0.02873407075093327,0
36,0.09853901463828747,0
37,0.12885439622785097,0
38,-0.014243802352314157,0
39,0.05980557259270755,0
40,0.2850901887866234,0
41,3.5277396451961662,0
42,6.967410159802809,0
43,-0.2057482579877063,0
44,-1.903533316936274,0
45,1.535466500679546,0
46,-0.6991730710565469,0
47,0.2387524952071569,0
48,0.07339208540003757,0
49,-0.06310961610423091,0
50,0.1580630307471064,0
51,-0.008513380845365424,0
52,0.08181639633789983,0
53,0.030979102040056154,0
54,0.03747355538202971,0
55,0.06862409559716379,0
56,-0.01575507992836858,0
57,-0.05275004025187789,0
58,0.11936430745432249,0
59,-0.03720298553567497,0
60,0.34568606671260166,0
61,3.5488727073887927,0
62,6.973224174602302,0
63,-0.22850079017386282,0
64,-1.8999275475610002,0
65,1.545205849515921,0
66,-0.69411668649792,0
67,0.01099291950928602,0
68,0.1277318641551911,0
69,0.06492238793333882,0
70,0.06971602764704529,0
71,-0.05136696214102483,0
72,-0.0703114495874234,0
73,0.021376119935359362,0
74,0.03416003571993289,0
75,-0.027381137104058297,0
76,-0.1392077638197668,0
77,0.0450012541934723,0
78,-0.02703499337376119,0
79,0.06493438705417426,0
80,0.2672654283086343,0
81,3.5213945233795303,0
82,6.875482088469531,0
83,-0.29820517691007803,0
84,-2.0420269600585828,0
85,1.61534069922521,0
86,-0.6635754797252279,0
87,0.1688623526535753,0
88,-0.010824907870248014,0
89,-0.03814828699856902,0
90,0.002946339980462547,0
91,-0.028647052868345728,0
92,-0.010290482669921084,0
93,0.0009815493664274075,0
94,-0.02474253302879687,0
95,-0.008341849056144865,0
96,0.01247992778959949,0
97,0.01695771293645302,0
98,0.06516298209407073,0
99,0.03176616944781238,0
100,0.35003891253361163,0
101,3.4968799252157092,0
102,6.975008897996618,0
103,-0.24970517327814745,0
104,-1.9911889692007638,0
105,1.555239566375369,0
106,-0.7291965282972095,0
107,0.17385683608916339,0
108,0.13312901603239893,0
109,-0.03929193365342715,0
110,0.07554792213543794,0
111,0.04408968558880264,0
112,0.03933402698683995,0
113,-0.004291285794610885,0
114,-0.09183056319497909,0
115,0.011264780399634728,0
116,-0.0030425260930777897,0
117,-0.006028565491818488,0
118,-0.0381082682200592,0
119,0.030935232578321235,0
120,0.2447268884362776,0
121,3.378643147875493,0
122,6.9064327983854055,0
123,-0.27337311916386287,0
124,-2.0228330363516913,0
125,1.5489921478354045,0
126,-0.7965152838533995,0
127,0.10444518061411406,0
128,0.03266907059980744,0
129,-0.07020138352376734,0
130,0.003678173331032264,0
131,-0.013814450772612154,0
132,0.06592527156397802,0
133,0.09630667922472408,0
134,0.1023683722605497,0
135,0.016473892330464295,0
136,0.09878417871895745,0
137,0.03149688388314745,0
138,0.0809295544756647,0
139,0.0669685394885377,0
140,0.2522073351493969,0
141,3.510010631688672,0
142,6.906797022091105,0
143,-0.2216896320903146,0
144,-1.9558674926746276,0
145,1.5958873579161388,0
146,-0.6949389088375423,0
147,0.11009297959248436,0
148,0.04207985957353103,0
149,-0.06552067619370269,0
150,0.047124657103997165,0
151,0.021272846690035374,0
152,0.018017106497058632,0
153,-0.035103282431917654,0
154,0.02411229343432142,0
155,-0.011880962552565382,0
156,-0.024221825781849123,0
157,0.008247199507053743,0
158,0.016009970217552724,0
159,-0.03719861730165512,0
160,0.3637191304854077,0
161,3.488083877742734,0
162,6.898552706969411,0
163,-0.28003540591370535,0
164,-1.9950523926435242,0
165,1.4318229388476829,0
166,-0.683117051649988,0
167,0.12475989158743139,0
168,0.02894130802298444,0
169,-0.009625285051993115,0
170,-0.05503831575391148,0
171,-0.03268756859513292,0
172,-0.03211226663916473,0
173,-0.05124477173963961,0
174,-0.009794934091828874,0
175,-0.03815944108832362,0
176,-0.038147827467900935,0
177,-0.01612989174301233,0
178,-0.002403684907021175,0
179,0.026701157816162478,0
180,0.3228426434852473,0
181,3.483257273777938,0
182,6.942638197171015,0
183,-0.37145044483516315,0
184,-1.9442804263278242,0
185,1.4757735575891222,0
186,-0.7684703364949368,0
187,0.1484518164777844,0
188,0.09081676293469063,0
189,-0.1337426065720266,0
190,-0.017181731396086905,0
191,-0.018010363472661495,0
192,-0.13190067215018553,0
193,-0.05729943414895884,0
194,-0.02852139911464403,0
195,0.03616412941333415,0
196,-0.027136868058825783,0
197,-0.03649723133329288,0
198,-0.07421228496787877,0
199,0.05757387340281477,0
200,0.19615813005875882,0
201,3.566160134242562,0
202,6.788024636115482,0
203,-0.31170763692991027,0
204,-1.8892202407823537,0
205,1.5799767152804212,0
206,-0.6378519138000714,0
207,0.07401269013389283,0
208,0.05003930029742762,0
209,-0.16446915402442583,0
210,0.0322311331503535,0
211,0.037750595363267886,0
212,0.06884439449802716,0
213,-0.08143991379577267,0
214,0.06826714567869116,0
215,0.09519198237261801,0
216,0.039747301670743404,0
217,-0.013990489756010591,0
218,-0.10275818753540335,0
219,0.027110000829711507,0
220,0.3716777715676131,0
221,3.490466655009403,0
222,6.808862135340036,0
223,-0.3236994428650738,0
224,-1.927787415725587,0
225,1.6273828800904058,0
226,-0.6954213163923532,0
227,0.1226095385842094,0
228,0.01751255880210952,0
229,-0.11174158287863012,0
230,0.07731774330013248,0
231,-0.02841514817301704,0
232,0.011573629921734194,0
233,0.0012844826142955805,0
234,-0.01600809846719657,0
235,0.04650679170851621,0
236,-0.04530475690221505,0
237,0.08294324484328305,0
238,-0.0375814558075393,0
239,-0.021470010119789832,0
240,0.26373717549086245,0
241,3.5296612024297396,0
242,6.880959951719325,0
243,-0.3424378128400957,0
244,-1.9303978406958673,0
245,1.5294267580651213,0
246,-0.7860152417355626,0
247,-0.01666967446734914,0
248,-0.023392330455266466,0
249,-0.039432935918554915,0
250,0.011461088789732508,0
251,-0.015902559952450417,0
252,-0.08386975515793417,0
253,0.1078557371352525,0
254,-0.0020750390354440876,0
255,0.012171916916764938,0
256,0.05113732673673818,0
257,0.04809270812705217,0
258,0.07560415241982837,0
259,0.07367994264969088,0
260,0.35689736809575895,0
261,3.636794448394515,0
262,6.913914177062503,0
263,-0.2764637929281454,0
264,-1.851363858311204,0
265,1.5980369781801573,0
266,-0.7465986954857673,0
267,0.19408157900249487,0
268,0.02090544844426561,0
269,0.042629031095112624,0
270,-0.033027141021657255,0
271,0.024667641375112702,0
272,0.009622597362320877,0
273,-0.05211739242180713,0
274,0.02455982478947132,0
275,0.05257080749135164,0
276,-0.06848051026830457,0
277,-0.056622533802471786,0
278,0.005190999480585268,0
279,-0.025512887209823427,0
280,0.2859423312510064,0
281,3.5644360116784157,0
282,6.784771352736676,0
283,-0.3441522523483318,0
284,-2.0300086184117854,0
285,1.6048603613963748,0
286,-0.7931302769970656,0
287,0.08083292626183075,0
288,0.024116802069318273,0
289,-0.043307900903343174,0
290,0.11312332325684,0
291,-0.06370777938272577,0
292,0.015041029343420942,0
293,0.06453547579389503,0
294,0.07511827553280331,0
295,0.011851393306746179,0
296,0.0594199545843156,0
297,0.05982642798301275,0
298,-0.017152821883774205,0
299,-0.09687445666181706,0
300,0.2652088305337294,0
301,3.6760337050909317,0
302,6.875146663093907,0
303,-0.24057440154026757,0
304,-1.8937284758810644,0
305,1.6062249371780746,0
306,-0.668551459451384,0
307,0.09321826432570818,0
308,-0.01099618726451939,0
309,-0.08768392425278983,0
310,0.007595963860330408,0
311,0.029071575063824344,0
312,-0.030391246955499295,0
313,-0.004159013296172062,0
314,0.02858130497698957,0
315,-0.059239039518500396,0
316,0.029618646206517017,0
317,0.015317858194814928,0
318,-0.030691036549405453,0
319,-0.013018981832335002,0
320,0.17599755131707545,0
321,3.464609662488691,0
322,6.80115434317055,0
323,-0.34902414361213197,0
324,-2.021833114876106,0
325,1.5431700711037406,0
326,-0.7342483479818476,0
327,0.18383257905140657,0
328,0.013314062544587826,0
329,-8.277104812742797e-06,0
330,0.053382849865799775,0
331,0.0013983615515535779,0
332,0.06477591272717234,0
333,0.004821724467038206,0
334,0.0012640168460300322,0
335,0.025503895984879475,0
336,0.038625904046226726,0
337,0.054025126826391906,0
338,0.13267617816297333,0
339,-0.0366222037711566,0
340,0.3049014378018561,0
341,3.5652192569713894,0
342,6.907742682617334,0
343,-0.4286999583001538,0
344,-1.8741913350500834,0
345,1.4697317181044829,0
346,-0.748316944910632,0
347,0.18161327408015243,0
348,0.08653982188258919,0
349,-0.0526690846740466,0
350,0.05010797383927948,0
351,0.03197195367334899,0
352,-0.002354015702987943,0
353,0.050838105143442856,0
354,-0.04714414109932494,0
355,0.004001859156219981,0
356,-0.027661559207579206,0
357,0.008943960257647536,0
358,0.014959389836038471,0
359,6.659216908707494e-05,0
360,0.18126532995210726,0
361,3.5630871234880255,0
362,6.859216067748012,0
363,-0.37311224011248106,0
364,-1.9356574473772563,0
365,1.504042054966567,0
366,-0.8195523169924258,0
367,0.12070807182174836,0
368,-0.03663069400221536,0
369,-0.10966051444994293,0
370,0.0007459974130190998,0
371,-0.008367170018671839,0
372,-0.03860293872577809,0
373,-0.053803010705392354,0
374,-0.04458744492004458,0
375,0.006360413315440794,0
376,-0.09448328531713607,0
377,-0.07780623394507034,0
378,0.03191984391775098,0
379,-0.029109851428045008,0
380,0.24522726377871157,0
381,3.60302361579381,0
382,6.810206869356768,0
383,-0.3351569158737589,0
384,-2.0264777691390883,0
385,1.4915676940197171,0
386,-0.8040440011653838,0
387,0.12992742778851865,0
388,-0.021393851392307216,0
389,-0.12313764406427359,0
390,-0.11587414892488768,0
391,-0.02868817105672985,0
392,-0.00614093900778713,0
393,-0.09545788938874963,0
394,-0.08771646127846654,0
395,-0.0558867244820361,0
396,0.03078305421092803,0
397,-0.09905841294572082,0
398,-0.004439357388711797,0
399,-0.0428964542240551,0
400,0.28148597341228343,0
401,3.525878347850843,0
402,6.905208442969304,0
403,-0.4440276739767323,0
404,-1.9937485267529127,0
405,1.5483559073214734,0
406,-0.7165584200463148,0
407,0.08725962656081421,0
408,-0.08513844973430955,0
409,-0.06956076699407734,0
410,-0.006379803492407719,0
411,-0.059735564371548686,0
412,-0.07063385887461092,0
413,0.008213670365775886,0
414,0.008718136796475005,0
415,0.046385644388158925,0
416,-0.024261914325413483,0
417,0.013882972433531954,0
418,0.01273198844275889,0
419,0.018195760159931886,0
420,0.3208168959274647,0
421,3.6347560438936237,0
422,6.928743021088371,0
423,-0.3501855189319632,0
424,-1.8436309639319548,0
425,1.6232143110977957,0
426,-0.7249995147399356,0
427,0.08468456271689578,0
428,-0.01772695988646875,0
429,-0.058173229453463676,0
430,0.04889336803686978,0
431,-0.02306163236164378,0
432,-0.0641216235876915,0
433,-0.01897680501797023,0
434,0.014871183224507114,0
435,0.04198628593442945,0
436,-0.0002178097982260263,0
437,0.015305383668353736,0
438,0.007105529097330265,0
439,-0.05059436654742593,0
440,0.3426472766058524,0
441,3.7010929866598397,0
442,6.869240328689462,0
443,-0.3316421286404303,0
444,-1.8687118462444148,0
445,1.5350804612313738,0
446,-0.6638487063072076,0
447,0.1440196373148676,0
448,-0.04027939050557693,0
449,-0.05296491436055085,0
450,0.06722652838886027,0
451,0.05079522739899671,0
452,-0.02970758119833025,0
453,0.04801093680449424,0
454,0.09111567384562735,0
455,0.07226255672769667,0
456,0.0387592450933951,0
457,0.11800987351127278,0
458,0.17779070947659392,0
459,0.05860929607118576,0
460,0.38548259388926887,0
461,3.6998600240179664,0
462,6.911144583750587,0
463,-0.23820958992088806,0
464,-1.7749907128957596,0
465,1.5824543588448676,0
466,-0.6085141384398084,0
467,0.15266917578210942,0
468,0.14956876340719363,0
469,-0.06740715512033585,0
470,0.023720225719993007,0
471,0.08720243882023128,0
472,0.09569735758979665,0
473,-4.2089310677798086e-05,0
474,-0.0634683532991036,0
475,0.0037062630977492475,0
476,0.10536554795942918,0
477,0.040962606829052166,0
478,-0.020126640941421033,0
479,0.07621552361638428,0
480,0.311902674053693,0
481,3.7059269358625095,0
482,6.933792205317395,0
483,-0.39623836649932187,0
484,-1.8163718996363496,0
485,1.6047235285605268,0
486,-0.6339406195345161,0
487,0.21951405526550713,0
488,0.18876005336352608,0
489,-0.08772808263413985,0
490,0.04808528003005626,0
491,0.061197847617146514,0
492,-0.008316057831616833,0
493,0.04702592545776736,0
494,0.11275012123028022,0
495,0.060567676332073196,0
496,-0.03944218387000537,0
497,0.008324407106980836,0
498,0.07118117269604914,0
499,0.0305627753751147,0
500,0.3451923061401578,0
501,3.6172577284785623,0
502,6.852453940331745,0
503,-0.4055603177968558,0
504,-1.8206983486426926,0
505,1.4978449211109244,0
506,-0.7333368209413277,0
507,0.14460700582350472,0
508,0.031877849730519846,0
509,-0.08201053364810054,0
510,-0.022894902440709162,0
511,-0.014143316072513495,0
512,0.004627742772998551,0
513,0.0798584253269285,0
514,0.1467799056912894,0
515,0.025914304483269618,0
516,0.06853511030374587,0
517,0.02006478507610516,0
518,0.029048695692435317,0
519,0.1003225034317104,0
520,0.28296248953983494,0
521,3.5978981491546205,0
522,6.875808008987884,0
523,-0.3547488123880147,0
524,-1.7369234063544743,0
525,1.5749138336756645,0
526,-0.769206277875803,0
527,0.11566843329622559,0
528,0.03650245229448452,0
529,-0.03899137949822563,0
530,-0.04512632738820668,0
531,-0.028037507415561692,0
532,0.034193770816826945,0
533,0.009472974725311422,0
534,-0.03328274827512086,0
535,-0.04008624906970609,0
536,0.023966468825292755,0
537,0.05632800430562431,0
538,0.08236723314696007,0
539,0.03835755174533833,0
540,0.18608115391309102,0
541,3.628761342812722,0
542,6.82638015395526,0
543,-0.4078628250571306,0
544,-1.8833466114721595,0
545,1.44030102324774,0
546,-0.676493932374536,0
547,0.14768710180107422,0
548,0.08106808314139627,0
549,0.03292954204189606,0
550,0.049498489166651435,0
551,0.0010545852191877446,0
552,0.009665079946502078,0
553,0.06272713590394544,0
554,-0.04521581405101028,0
555,0.04867489352609615,0
556,0.027363930138190336,0
557,0.0024002335236989105,0
558,0.02407426805982637,0
559,-0.055961976794539424,0
560,0.31281212706876155,0
561,3.5728607305974602,0
562,6.827980078348252,0
563,-0.4221053119924126,0
564,-1.9318862665426249,0
565,1.5447107869112455,0
566,-0.8522501058337473,0
567,0.09874519794085794,0
568,-0.0041846171808702405,0
569,-0.06521476446019144,0
570,-0.07302854143682314,0
571,0.0022075594756843855,0
572,-0.03928805241954589,0
573,-0.06977711935071608,0
574,-0.03561740384140029,0
575,-0.1522230836720778,0
576,0.01306672091780535,0
577,-0.0311216513441755,0
578,0.016426398802887633,0
579,0.04823083595246677,0
580,0.20810171013470258,0
581,3.5139983204531764,0
582,6.88888704206312,0
583,-0.4435266159071749,0
584,-2.0268101361469855,0
585,1.4912571650372155,0
586,-0.7865619282343538,0
587,0.19455329924827305,0
588,-0.04081683717917455,0
589,-0.12502197938441753,0
590,-0.048960752763468764,0
591,-0.03942669607443989,0
592,-0.0178003073056789,0
593,0.0059038049691684386,0
594,-0.08681549997657359,0
595,-0.1303327483694542,0
596,-0.0883387873411332,0
597,-0.03664023574603614,0
598,-0.06508894496352283,0
599,0.04710211567973178,0
600,0.21794068394230287,0
601,3.593979786275215,0
602,6.841027119171729,0
603,-0.45972730491760344,0
604,-1.9291089613786931,0
605,1.5545483873912744,0
606,-0.7299464275098791,0
607,0.04369194359188923,0
608,0.034883554688367735,0
609,-0.014203930663905517,0
610,0.027241609841942717,0
611,-0.09520360497626594,0
612,-0.086901806020172,0
613,-0.11703995664989725,0
614,-0.1400401576023087,0
615,-0.07817422758112269,0
616,-0.0618880532625631,0
617,-0.1544038196284581,0
618,-0.06180574421299005,0
619,-0.02327596112855286,0
620,0.29310101880997597,0
621,3.5469718191330784,0
622,6.668429948205258,0
623,-0.5392860812508151,0
624,-1.9121940960365063,0
625,1.5359532009118282,0
626,-0.7476305424051878,0
627,0.1305562859789572,0
628,-0.08878072469341491,0
629,-0.0009578400617571148,0
630,-0.06551054634535917,0
631,-0.007770099775784238,0
632,0.011711124656327558,0
633,-0.02099628193394787,0
634,-0.1273605257485071,0
635,-0.1692792841963351,0
636,-0.016790970322546755,0
637,-0.05106390176223073,0
638,-0.049491392128623794,0
639,-0.0767929031271645,0
640,0.2362187586461317,0
641,3.513946050702369,0
642,6.806787615762415,0
643,-0.42211065142662896,0
644,-1.901577958122073,0
645,1.5454421532448628,0
646,-0.8163175926364028,0
647,0.09023766392896795,0
648,-0.01551908944814527,0
649,-0.09772804682686964,0
650,0.01183619758494335,0
651,-0.05824597222652527,0
652,-0.0848193025427867,0
653,-0.053557478424416716,0
654,-0.11877629850358769,0
655,-0.026710124294111452,0
656,-0.11762925424629861,0
657,-0.07239070218246195,0
658,0.0005662086405134742,0
659,-0.08486499278968529,0
660,0.29710383536100693,0
661,3.609914413005762,0
662,6.791525627474013,0
663,-0.5069252066234033,0
664,-1.8503222575719023,0
665,1.5648100050891485,0
666,-0.6771936331505231,0
667,0.23458621422212197,0
668,0.06614640621977003,0
669,0.00859469631668244,0
670,0.05222349657704234,0
671,-0.017207537915169727,0
672,-0.006047780626146328,0
673,0.05380370886072986,0
674,0.021708798428052033,0
675,0.015261189333506679,0
676,-0.07049302276591034,0
677,0.050235738712916055,0
678,-0.07769217917569719,0
679,-0.035052207562257555,0
680,0.25422610963956593,0
681,3.5141441180099937,0
682,6.756743369347988,0
683,-0.5474031069512018,0
684,-1.9245708536325827,0
685,1.5288563212291373,0
686,-0.7938969848151738,0
687,0.058994901733861294,0
688,-0.09740580136081742,0
689,-0.06706495977824756,0
690,0.04872522715437899,0
691,-0.019374124776206064,0
692,-0.014839163563584834,0
693,-0.08366507687317822,0
694,0.01120159786790812,0
695,0.02786599289109086,0
696,-0.03681112003656077,0
697,0.014411244149026031,0
698,-0.04161823693250198,0
699,-0.10234457773815181,0
700,0.2084534362172815,0
701,3.6677106113563256,0
702,6.818897415128694,0
703,-0.4777592989273723,0
704,-1.8876757693072452,0
705,1.4998796368329783,0
706,-0.6986573228317429,0
707,0.10133036681525211,0
708,-0.12932525514348986,0
709,-0.09725968863650132,0
710,-0.07605404558079645,0
711,0.037169570344143435,0
712,0.0029435936376924626,0
713,0.006017454400745064,0
714,-0.07125448403722581,0
715,-0.004647708746313307,0
716,-0.04374563417302286,0
717,-0.060185494146306764,0
718,0.07530282635410954,0
719,-0.10267977349322507,0
720,0.2716037871792242,0
721,3.6211997480620215,0
722,6.784150267480597,0
723,-0.44142665608270654,0
724,-1.8651370111416365,0
725,1.5225072266872506,0
726,-0.7496537709217743,0
727,0.22619436338799503,0
728,0.003867565662797001,0
729,-0.05080937513297942,0
730,-0.015073774158290872,0
731,-0.0002459924445291639,0
732,-0.03896361955213929,0
733,-0.025314094181028653,0
734,-0.024092286553691902,0
735,-0.11628537989041848,0
736,-0.11974636527605287,0
737,-0.059861558554502446,0
738,-0.010928821248841819,0
739,-0.017772807111420916,0
740,0.2994463839628499,0
741,3.6675457873469743,0
742,6.920492325528285,0
743,-0.5092822710731761,0
744,-1.8264044462665536,0
745,1.5339081505762944,0
746,-0.7489896707661707,0
747,0.12169488417211442,0
748,0.02169936338284493,0
749,-0.05474339889696195,0
750,-0.029487958296332984,0
751,-0.12236622262025977,0
752,-0.062485046995038894,0
753,-0.07536666623812624,0
754,0.10208664247062033,0
755,0.03071098868256862,0
756,-0.06848829437340542,0
757,-0.08291331571204003,0
758,-0.016864236046346653,0
759,-0.052172610780685746,0
760,0.29073466433333417,0
761,3.57587990349663,0
762,6.754408522023331,0
763,-0.5204140607428135,0
764,-1.847965741172379,0
765,1.5961960925011784,0
766,-0.7722584904402211,0
767,0.14715982900463015,0
768,-0.000656893498578677,0
769,-0.015601867461872226,0
770,0.08034843836450134,0
771,0.02224072098051321,0
772,-0.00655397840216154,0
773,0.012008361137576069,0
774,0.05860245644364789,0
775,-0.05400917961654501,0
776,0.04051883444252444,0
777,-0.0290705135117805,0
778,0.05499729814349133,0
779,-0.03332494653592444,0
780,0.3049129507063978,0
781,3.591071815901604,0
782,6.876928178585683,0
783,-0.4571845332557758,0
784,-1.8344075975508205,0
785,1.4756367548646743,0
786,-0.7080229296557907,0
787,0.11983162064817213,0
788,0.12591712432214827,0
789,0.03493413887704025,0
790,0.04767974389974868,0
791,0.0238611731345625,0
792,-0.0418360694387704,0
793,0.030959842780416316,0
794,-0.03921345220213233,0
795,0.030051411830285563,0
796,0.01831299279913324,0
797,0.002026581957424327,0
798,0.07412488116149929,0
799,0.00937753137710915,0
800,0.3648833077982504,0
801,3.7372821245533485,0
802,6.891816990947313,0
803,-0.349410798415711,0
804,-1.8031803920610872,0
805,1.5496557492686511,0
806,-0.6691458222446658,0
807,0.15830715295763617,0
808,0.14192206599916612,0
809,0.00401579331350492,0
810,0.05053240901113916,0
811,0.07647868991852909,0
812,0.13200810891414183,0
813,0.04226916954659424,0
814,0.05280917645237444,0
815,0.1000952006617181,0
816,0.03197170761356922,0
817,-0.013315715959906691,0
818,-0.0680449477453997,0
819,-0.07667098115276932,0
820,0.24775811388413224,0
821,3.6487495462317505,0
822,6.868119951143688,0
823,-0.5098935401185011,0
824,-1.861554393071872,0
825,1.534973701191826,0
826,-0.7277090513176246,0
827,0.10322864088253925,0
828,0.04063236814727071,0
829,-0.034358262477513966,0
830,0.01721188661699208,0
831,-0.07518995275646734,0
832,0.017044015912323268,0
833,0.06702481807356424,0
834,0.037114294944037916,0
835,0.019393565377093185,0
836,0.013662747749075832,0
837,-0.013102186887009011,0
838,0.015062847114076048,0
839,-0.05263954984821202,0
840,0.2753707672615283,0
841,3.6212757115179697,0
842,6.750697908067532,0
843,-0.4364119235660926,0
844,-1.7526805517945183,0
845,1.4675467731687564,0
846,-0.7311986167245077,0
847,0.09774431678472731,0
848,-0.034726283924173824,0
849,-0.1302240436850409,0
850,-0.003922769726422415,0
851,-0.12383579163911922,0
852,-0.016446959798915417,0
853,-0.06274626833292658,0
854,-0.11469142367112889,0
855,-0.07084230313896311,0
856,-0.05770054108314212,0
857,-0.0798558761337263,0
858,0.0087881268474711,0
859,-0.03688219208811277,0
860,0.20385280205805753,0
861,3.539763602157365,0
862,6.771390582964767,0
863,-0.48713178793594175,0
864,-1.9095682824439135,0
865,1.407096893968864,0
866,-0.8220962099055916,0
867,0.1426319183142948,0
868,-0.004246422508682348,0
869,-0.16533949379717838,0
870,0.04342201996707511,0
871,0.005706911210446643,0
872,-0.00945807689112213,0
873,0.10313941355545958,0
874,0.030566382521358196,0
875,0.02608446100468037,0
876,0.06873454184348166,0
877,0.02172433924391885,0
878,0.06911189471531215,0
879,0.07222841430156715,0
880,0.2902455851972892,0
881,3.734550775238104,0
882,6.855237740403636,0
883,-0.5306476068888495,0
884,-1.756604809087912,0
885,1.5669680103946027,0
886,-0.7517848049583962,0
887,0.14817199988972585,0
888,-0.0336387139372151,0
889,-0.09378406708173546,0
890,-0.03985712183012975,0
891,-0.005995287115888925,0
892,-0.08418405284782333,0
893,-0.029820978553353084,0
894,-0.0483882715858254,0
895,-0.03468215919673433,0
896,-0.024346282908267156,0
897,-0.07239790193726411,0
898,-0.021414181777539447,0
899,-0.04469021165528864,0
900,0.2985616705685889,0
901,3.627704451493203,0
902,6.816802807595477,0
903,-0.4933589451684604,0
904,-1.7354186737549924,0
905,1.592988697639662,0
906,-0.7472352753595153,0
907,0.18325416078057172,0
908,0.061341633612070484,0
909,0.04335465094227181,0
910,0.023910520874680763,0
911,-0.05557815777336376,0
912,-0.04163499995232595,0
913,-0.040191236482552704,0
914,0.07780797912586518,0
915,0.019460544626769674,0
916,-0.06937748269788871,0
917,0.013432758195555448,0
918,0.029552594978469175,0
919,-0.07571353701592612,0
920,0.3364324680036147,0
921,3.6647326902145863,0
922,6.779820651828055,0
923,-0.534939702054604,0
924,-1.8383646418297865,0
925,1.5913833090343432,0
926,-0.7718756474301481,0
927,0.12826776236010343,0
928,-0.06142114012858298,0
929,-0.03371711943359591,0
930,-0.022668747540526613,0
931,-0.07812206808928956,0
932,-0.04520561240799084,0
933,0.029830603195619393,0
934,-0.08898226110427535,0
935,0.02018974876966731,0
936,-0.020841506798958197,0
937,-0.058456294281250334,0
938,-0.008005794824132507,0
939,-0.02282725763518895,0
940,0.21797445019143452,0
941,3.581722746512226,0
942,6.685851592714955,0
943,-0.5048917511342261,0
944,-1.853788072888968,0
945,1.4565642165730133,0
946,-0.8205783053049608,0
947,0.17819407757318906,0
948,0.015802451161239385,0
949,-0.0970345075360926,0
950,-0.08490943180917733,0
951,-0.033808469902942936,0
952,-0.012086741126429771,0
953,0.03303014939223656,0
954,-0.10655729453167136,0
955,-0.11169658966590147,0
956,-0.03594034800357482,0
957,-0.0863902741720033,0
958,-0.10274390079338361,0
959,-0.043401519878137076,0
960,0.2703587209561869,0
961,3.7150404789419285,0
962,6.765431756286806,0
963,-0.4579692421068003,0
964,-1.73521775077249,0
965,1.3968483347815654,0
966,-0.7528506069205486,0
967,0.19834526846911688,0
968,-0.09337600205728501,0
969,-0.00916056699633231,0
970,0.0489008285101361,0
971,-0.09771474923468922,0
972,-0.09152292185423756,0
973,-0.017362628877806742,0
974,0.06511022008171408,0
975,0.08091432791030276,0
976,0.03822253036785295,0
977,-0.008387647423634383,0
978,0.027747211189515723,0
979,-0.007877049799045925,0
980,0.2072640693411154,0
981,3.670671883150369,0
982,6.705725780628669,0
983,-0.5288038514899144,0
984,-1.9262788880464257,0
985,1.5069465570994467,0
986,-0.7609645869783559,0
987,0.10360987336109762,0
988,-0.06277987193808686,0
989,-0.07618840159033896,0
990,-0.03689215920655433,0
991,-0.027394925919231285,0
992,-0.050152140729255106,0
993,-0.0433798976380489,0
994,-0.04319942477249865,0
995,-0.15200202483409153,0
996,-0.17766088150584092,0
997,-0.1398599784746316,0
998,-0.01645338988718051,0
999,-0.06220540743315302,0
1000,0.21283664324207757,0
1001,3.5284990164232206,0
1002,6.7983076175633474,0
1003,-0.5645090248950311,0
1004,-1.8962033710700175,0
1005,1.4588432295303484,0
1006,-0.8078876986674232,0
1007,0.1430874808052856,0
1008,0.0054752432893094526,0
1009,-0.07870248052169823,0
1010,0.016672720383817813,0
1011,-0.06112323574071801,0
1012,-0.0626934496059592,0
1013,-0.011541595564963368,0
1014,-0.045451115265571315,0
1015,0.02267529746984137,0
1016,-0.009819366127851394,0
1017,-0.03750667961650209,0
1018,-0.05146905584633397,0
1019,-0.011195614654457425,0
1020,0.26014893072981926,0
1021,3.693167327691252,0
1022,6.791058147824848,0
1023,-0.5293630532671023,0
1024,-1.9092487575184913,0
1025,1.4236739609689997,0
1026,-0.8105089106876511,0
1027,0.03849081306610956,0
1028,-0.0835453112161442,0
1029,0.034553949619669885,0
1030,-0.011737078489447335,0
1031,-0.022730395437266362,0
1032,-0.0892046599323934,0
1033,-0.05878799941984374,0
1034,0.008644389573051393,0
1035,-0.02961575194731448,0
1036,-0.07526418921766723,0
1037,-0.059932331893389756,0
1038,-0.09099309871559534,0
1039,-0.11166277343581502,0
1040,0.3333017638859363,0
1041,3.6210067913013075,0
1042,6.758169519440303,0
1043,-0.5549548937768837,0
1044,-1.9048776300559276,0
1045,1.407649656521507,0
1046,-0.8227822661897538,0
1047,0.12532402014648902,0
1048,-0.07619989933202304,0
1049,-0.19333609753285974,0
1050,0.029666879795798136,0
1051,-0.05098230047830446,0
1052,0.01568896334483008,0
1053,0.057275480834967155,0
1054,-0.06184060518569631,0
1055,-0.0627877777266978,0
1056,0.012692980480814707,0
1057,0.06681600922224672,0
1058,-0.004141350444289905,0
1059,-0.04748585771873092,0
1060,0.3590530849047324,0
1061,3.649530297580983,0
1062,6.6917654235568484,0
1063,-0.5382246578079866,0
1064,-1.8836270441762006,0
1065,1.5225504871897277,0
1066,-0.6938162413933294,0
1067,0.1046234236048307,0
1068,-0.006706223572519338,0
1069,-0.09000615770060326,0
1070,0.09614566731855226,0
1071,-0.0023270472724953445,0
1072,0.010768625517860005,0
1073,-0.025230970112240556,0
1074,-0.04225793450938558,0
1075,-0.06975281360146794,0
1076,-0.03002404448776541,0
1077,0.00023530246437378742,0
1078,0.02615424882539993,0
1079,0.019235688684075256,0
1080,0.28601430417790974,0
1081,3.6411826260324887,0
1082,6.814278913046208,0
1083,-0.4691584543575037,0
1084,-1.863348062680399,0
1085,1.5128408060282124,0
1086,-0.7040742122209965,0
1087,0.16547767108243108,0
1088,0.048987286427965265,0
1089,-0.06393292445037997,0
1090,0.025505167872511884,0
1091,0.03177808788283372,0
1092,0.033996720410431946,0
1093,0.026544598229090513,0
1094,-0.04962894046857535,0
1095,-0.056406625355977257,0
1096,-0.018775245359077326,0
1097,0.019556480302978314,0
1098,0.025260471215419023,0
1099,-0.006226383705510801,0
1100,0.3589340530224034,0
1101,3.635768636840636,0
1102,6.843405178007697,0
1103,-0.5692432294682567,0
1104,-1.762648825908755,0
1105,1.5954011198778357,0
1106,-0.8244977646943965,0
1107,0.11703251387662285,0
1108,0.06574715339956569,0
1109,-0.052954430996689214,0
1110,0.023390958901015724,0
1111,0.07552807834325992,0
1112,-0.004899770529913808,0
1113,0.04874762840972183,0
1114,-0.006339402756934752,0
1115,0.006946947389259105,0
1116,0.031921396827035244,0
1117,0.059446007635278464,0
1118,-0.05023195757622586,0
1119,0.0028643044327951225,0
1120,0.3241155494906557,0
1121,3.736658342973794,0
1122,6.79633541488012,0
1123,-0.577045886874214,0
1124,-1.83950691379155,0
1125,1.4850257656322237,0
1126,-0.727989216844762,0
1127,0.10976645314893409,0
1128,0.06392525698313052,0
1129,-0.1014369741207096,0
1130,0.07744221483973923,0
1131,-0.09189323971506305,0
1132,0.010293270360457275,0
1133,0.04898931170277106,0
1134,0.04298581476079548,0
1135,0.016183329205023068,0
1136,0.0074533295176895924,0
1137,0.04376108135433579,0
1138,0.045344525422608334,0
1139,0.025916305265280028,0
1140,0.40414085121551396,0
1141,3.722862994360791,0
1142,6.888688920836673,0
1143,-0.5198193603470671,0
1144,-1.7321339633972013,0
1145,1.5717988399464422,0
1146,-0.7707270208910694,0
1147,0.2013277576444023,0
1148,-0.09279712866649627,0
1149,-0.12159787020243171,0
1150,0.008268890274663175,0
1151,-0.0446987312941034,0
1152,-0.029978076929592416,0
1153,-0.07809422611232517,0
1154,-0.0857334944579694,0
1155,-0.0924788060759057,0
1156,-0.04922779487401896,0
1157,-0.0228477268561814,0
1158,-0.009900350365712018,0
1159,-0.012250171858456099,0
1160,0.20972228888530892,0
1161,3.640128011400036,0
1162,6.7199320227996004,0
1163,-0.6499696916426768,0
1164,-1.8939499073669115,0
1165,1.6031576535161527,0
1166,-0.7725179490195779,0
1167,0.15642372689955344,0
1168,-0.052457605129651,0
1169,0.016657172679961793,0
1170,-0.06664715267815155,0
1171,-0.032290402506965764,0
1172,0.0035315323437010763,0
1173,0.06621225071092993,0
1174,-0.007944318347565937,0
1175,0.1235320265343394,0
1176,-0.046791317107784794,0
1177,-0.07759408490659761,0
1178,0.014823955220641146,0
1179,-0.020647890332202528,0
1180,0.3203216165200542,0
1181,3.7403185977709894,0
1182,6.843188745973539,0
1183,-0.620424243422032,0
1184,-1.7381288771002947,0
1185,1.5307159264771018,0
1186,-0.69117120695553,0
1187,0.14224131176428711,0
1188,0.07683643653812433,0
1189,-0.08172370989585853,0
1190,0.04855010130625932,0
1191,0.007048469515994608,0
1192,0.02716070330873769,0
1193,-0.04288695513449497,0
1194,0.05409589878690505,0
1195,0.031034913630978506,0
1196,0.11050444228164896,0
1197,0.04301309339945119,0
1198,0.06650163931987212,0
1199,0.04848019222448119,0
1200,0.4527804098425109,0
1201,3.732572676248767,0
1202,6.873594681789858,0
1203,-0.6398700894571077,0
1204,-1.700526024568489,0
1205,1.5324512834517412,0
1206,-0.7158098013365854,0
1207,0.1901255626267469,0
1208,0.09995481381452666,0
1209,-0.05138184347437389,0
1210,0.0064268982382749765,0
1211,-0.031834327927287936,0
1212,-0.024477891089031555,0
1213,0.053242509617944946,0
1214,-0.04967282843644331,0
1215,-0.05466963504201908,0
1216,0.012749069432091371,0
1217,-0.017042952946192857,0
1218,0.03937066829835745,0
1219,0.07344133669999822,0
1220,0.2875825248024001,0
1221,3.6829077006536126,0
1222,6.764937670095663,0
1223,-0.5360464454879291,0
1224,-1.6881895928450499,0
1225,1.5094249294445268,0
1226,-0.7321513160992479,0
1227,0.13825606325377873,0
1228,0.00833202136776881,0
1229,0.02309784415954834,0
1230,0.06622603966736401,0
1231,0.030792259344848052,0
1232,-0.03565198734517451,0
1233,0.07344429702358728,0
1234,-0.041095890549787344,0
1235,0.014391643672970704,0
1236,0.042404943328099104,0
1237,0.017357916470850172,0
1238,-0.012896996165794383,0
1239,-0.020899986121070715,0
1240,0.2936086673965893,0
1241,3.6558605744978023,0
1242,6.716315154414286,0
1243,-0.5539992058306271,0
1244,-1.6786126177968084,0
1245,1.5466394896982372,0
1246,-0.7892387738589395,0
1247,0.1848679733098026,0
1248,-0.0341619630917521,0
1249,-0.07966791744678833,0
1250,0.08407529651330976,0
1251,-0.00796351573591499,0
1252,0.02677954067070405,0
1253,-0.025652779026253528,0
1254,0.09385198859393018,0
1255,0.010704901334661766,0
1256,0.00036944766383860406,0
1257,0.06525981573062722,0
1258,0.035756277819491894,0
1259,0.10896735768567478,0
1260,0.36561307901461393,0
1261,3.7107468887882664,0
1262,6.781747332366931,0
1263,-0.5572429504590719,0
1264,-1.6901810898421754,0
1265,1.574370845057732,0
1266,-0.7748496447318659,0
1267,0.18207950699757564,0
1268,0.14423317327070487,0
1269,-0.050083766545875666,0
1270,0.027125333651449705,0
1271,0.01110160397102775,0
1272,-0.04506468121744516,0
1273,-0.04094507774356339,0
1274,0.007198193303378861,0
1275,0.024553573805123744,0
1276,0.06365921027019415,0
1277,0.0039058083236716665,0
1278,-0.03789927192718185,0
1279,0.04711145574459325,0
1280,0.3407685691318221,0
1281,3.7711974771783963,0
1282,6.78663978000983,0
1283,-0.5658459083515239,0
1284,-1.7404783596850364,0
1285,1.4870740594642562,0
1286,-0.7194363431732871,0
1287,0.19822844635520184,0
1288,0.07571606548448509,0
1289,0.017347415749892507,0
1290,0.0654826611344207,0
1291,-0.006459614952281828,0
1292,-0.059741278276838346,0
1293,-0.04026209978219091,0
1294,-0.010264877668065888,0
1295,-0.0050492334017856275,0
1296,-0.048473057150920824,0
1297,0.04724891239761468,0
1298,-0.025823707108959038,0
1299,0.08805056560676078,0
1300,0.2896942689925302,0
1301,3.823994313658289,0
1302,6.7312719483423935,0
1303,-0.6542246881339434,0
1304,-1.715182185530558,0
1305,1.511845132686795,0
1306,-0.695353935394185,0
1307,0.09153557911980799,0
1308,0.04004239243817192,0
1309,0.0535441160652275,0
1310,0.015214916073833542,0
1311,-0.023683781972246822,0
1312,-0.11013745398049737,0
1313,0.03946430418531417,0
1314,-0.014361707394636696,0
1315,-0.03431781317979877,0
1316,-0.08267031768300803,0
1317,0.07185190417044413,0
1318,-0.02436361357612698,0
1319,0.06450219047670225,0
1320,0.3162863550943945,0
1321,3.724287598117041,0
1322,6.730603667768751,0
1323,-0.5830751479291534,0
1324,-1.8056192077538746,0
1325,1.528265605924926,0
1326,-0.7440146909816792,0
1327,0.15222945453044695,0
1328,0.02661736054297508,0
1329,-0.09092318964021551,0
1330,-0.10409341136989361,0
1331,-0.019257093023552264,0
1332,-0.04367981987958876,0
1333,0.002789768239520783,0
1334,-0.02528087531478174,0
1335,-0.09844724468034796,0
1336,0.0001286291836150935,0
1337,0.04525071572219218,0
1338,-0.03616976658523073,0
1339,-0.04336262027202431,0
1340,0.2930517987569813,0
1341,3.7195392860410283,0
1342,6.683736209919206,0
1343,-0.5977438082632249,0
1344,-1.7870191025988518,0
1345,1.4463494569454687,0
1346,-0.7854309552206418,0
1347,0.12439041478964794,0
1348,0.034711280882911456,0
1349,-0.10764897505876396,0
1350,0.03806682403321055,0
1351,-0.0029014925629071396,0
1352,0.04297156254781158,0
1353,0.08968830395888838,0
1354,0.01991514944192744,0
1355,0.08346426197578855,0
1356,-0.010591390315968521,0
1357,0.015956425126409792,0
1358,0.060418507768344426,0
1359,0.014536206523588873,0
1360,0.41802109583342556,0
1361,3.8399231679260857,0
1362,6.846741571457582,0
1363,-0.6050721480807394,0
1364,-1.6946220301490749,0
1365,1.5276931063122277,0
1366,-0.6665307532007957,0
1367,0.19869460847321674,0
1368,0.04749979052578564,0
1369,-0.07103245202525199,0
1370,0.004811652681347572,0
1371,0.006843387437432784,0
1372,0.02080950261853962,0
1373,-0.03848598373778853,0
1374,-0.0018582973046252305,0
1375,0.015840417884288555,0
1376,-0.01880043072994259,0
1377,0.011463164616269915,0
1378,-0.02903610963361888,0
1379,0.0036756414103365394,0
1380,0.3224188917153006,0
1381,3.7397546970152735,0
1382,6.750374513356126,0
1383,-0.6779522430763395,0
1384,-1.7803445282409245,0
1385,1.461081929373378,0
1386,-0.8422573713418909,0
1387,0.17995967066218285,0
1388,-0.06581270380381636,0
1389,0.027182727989137664,0
1390,-0.021322225740115622,0
1391,-0.019807361927456447,0
1392,0.0898335229261805,0
1393,0.029708855376126716,0
1394,0.04896833187961884,0
1395,0.03324031848649931,0
1396,0.020094288614787664,0
1397,0.013439613361521692,0
1398,0.02589729959089282,0
1399,-0.043560640501505515,0
1400,0.31173202173844305,0
1401,3.7855972886671196,0
1402,6.902759286979835,0
1403,-0.5813006489969208,0
1404,-1.7149244666128445,0
1405,1.4719198592069709,0
1406,-0.770538749117576,0
1407,0.21287829363031355,0
1408,-0.013633347191026133,0
1409,-0.05659827647560797,0
1410,-0.09587849914967805,0
1411,-0.11060036272957802,0
1412,-0.06320757815005895,0
1413,0.006431250936940663,0
1414,-0.03438231279879222,0
1415,-0.10202106094719898,0
1416,-0.11863397483584327,0
1417,-0.01987668787357109,0
1418,-0.027771543946355927,0
1419,-0.04074283204408774,0
1420,0.18788590338536348,0
1421,3.6444237054073843,0
1422,6.758872326360624,0
1423,-0.6839365013024867,0
1424,-1.768884852151973,0
1425,1.5124007464025122,0
1426,-0.7841700566648923,0
1427,0.13938738527355235,0
1428,-0.007018326153773624,0
1429,-0.03111639157171965,0
1430,0.01423819417257567,0
1431,0.012451571241848137,0
1432,0.12800822145202795,0
1433,0.052571781001073216,0
1434,0.04510651198872975,0
1435,0.0389544941389287,0
1436,-0.028955450011863178,0
1437,-0.021460374122326393,0
1438,-0.03848038999850782,0
1439,0.0192719211746769,0
1440,0.369029892747109,0
1441,3.7119405424690988,0
1442,6.756011371839319,0
1443,-0.7212324606317941,0
1444,-1.7544553299776278,0
1445,1.4299699978376874,0
1446,-0.7789152679343342,0
1447,0.1360890606268628,0
1448,0.011774978393036248,0
1449,-0.05145776908042182,0
1450,0.07683030283413532,0
1451,-0.008907658113447053,0
1452,-0.08581663407189159,0
1453,-0.002972641761094308,0
1454,0.059846380908604425,0
1455,-0.03093518521492984,0
1456,-0.07745675918401067,0
1457,0.004328992291791796,0
1458,0.017798531525931745,0
1459,-0.007172879270261244,0
1460,0.304385801171909,0
1461,3.7823436169479754,0
1462,6.726798859821924,0
1463,-0.5707758768866035,0
1464,-1.6784530083248108,0
1465,1.4989574331666167,0
1466,-0.7679379495180063,0
1467,0.23787812161458094,0
1468,0.009265514999150088,0
1469,0.020135453014117448,0
1470,0.047038269336095784,0
1471,0.2020534644718188,0
1472,-0.01172362065133179,0
1473,0.029504991391063818,0
1474,-0.01836005358315669,0
1475,-0.08211387337059792,0
1476,0.027339800977939813,0
1477,0.08226905766534767,0
1478,0.07157952934820286,0
1479,0.024178616888957182,0
1480,0.3057112754295401,0
1481,3.726550707591843,0
1482,6.7990773592199245,0
1483,-0.7219041565493156,0
1484,-1.712733001235736,0
1485,1.495698363355185,0
1486,-0.7474121293280032,0
1487,0.17483496446333957,0
1488,-0.016805968476337273,0
1489,-0.043094070468693325,0
1490,0.082519204497868,0
1491,0.035353882468634176,0
1492,-0.012432916616083513,0
1493,0.032404731900000205,0
1494,-0.041450202626227305,0
1495,-0.005396884794665869,0
1496,-0.0511892431692186,0
1497,0.10259001279850069,0
1498,-0.07757978036827363,0
1499,0.06200008893613921,0
1500,0.2794227550465504,0
1501,3.768934640936896,0
1502,6.813057839560055,0
1503,-0.6529175119629671,0
1504,-1.6980875613538031,0
1505,1.4088943036964336,0
1506,-0.6931035294135452,0
1507,0.3225640747958013,0
1508,0.0690986481639523,0
1509,0.0620765376825287,0
1510,0.05204486416244161,0
1511,0.08694266707572308,0
1512,0.07806650018700616,0
1513,0.09309375204785933,0
1514,-0.06959118875570937,0
1515,0.029550862265380836,0
1516,-0.039813202446111765,0
1517,0.07079980563007075,0
1518,0.045510560874662286,0
1519,0.03712816684234032,0
1520,0.19145194264594748,0
1521,3.6988670084034236,0
1522,6.815357922533606,0
1523,-0.6872101133741519,0
1524,-1.6556441602768193,0
1525,1.4930027122452996,0
1526,-0.7585060796474573,0
1527,0.15086698981073038,0
1528,-0.02241089063419187,0
1529,0.011205608603796123,0
1530,0.08084257775027576,0
1531,-0.027568305494856567,0
1532,0.00932679530961503,0
1533,-0.021684741263005014,0
1534,0.05217109278996819,0
1535,0.006189445305483234,0
1536,0.08803475602553415,0
1537,0.08998583637171917,0
1538,0.02092376600908711,0
1539,-0.03921106963916269,0
1540,0.3102560789778713,0
1541,3.792480700965772,0
1542,6.751032116213129,0
1543,-0.739551935738344,0
1544,-1.6536238393325642,0
1545,1.57890320537245,0
1546,-0.7940269691318493,0
1547,0.1864566301715203,0
1548,0.04487370387495339,0
1549,0.050101343036115055,0
1550,0.019260265641433127,0
1551,0.021143349021978532,0
1552,0.023236840839443287,0
1553,0.018385501333587455,0
1554,0.02163980307155436,0
1555,-0.019447655219190806,0
1556,0.06876963025148469,0
1557,0.1293137228328851,0
1558,0.08082393483139524,0
1559,0.07920488672329025,0
1560,0.412114461996798,0
1561,3.9445572099371646,0
1562,6.866511117245045,0
1563,-0.5844049200902414,0
1564,-1.581762482327568,0
1565,1.5414401454088087,0
1566,-0.7511565410007149,0
1567,0.23781987391812398,0
1568,0.05287768740758845,0
1569,-0.027658818623804086,0
1570,0.07734627294329803,0
1571,0.0023558834891831554,0
1572,0.04718192844800481,0
1573,0.14426276862758414,0
1574,0.0015559924779315754,0
1575,-0.03686924135484482,0
1576,0.04003826594056947,0
1577,0.13099489728912764,0
1578,-0.013353112712146939,0
1579,-0.03556145753217698,0
1580,0.3316221720202177,0
1581,3.8641057074869845,0
1582,6.833014901759933,0
1583,-0.6312355474298333,0
1584,-1.7521790227331084,0
1585,1.6278928778640966,0
1586,-0.782236276590393,0
1587,0.12631770126002656,0
1588,0.05748146258115009,0
1589,0.0014786270608525887,0
1590,0.043755461315319,0
1591,0.01180599386746467,0
1592,0.039328360573839996,0
1593,-0.030312626064713646,0
1594,-0.025283219869895512,0
1595,0.11148959614751908,0
1596,0.1473288323940964,0
1597,0.05065812900898887,0
1598,0.03674083151694814,0
1599,0.08508786528743711,0
1600,0.47644604682321245,0
1601,3.8664072836541394,0
1602,6.858721475037184,0
1603,-0.4999642883910369,0
1604,-1.5816667170677736,0
1605,1.614326279329028,0
1606,-0.5791114659378263,0
1607,0.23335071523320308,0
1608,0.09644833130605432,0
1609,0.03226448021450156,0
1610,0.0335871568255803,0
1611,0.08160672524505153,0
1612,-0.014159174356680342,0
1613,0.07993868362398238,0
1614,0.05117047426964966,0
1615,0.024543334847421952,0
1616,0.1261420908199175,0
1617,0.015720397160680494,0
1618,0.11957272629335841,0
1619,0.17299972953368598,0
1620,0.5078298268468354,0
1621,3.8986245319054356,0
1622,6.882937603445796,0
1623,-0.5093517652233976,0
1624,-1.4985764632138543,0
1625,1.6315083123670653,0
1626,-0.6500417725945826,0
1627,0.31660233882508887,0
1628,0.13381483447604636,0
1629,0.019809021744084915,0
1630,0.06217549972763258,0
1631,0.111149347134541,0
1632,0.14773318530921226,0
1633,0.09419815575976867,0
1634,0.02026555780109425,0
1635,0.06288302351168802,0
1636,0.10300134671213179,0
1637,0.08107523547845182,0
1638,0.1755171176018266,0
1639,0.16158179576108023,0
1640,0.44347820686024897,0
1641,3.8074944885889015,0
1642,6.846481356430065,0
1643,-0.5698051899954687,0
1644,-1.580786209010362,0
1645,1.6306050324972754,0
1646,-0.7317268810377485,0
1647,0.25897699687605596,0
1648,-0.03403684003890317,0
1649,0.08341094700244525,0
1650,0.11849416713852415,0
1651,-0.0970279966443298,0
1652,0.1128807804224364,0
1653,0.019736320768079216,0
1654,0.06155565176854464,0
1655,0.02659211196386115,0
1656,0.07045432252553176,0
1657,0.12315087780102803,0
1658,0.006978363147763296,0
1659,0.11225706328068538,0
1660,0.38394429186205575,0
1661,3.868903891609913,0
1662,6.794849639494952,0
1663,-0.6319895287628366,0
1664,-1.6436127036280737,0
1665,1.6134388860117888,0
1666,-0.6859150739219761,0
1667,0.2691715290193505,0
1668,0.0350398166893844,0
1669,0.0014852903970382543,0
1670,0.061043395668570595,0
1671,-0.025447969375796162,0
1672,0.11010699723448175,0
1673,0.00018235228275764043,0
1674,0.019858174361078965,0
1675,0.033241581419981125,0
1676,0.055963003715128995,0
1677,0.11628032546206926,0
1678,-0.011889401554398424,0
1679,0.04858039860455814,0
1680,0.3273925581480828,0
1681,3.8792805359162412,0
1682,6.778783267475773,0
1683,-0.6854510919697292,0
1684,-1.6826631412308617,0
1685,1.505533750332693,0
1686,-0.7012620932891426,0
1687,0.27328065251516503,0
1688,0.05616269800235551,0
1689,0.024984282787726617,0
1690,0.09617906668094259,0
1691,0.062095692948661504,0
1692,0.03722898917006725,0
1693,-0.0447981660814681,0
1694,0.08566037819399355,0
1695,-0.07388745017163219,0
1696,0.023031327910575522,0
1697,-0.10289955438889206,0
1698,-0.05374877142945435,0
1699,-0.043665997330432554,0
1700,0.36692689480081236,0
1701,3.7483632105672706,0
1702,6.808044904876994,0
1703,-0.7014969967816826,0
1704,-1.652903846430313,0
1705,1.5688777477966864,0
1706,-0.7497746928360912,0
1707,0.21630937799041175,0
1708,0.03884726707990354,0
1709,0.03996825787098678,0
1710,0.06077087051464189,0
1711,0.03277437013354794,0
1712,0.05801697663686259,0
1713,0.15363407337943052,0
1714,0.04001032584037399,0
1715,0.09299994764375635,0
1716,0.0382654672951761,0
1717,0.07740326039276188,0
1718,0.09252975114796422,0
1719,0.03929399979975638,0
1720,0.36162515253261374,0
1721,3.7921195877703933,0
1722,6.762496185617961,0
1723,-0.7413225316663361,0
1724,-1.7306032036115884,0
1725,1.4084651900716327,0
1726,-0.8445139637966937,0
1727,0.20695794952519453,0
1728,-0.05722460122615972,0
1729,-0.10917023710101276,0
1730,-0.05021948566853042,0
1731,-0.02904796038988679,0
1732,-0.032676070637759395,0
1733,-0.025373493157080738,0
1734,0.011941225971514282,0
1735,-0.04297791513287567,0
1736,0.045442674852114145,0
1737,-0.0866476030547385,0
1738,-0.07764178555438636,0
1739,-0.035010897524516665,0
1740,0.40413518912459034,0
1741,3.785687686874457,0
1742,6.7244138434212095,0
1743,-0.7026630177170107,0
1744,-1.7287555398155234,0
1745,1.5380041387233216,0
1746,-0.8480628048544661,0
1747,0.19086183833667442,0
1748,0.07164713466652034,0
1749,-0.06010239667952857,0
1750,-0.004009537570878413,0
1751,-0.033977110023590544,0
1752,0.02250124465394574,0
1753,0.04595598676046371,0
1754,-0.062310139648423676,0
1755,0.028432785263587747,0
1756,-0.031436543853631135,0
1757,-0.004523353196008778,0
1758,-0.07079924905793328,0
1759,-0.0759901263631212,0
1760,0.2487244840030946,0
1761,3.8021271649920916,0
1762,6.855216234367066,0
1763,-0.7238501541923101,0
1764,-1.7028530911669078,0
1765,1.4557767180664904,0
1766,-0.7955306786421567,0
1767,0.12128148283987618,0
1768,0.02604808078771472,0
1769,-0.03152775060510994,0
1770,-0.004391704951674076,0
1771,0.06703165106091401,0
1772,-0.0006312323469063533,0
1773,-0.02806616863357803,0
1774,-0.031529740571664695,0
1775,-0.06950742305857124,0
1776,-0.03828681395884643,0
1777,-0.01044448771335076,0
1778,-0.0674482402679507,0
1779,0.07822051297601285,0
1780,0.18662784617420786,0
1781,3.748010442581002,0
1782,6.646087172845479,0
1783,-0.7756821138952629,0
1784,-1.712185763919014,0
1785,1.48843206414915,0
1786,-0.8537675084529708,0
1787,0.1317683559866835,0
1788,-0.05640994799420651,0
1789,-0.16376800468023855,0
1790,-0.07274030758118441,0
1791,-0.08523563942891878,0
1792,-0.18677239904764026,0
1793,-0.02036812631430853,0
1794,-0.04196302848683163,0
1795,-0.03709611607615813,0
1796,-0.005054707993039531,0
1797,-0.023398848368858777,0
1798,-0.05175165818005141,0
1799,-0.07535823854471417,0
1800,0.30732465311910956,0
1801,3.740694130976737,0
1802,6.698639345718378,0
1803,-0.7945519132175966,0
1804,-1.6768023695176832,0
1805,1.4288618125759622,0
1806,-0.8696444090773986,0
1807,0.18272257335117145,0
1808,-0.029214686071650467,0
1809,-0.10963215011207442,0
1810,-0.08304635451817316,0
1811,-0.13634857322203836,0
1812,-0.09211435498728261,0
1813,-0.005207718168651836,0
1814,-0.08713023923937065,0
1815,-0.13623202453751568,0
1816,-0.09689081295302378,0
1817,-0.1118669651331436,0
1818,-0.15788777117239006,0
1819,-0.03980175281128644,0
1820,0.27136045833186645,0
1821,3.7539978286405575,0
1822,6.6941953648403665,0
1823,-0.8382265777897326,0
1824,-1.649052805944214,0
1825,1.382511520835938,0
1826,-0.8600859350628631,0
1827,0.1234683641094082,0
1828,-0.06822822720737261,0
1829,-0.09162258280380556,0
1830,0.04453862309094618,0
1831,-0.02361561851740754,0
1832,-0.06999046123790012,0
1833,-0.09812037184701841,0
1834,0.0021161532312243547,0
1835,0.0010496912950020212,0
1836,0.1077856673555471,0
1837,0.054084444878957263,0
1838,-0.02459050058631773,0
1839,0.0027490592665048164,0
1840,0.3313097079592335,0
1841,3.829519768766577,0
1842,6.679643198392771,0
1843,-0.8146196631375712,0
1844,-1.6855202168552128,0
1845,1.4435733151269359,0
1846,-0.8664420206458423,0
1847,0.09165987335089286,0
1848,-0.01636010306532777,0
1849,-0.13132818589814638,0
1850,0.01244791284328865,0
1851,-0.06187977635293661,0
1852,-0.15743470291494002,0
1853,-0.038992033086973604,0
1854,0.041956507911878,0
1855,0.023196143825389412,0
1856,0.015281747353918136,0
1857,-0.10361816671759794,0
1858,-0.037309842464604975,0
1859,-0.09533322920636284,0
1860,0.3199070864033622,0
1861,3.702136698819327,0
1862,6.6958326273021065,0
1863,-0.6832445099644724,0
1864,-1.6618971957685018,0
1865,1.4598390738397922,0
1866,-0.83624329615964,0
1867,0.13816392503993324,0
1868,-0.030147644493919695,0
1869,-0.09865797338861135,0
1870,-0.00692813947963139,0
1871,-0.08226156068288765,0
1872,-0.037434856864429794,0
1873,0.05306922121777066,0
1874,-0.04488008908691522,0
1875,-0.000726388393994068,0
1876,-0.05989241378110427,0
1877,-0.07315363960711024,0
1878,-0.05169510546112971,0
1879,0.036187351468965075,0
1880,0.402681520371732,0
1881,3.856371700501247,0
1882,6.68135918365158,0
1883,-0.8014528981817027,0
1884,-1.6370684220186822,0
1885,1.4338581785420725,0
1886,-0.7568217942235839,0
1887,0.09084628896336543,0
1888,-0.007161885126486779,0
1889,-0.06938896709568401,0
1890,-0.0613449050920076,0
1891,-0.08946749882430113,0
1892,-0.12765690104663677,0
1893,-0.02393972415861808,0
1894,-0.04572968150894413,0
1895,0.02490598035406094,0
1896,-0.03511688850302714,0
1897,-0.10665317898026805,0
1898,-0.03630499614382713,0
1899,-0.03890636543808643,0
1900,0.25225151290888326,0
1901,3.852344063371791,0
1902,6.687541249871326,0
1903,-0.7779700536410177,0
1904,-1.6755298534316374,0
1905,1.4422313249219456,0
1906,-0.7657110380100608,0
1907,0.26126235477357884,0
1908,0.02959981252890077,0
1909,-0.01424564539465196,0
1910,-0.0024981268305198055,0
1911,0.018314678257638307,0
1912,-0.008669118814643854,0
1913,-0.03662691680849901,0
1914,-0.024254743156521156,0
1915,-0.02525722321235782,0
1916,0.03998299872132663,0
1917,0.044991283496206395,0
1918,0.038332547284530276,0
1919,0.1039588526532072,0
1920,0.34705775658229415,0
1921,3.907197019942703,0
1922,6.741500053269155,0
1923,-0.7429746887399762,0
1924,-1.5790014322280927,0
1925,1.6277541206912896,0
1926,-0.8011056910289615,0
1927,0.18978947787223474,0
1928,0.04059879350370474,0
1929,0.05527734132553349,0
1930,0.07916004630578068,0
1931,-0.011180038212411538,0
1932,0.08300854463691734,0
1933,0.1062145762055401,0
1934,-0.03068744252034696,0
1935,0.027257651270164905,0
1936,0.030262986555031915,0
1937,-0.03194966820936329,0
1938,0.011904449304637436,0
1939,0.011807807018229718,0
1940,0.44231220450671,0
1941,3.816946247663287,0
1942,6.846626668753571,0
1943,-0.7456340690714903,0
1944,-1.6276532631905054,0
1945,1.525519483511717,0
1946,-0.7389909787975381,0
1947,0.24388745094657446,0
1948,-0.0047109915077232604,0
1949,0.09849816687298696,0
1950,-0.02095585487134579,0
1951,0.0005845362618893488,0
1952,0.015081146094025041,0
1953,0.04830887802250097,0
1954,0.011669531992141022,0
1955,0.005860654092608499,0
1956,0.08550182753479008,0
1957,0.06718373477055471,0
1958,0.06410975466848223,0
1959,0.11276438088460702,0
1960,0.3727389319856689,0
1961,3.8610669337101635,0
1962,6.774810450921305,0
1963,-0.7656873865227889,0
1964,-1.5425501470918737,0
1965,1.5226602693507094,0
1966,-0.6479774719055363,0
1967,0.2841376352198396,0
1968,-0.13169887838492164,0
1969,-0.11646063557617359,0
1970,0.03495941453958846,0
1971,0.07677106161774917,0
1972,0.12289885316769172,0
1973,-0.0694034815923455,0
1974,-0.035076522561383966,0
1975,-0.054218490573833496,0
1976,0.021121463543159812,0
1977,0.13473243008419736,0
1978,0.005485501038214675,0
1979,0.17748583362099016,0
1980,0.49761903323017326,0
1981,3.8232767358725117,0
1982,6.761411553559659,0
1983,-0.662778847526951,0
1984,-1.6897142001428676,0
1985,1.5243999439326832,0
1986,-0.696545490572668,0
1987,0.23740509537232063,0
1988,0.09618560801425996,0
1989,0.029162522656372564,0
1990,0.11546856288523796,0
1991,0.12960010375788017,0
1992,0.0337290115215512,0
1993,0.00541550853252204,0
1994,0.11697742195982093,0
1995,0.016987115592221422,0
1996,0.0046389857565234185,0
1997,-0.007924555286143387,0
1998,0.07485947212037,0
1999,0.0404838859768506,0
2000,0.3820803738221828,0
2001,3.9063048811303114,0
2002,6.7592993365604785,0
2003,-0.7736034622402208,0
2004,-1.5861207449053112,0
2005,1.5798803961994154,0
2006,-0.6675074841109857,0
2007,0.16500187640865666,0
2008,0.10077105828345286,0
2009,0.12102425417371283,0
2010,0.13802103318647607,0
2011,0.037886175409136955,0
2012,0.16354988853333383,0
2013,0.06305146731133321,0
2014,0.12032326289924686,0
2015,0.07890994747619444,0
2016,0.07247703871647948,0
2017,0.06091600165443418,0
2018,0.017833465903991562,0
2019,0.13526963154610117,0
2020,0.43075851392295994,0
2021,3.8540132816744004,0
2022,6.756852798070306,0
2023,-0.7751090487255313,0
2024,-1.565151473214464,0
2025,1.4792320744322347,0
2026,-0.7567952227777741,0
2027,0.28512617577675203,0
2028,0.12162449607173786,0
2029,-0.015460725587378132,0
2030,0.0660453487902945,0
2031,-0.07266857117115276,0
2032,-0.014774086997700882,0
2033,-0.013181020721353234,0
2034,0.1438957634548642,0
2035,0.034515259530004394,0
2036,0.04993628911888656,0
2037,0.014999710934148168,0
2038,0.05787586159593032,0
2039,-0.04284724626171155,0
2040,0.35936009989471074,0
2041,3.9000946066721522,0
2042,6.869897969352458,0
2043,-0.7465044159665346,0
2044,-1.7088709962470268,0
2045,1.5184341782021458,0
2046,-0.6827599739410173,0
2047,0.34186622303226766,0
2048,0.03546523636585793,0
2049,0.12367627094938631,0
2050,0.08218078317045809,0
2051,0.09800002383070512,0
2052,0.07471885578194737,0
2053,0.13229896587458218,0
2054,0.13527375622702123,0
2055,0.19591342281423785,0
2056,0.0031466604174511317,0
2057,-0.07519507206996508,0
2058,0.029583940976958933,0
2059,0.04451962020613593,0
2060,0.3036058680268338,0
2061,3.9242105932304394,0
2062,6.635254894647,0
2063,-0.7879197339272974,0
2064,-1.574972397615456,0
2065,1.487298139119605,0
2066,-0.8153925609063573,0
2067,0.10682042326100777,0
2068,0.03870966604679688,0
2069,-0.012657434128029109,0
2070,-0.02530103850552126,0
2071,0.027595975078003158,0
2072,0.014163452100070629,0
2073,0.021401365860738347,0
2074,-0.022055653611693933,0
2075,0.06512791864838564,0
2076,-0.04338959310293135,0
2077,0.016276991703146552,0
2078,-0.01923239375341875,0
2079,-0.05763953690453613,0
2080,0.3096997583292327,0
2081,3.840478274890114,0
2082,6.695118139501342,0
2083,-0.8037552341360588,0
2084,-1.6335018718153616,0
2085,1.39225547452063,0
2086,-0.7431070287546604,0
2087,0.1870836142596846,0
2088,-0.02945755882317413,0
2089,0.016299754786810998,0
2090,0.013363656116729343,0
2091,-0.06833637491209531,0
2092,-0.013615038111336037,0
2093,-0.022361861038601705,0
2094,-0.06469406440627565,0
2095,-0.002309698896609376,0
2096,-0.06693827771945535,0
2097,-0.09275259558561966,0
2098,-0.13342350539658102,0
2099,-0.038246387604375105,0
2100,0.3559395284749557,0
2101,3.8444666215198033,0
2102,6.690333113167355,0
2103,-0.8975819602207125,0
2104,-1.618078425706924,0
2105,1.4623377500104007,0
2106,-0.812475466858951,0
2107,0.1285627681488996,0
2108,-0.03461349729881545,0
2109,-0.09508088033914078,0
2110,0.0003988064433033487,0
2111,-0.08609229377045244,0
2112,0.016147766841156246,0
2113,0.0009422399067789688,0
2114,-0.06232871042733873,0
2115,-0.009133787537679003,0
2116,-0.11135313627372292,0
2117,-0.1019489943761962,0
2118,-0.08989551040810292,0
2119,-0.18869340558278114,0
2120,0.16891289288825947,0
2121,3.6419098558000127,0
2122,6.582239225855687,0
2123,-0.8935189135719203,0
2124,-1.6877976932174934,0
2125,1.3362617965477241,0
2126,-0.9040907455325964,0
2127,0.12147598514874515,0
2128,-0.025040868703493688,0
2129,-0.14333542184612827,0
2130,0.06254849913871954,0
2131,-0.02012162789685875,0
2132,-0.07695262005405126,0
2133,-0.022453702476110008,0
2134,-0.1526122409067731,0
2135,-0.03861848612757225,0
2136,-0.045156381371556364,0
2137,-0.023318688084739955,0
2138,-0.005751193848677137,0
2139,0.0023375236595834167,0
2140,0.37411385149061227,0
2141,3.8477756806781303,0
2142,6.579154129159921,0
2143,-0.8949430897602161,0
2144,-1.72695827428272,0
2145,1.4042847310325188,0
2146,-0.8169534128599583,0
2147,0.13958047818140745,0
2148,-0.06380407514085987,0
2149,-0.12983767565917054,0
2150,-0.004884729060332091,0
2151,-0.09104950554442387,0
2152,-0.048378116888602815,0
2153,0.03382920096703625,0
2154,0.025143024620380712,0
2155,-0.03519707456828749,0
2156,0.04639384979070195,0
2157,-0.0006993959511538764,0
2158,-0.136314591586627,0
2159,0.030326979761229847,0
2160,0.2374456384165206,0
2161,3.9418129266185624,0
2162,6.751420831087355,0
2163,-0.8586843690981322,0
2164,-1.603428742275123,0
2165,1.5459799248646668,0
2166,-0.7903464254088743,0
2167,0.12636242155339292,0
2168,0.02293934428069635,0
2169,-0.1019298830696166,0
2170,-0.04326200392665441,0
2171,0.015310262921385716,0
2172,0.062210772341014145,0
2173,0.01952701411662478,0
2174,0.01674057835652551,0
2175,0.02050613352460169,0
2176,-0.039900813010267315,0
2177,-0.05077985624891908,0
2178,-0.044254836382634,0
2179,-0.033650304916245835,0
2180,0.31244837924041874,0
2181,3.944222917670493,0
2182,6.673909394740215,0
2183,-0.9809629534447448,0
2184,-1.5934364681817172,0
2185,1.362457752084171,0
2186,-0.784767489359168,0
2187,0.19472726391024225,0
2188,0.05376962501204875,0
2189,-0.03867642807298157,0
2190,0.03177632210529546,0
2191,-0.010933371091462724,0
2192,0.004503498751585629,0
2193,-0.005999482325887229,0
2194,0.05938194396990711,0
2195,0.021085012827422044,0
2196,-0.03693493537058001,0
2197,-0.022741263166459406,0
2198,-0.023641061065192114,0
2199,-0.09026012795378129,0
2200,0.25656524190494895,0
2201,3.79433894212442,0
2202,6.607722165419285,0
2203,-0.8980868874606016,0
2204,-1.6944297661448813,0
2205,1.3666693041364553,0
2206,-0.8682307811687114,0
2207,0.18474835357548397,0
2208,-0.13349889447647262,0
2209,-0.16906058672612467,0
2210,0.006195403666681268,0
2211,0.020539948979104883,0
2212,-0.13069214555409003,0
2213,0.026921767737244147,0
2214,-0.09845898167684093,0
2215,0.014968131845863802,0
2216,-0.029006714705666972,0
2217,0.01555433676962522,0
2218,0.007605592773085087,0
2219,-0.10304629758106142,0
2220,0.3046652025705174,0
2221,3.8292546962695737,0
2222,6.737132845119007,0
2223,-0.9178542197684476,0
2224,-1.6575314478230168,0
2225,1.4238640576447805,0
2226,-0.767698527479504,0
2227,0.12793562479270684,0
2228,-0.09542461695535105,0
2229,-0.02607075502356601,0
2230,0.0004464633103894479,0
2231,-0.06681958770683279,0
2232,-0.07868565675711067,0
2233,-0.043179206480718435,0
2234,-0.030412153278145025,0
2235,-0.03271457715302708,0
2236,-0.028580988923158936,0
2237,-0.06919204941516134,0
2238,-0.017186486241267188,0
2239,-0.0727412278108903,0
2240,0.34494832028931893,0
2241,3.9011526570583275,0
2242,6.717200212542757,0
2243,-0.9095630543780326,0
2244,-1.6306988874912356,0
2245,1.5155969339522901,0
2246,-0.8207794177362422,0
2247,0.1836238692758293,0
2248,-0.03350046280595849,0
2249,-0.02212699306779657,0
2250,0.021635320020245444,0
2251,-0.08793202946743196,0
2252,0.008479956228171059,0
2253,-0.0581942869222036,0
2254,-0.05810778476352112,0
2255,-0.043540337963563706,0
2256,0.020335377821382748,0
2257,-0.025408114313402348,0
2258,-0.0729849349582343,0
2259,-0.01626446225637981,0
2260,0.3161275232888987,0
2261,3.86420648981399,0
2262,6.561609372353642,0
2263,-0.9159739463761234,0
2264,-1.6153553886933216,0
2265,1.382111305194036,0
2266,-0.8296832245959406,0
2267,0.11658643295281172,0
2268,-0.16890870933207627,0
2269,-0.06549214842067647,0
2270,-0.05601780296064965,0
2271,-0.11137318032618598,0
2272,-0.13450002968045016,0
2273,-0.08841718996832694,0
2274,-0.023107736741341964,0
2275,0.005660203727762117,0
2276,-0.15592889251348782,0
2277,-0.13361906461720383,0
2278,-0.08831387636066752,0
2279,-0.12196456277831368,0
2280,0.30792128631172166,0
2281,3.8460398831489218,0
2282,6.591121882136609,0
2283,-0.9891376804343588,0
2284,-1.6276174952819362,0
2285,1.355015673882976,0
2286,-0.8521763776055322,0
2287,0.059638214229395387,0
2288,-0.10152469494197908,0
2289,-0.15567353852785687,0
2290,-0.041734330198317,0
2291,-0.11012961228628822,0
2292,-0.1111575015696743,0
2293,-0.06705019365247937,0
2294,-0.15725918661882776,0
2295,-0.09839690160422213,0
2296,-0.05750763264611463,0
2297,0.020632492136793815,0
2298,-0.07693111701417567,0
2299,-0.05271563935864269,0
2300,0.3228832949470883,0
2301,3.7328358328365114,0
2302,6.637045794108237,0
2303,-0.9382135778034923,0
2304,-1.6869458781730957,0
2305,1.3806384726164913,0
2306,-0.8489034790879085,0
2307,0.017935559848781507,0
2308,-0.02790365197555126,0
2309,-0.08693155139048148,0
2310,-0.012889256036885392,0
2311,-0.023859536369738366,0
2312,-0.09480435469456477,0
2313,-0.056005431694359765,0
2314,-0.050558716015438286,0
2315,-0.009889977966246064,0
2316,-0.12269973480751306,0
2317,-0.05065662160767809,0
2318,-0.07628892737744378,0
2319,-0.07896347678673027,0
2320,0.26710147066794077,0
2321,3.847298483109434,0
2322,6.715363641071674,0
2323,-0.96587206798098,0
2324,-1.6927240399287315,0
2325,1.3929391651435403,0
2326,-0.9204462890132593,0
2327,0.07396921491029709,0
2328,-0.11677537012412566,0
2329,-0.11884298424523194,0
2330,-0.13871476275797595,0
2331,-0.09187591892685418,0
2332,-0.08329344829592708,0
2333,-0.1513982671552426,0
2334,-0.0792038159156731,0
2335,-0.15751074771432008,0
2336,-0.10872911083260176,0
2337,-0.12576343713672794,0
2338,-0.04568268071770441,0
2339,-0.03129378507338467,0
2340,0.3049178291075965,0
2341,3.8933461312838644,0
2342,6.6761655792990595,0
2343,-0.9223898465382467,0
2344,-1.6245280084140508,0
2345,1.5199001809016046,0
2346,-0.8141325191948539,0
2347,0.09826267566911347,0
2348,-0.11642303161097414,0
2349,-0.06712415923273223,0
2350,-0.1114915206379116,0
2351,-0.09987216578059216,0
2352,-0.05595547517238649,0
2353,-0.08335371452828726,0
2354,-0.023116975046024398,0
2355,-0.08271125820379754,0
2356,-0.04970397538837976,0
2357,-0.01641276428422135,0
2358,-0.06840242581749516,0
2359,0.015381946098144236,0
2360,0.3929545159609515,0
2361,3.7855418020882623,0
2362,6.627491241868165,0
2363,-0.9529483250095566,0
2364,-1.5672355820126211,0
2365,1.3541709796693706,0
2366,-0.8089131260085587,0
2367,0.10899603485086143,0
2368,-0.17106466579129684,0
2369,-0.20348307837584317,0
2370,-0.060762948602608065,0
2371,-0.177717629407533,0
2372,-0.12913894881216514,0
2373,-0.020110919519379454,0
2374,-0.017899589177081177,0
2375,-0.06765105751711778,0
2376,-0.0038160082190041647,0
2377,-0.010235226974246253,0
2378,-0.15444986779139325,0
2379,0.017299933574690972,0
2380,0.3268382609437091,0
2381,3.941335836842152,0
2382,6.67982263742294,0
2383,-0.9617796234296065,0
2384,-1.6375162948308464,0
2385,1.4813299919553895,0
2386,-0.7943921518734155,0
2387,0.09211110125870725,0
2388,-0.11914038817068312,0
2389,-0.07864229624477201,0
2390,-0.13125988122728127,0
2391,-0.06553468579884696,0
2392,-0.1976325429496541,0
2393,-0.0873859611303666,0
2394,-0.09895644102064802,0
2395,-0.014251796936182351,0
2396,-0.08597449984184338,0
2397,-0.07505335728709489,0
2398,-0.08097459619382098,0
2399,-0.011197243963275406,0
2400,0.3803057958751819,0
2401,3.9300423670079523,0
2402,6.628484299298104,0
2403,-0.90979801459863,0
2404,-1.6193552357527417,0
2405,1.4854274499478746,0
2406,-0.7793851307988616,0
2407,0.20256331788450885,0
2408,0.008201698645406562,0
2409,0.034505420203943926,0
2410,-0.08640435553986948,0
2411,0.0397022094338676,0
2412,0.025782932619445954,0
2413,-0.06858125714190587,0
2414,-0.00799859059608043,0
2415,-0.021593802918343553,0
2416,0.04444641908165373,0
2417,-0.06048640834455037,0
2418,0.06959054149248668,0
2419,0.0012613997616970542,0
2420,0.3256789156670065,0
2421,3.8394444760328748,0
2422,6.731884314184291,0
2423,-0.9413734875387633,0
2424,-1.515119478822863,0
2425,1.4951587763045657,0
2426,-0.7874749111419052,0
2427,0.14318852334971877,0
2428,0.05131815205814119,0
2429,-0.08125947547498913,0
2430,0.008726714243383905,0
2431,-0.043036330522237945,0
2432,0.005515564889277451,0
2433,0.015836022075541994,0
2434,-0.039797520410218785,0
2435,0.0038702752342998827,0
2436,-0.041486887212096306,0
2437,0.1313981003455707,0
2438,-0.09427433168727653,0
2439,-0.06385768432891471,0
2440,0.4232706080301494,0
2441,3.920848377759293,0
2442,6.7274582376552745,0
2443,-0.9515720736308074,0
2444,-1.6460185520522734,0
2445,1.4944914975685848,0
2446,-0.7082538122097126,0
2447,0.15748370674240197,0
2448,0.011597071455500735,0
2449,-0.027476261935467636,0
2450,0.007571883348059659,0
2451,0.04988315721933231,0
2452,0.03291023115875685,0
2453,0.13690841302655865,0
2454,-0.03678940357078661,0
2455,0.04392296165864883,0
2456,-0.04557806109852333,0
2457,-0.04244203440183638,0
2458,-0.0643378216301014,0
2459,0.007330509443890586,0
2460,0.2901505695226586,0
2461,3.8451909429561257,0
2462,6.701565786988706,0
2463,-0.9231680924087615,0
2464,-1.6510535778566866,0
2465,1.4760356404305073,0
2466,-0.7414109604261139,0
2467,0.19140910917959225,0
2468,-0.08777768563603983,0
2469,-0.07478608385858837,0
2470,0.02460893868850866,0
2471,0.03563661608383174,0
2472,0.0036101434313330696,0
2473,0.03440098699737064,0
2474,0.05221572659918511,0
2475,-0.023505622280767947,0
2476,-0.05182548765177603,0
2477,-0.04561406835715813,0
2478,0.0425680576189083,0
2479,0.040462781001350596,0
2480,0.3185320174453551,0
2481,4.035404307228261,0
2482,6.746120703543336,0
2483,-0.9598448688388763,0
2484,-1.4938956959350331,0
2485,1.595371064654385,0
2486,-0.6990430975281167,0
2487,0.1877684718812387,0
2488,-0.003271997237168447,0
2489,0.061163650754731305,0
2490,0.09425289666521107,0
2491,-0.09025835840028121,0
2492,0.056197983926579126,0
2493,0.05029237958486427,0
2494,0.0314262371231237,0
2495,0.0701813463567021,0
2496,0.06843711556935353,0
2497,0.07908499510489922,0
2498,0.06183843887500741,0
2499,0.06282163150905051,0
2500,0.35744718402987785,0
2501,3.9916312827409426,0
2502,6.684594009471173,0
2503,-0.8737981961927123,0
2504,-1.5603607101317218,0
2505,1.4168300230652748,0
2506,-0.7165334781828149,0
2507,0.2542275600526464,0
2508,-0.024193861554663985,0
2509,-0.014955853600030702,0
2510,0.09413059405500834,0
2511,0.1108438377829569,0
2512,-0.06807924070398234,0
2513,0.055670431172931904,0
2514,0.00791479968186242,0
2515,-0.0641666843135483,0
2516,0.004972733279286268,0
2517,0.10328784150897907,0
2518,-0.016638064418059265,0
2519,0.058303289605835265,0
2520,0.37281116251010815,0
2521,4.044277245776152,0
2522,6.723039057011263,0
2523,-0.8698088486758626,0
2524,-1.551385808552694,0
2525,1.4703137179921428,0
2526,-0.763839484234202,0
2527,0.2718666798130201,0
2528,-0.03698623022364515,0
2529,-0.030771924502337625,0
2530,0.05501965179842418,0
2531,0.03758346999185955,0
2532,0.008180483119536924,0
2533,0.03706749196415489,0
2534,-0.04497067455031778,0
2535,0.04247234242294126,0
2536,-0.010524024598716746,0
2537,0.02542920976001263,0
2538,-0.06667478361966142,0
2539,0.001105318218925809,0
2540,0.48085636652921576,0
2541,3.873212898614956,0
2542,6.589768906064973,0
2543,-0.9358773092898053,0
2544,-1.4257709262296436,0
2545,1.617808447505231,0
2546,-0.7391698056712699,0
2547,0.2972320472528752,0
2548,0.07980868050400478,0
2549,0.061151113588666754,0
2550,0.02350854960108456,0
2551,0.10867442977691288,0
2552,0.09476077156499493,0
2553,0.16330140224332268,0
2554,0.15350414392985018,0
2555,0.05276935583911997,0
2556,0.05494957223208843,0
2557,0.08541891344641342,0
2558,0.08309737462947228,0
2559,0.08750005184211523,0
2560,0.4529545357059863,0
2561,4.039266617447061,0
2562,6.700866673574375,0
2563,-0.8306158091345545,0
2564,-1.5179254101463058,0
2565,1.4739641479832932,0
2566,-0.7261530060300708,0
2567,0.24976710102676294,0
2568,0.10072074245326253,0
2569,-0.052792039579728244,0
2570,0.04306498472913376,0
2571,0.010983157762344332,0
2572,0.02137900536016748,0
2573,-0.002801377694723042,0
2574,-0.007778852667510406,0
2575,0.011702816973589096,0
2576,0.0421305130787592,0
2577,-0.0005182619611222485,0
2578,0.015182710400203884,0
2579,0.04983594420330158,0
2580,0.4100726743111951,0
2581,3.9659184409420707,0
2582,6.6513014062763105,0
2583,-0.9666663981512714,0
2584,-1.4191604706155485,0
2585,1.5072084907852468,0
2586,-0.7707797497899272,0
2587,0.3250075616103546,0
2588,0.07019809611948512,0
2589,0.06661001765747646,0
2590,0.13148745382179022,0
2591,0.07302815455782177,0
2592,0.1219827137011551,0
2593,0.05600773593883303,0
2594,-0.05315868470521626,0
2595,0.11576245597504281,0
2596,0.118689024155396,0
2597,0.013016683188427927,0
2598,0.004764580373050838,0
2599,0.03963279733939881,0
2600,0.4240568036522321,0
2601,3.996518738930881,0
2602,6.685636976261395,0
2603,-0.884232626943187,0
2604,-1.4813400211244574,0
2605,1.4802952872755517,0
2606,-0.6985836119019073,0
2607,0.22895544240484023,0
2608,0.09234607887899066,0
2609,-0.022581141861771396,0
2610,-0.022290101744489435,0
2611,-0.030052111424623072,0
2612,0.06433684377949335,0
2613,0.021873320336913388,0
2614,0.032840757521909805,0
2615,0.09738427696125074,0
2616,0.0463201788247727,0
2617,-0.015601115781370335,0
2618,-0.014019147571767997,0
2619,0.017331257564218175,0
2620,0.41444089671130324,0
2621,3.9885674959763753,0
2622,6.706337682048621,0
2623,-0.9850113309784717,0
2624,-1.477265559987653,0
2625,1.5312143673917114,0
2626,-0.6971843472778544,0
2627,0.2876184895735587,0
2628,0.0356254728534763,0
2629,0.04672796177785185,0
2630,0.04682396053730947,0
2631,0.02022134295981507,0
2632,0.12508220175654636,0
2633,-0.008480591960497032,0
2634,0.035632308927389264,0
2635,-0.017077560359764425,0
2636,-0.017789539169430643,0
2637,0.015330371110148323,0
2638,0.040436442816909474,0
2639,0.09953691872435874,0
2640,0.43747174217300655,0
2641,3.9768434209639123,0
2642,6.696795756947545,0
2643,-1.0288231542951174,0
2644,-1.4924085183945244,0
2645,1.4686001697592124,0
2646,-0.7708677122422767,0
2647,0.22672318741636446,0
2648,0.02830699236820524,0
2649,-0.028138575683031006,0
2650,0.07769737770729658,0
2651,0.08084198170807373,0
2652,0.002592286433282298,0
2653,-0.02740607404650138,0
2654,0.15213675053761985,0
2655,0.08199671530474276,0
2656,-0.05391886256171899,0
2657,0.15226926160581822,0
2658,0.04080444848015988,0
2659,0.008800285947386369,0
2660,0.5136145673995249,0
2661,4.0684574904340876,0
2662,6.74141744462473,0
2663,-0.898298876263306,0
2664,-1.3472804878827551,0
2665,1.5376553753978655,0
2666,-0.674920216919464,0
2667,0.24993609488130925,0
2668,0.08136572208064893,0
2669,0.06166580860187775,0
2670,0.0733579015048751,0
2671,0.04001452546536462,0
2672,-0.04495619530199838,0
2673,0.023020679554572127,0
2674,-0.014857009023581006,0
2675,-0.04759037164076077,0
2676,0.021155722745923054,0
2677,-0.06547480646745327,0
2678,0.0934842515968559,0
2679,0.06206760939707226,0
2680,0.36105745133633055,0
2681,3.8954773723950455,0
2682,6.666085804864571,0
2683,-0.9290058136380097,0
2684,-1.5438248903343514,0
2685,1.383390339669,0
2686,-0.7007196072491466,0
2687,0.25527466029412943,0
2688,0.03966710623692756,0
2689,0.009481599784377326,0
2690,0.0645363604825894,0
2691,0.04471627129325427,0
2692,0.06982917061926382,0
2693,0.12249221316524123,0
2694,0.12261415617477547,0
2695,0.015409582526100446,0
2696,0.0395959087267096,0
2697,0.06366023716397806,0
2698,0.11837029541573488,0
2699,-0.012147377741478109,0
2700,0.43745782775517933,0
2701,4.028936082640846,0
2702,6.673057826861141,0
2703,-0.8986624961178563,0
2704,-1.3603555177619815,0
2705,1.4989220671148635,0
2706,-0.7708111773913348,0
2707,0.26847636268464486,0
2708,0.05641951779047482,0
2709,0.07084073171530036,0
2710,0.08167479653030846,0
2711,0.12151027673386472,0
2712,0.07168674624487342,0
2713,-0.011113685866908793,0
2714,0.1601264135424122,0
2715,0.05962348913370679,0
2716,-0.03855409987234794,0
2717,-0.05579494770145399,0
2718,-0.04948196115673198,0
2719,0.1256316171766201,0
2720,0.44389134741113906,0
2721,3.9966360397229472,0
2722,6.606718660046839,0
2723,-0.9168472479383586,0
2724,-1.5076332824060885,0
2725,1.5427552836954943,0
2726,-0.6332213173007037,0
2727,0.2542434906476112,0
2728,0.02471249975482956,0
2729,-0.01934451709346431,0
2730,-0.019456122103925638,0
2731,0.012317294235377228,0
2732,0.08170151380870914,0
2733,0.010686274899302815,0
2734,-0.004266767814779311,0
2735,0.1207132572139616,0
2736,0.14120996871759806,0
2737,0.0414578519463276,0
2738,0.08038032885226633,0
2739,0.00973853247614985,0
2740,0.47855219307046526,0
2741,4.084825058326454,0
2742,6.799285560511529,0
2743,-0.930038861263551,0
2744,-1.4965863567134954,0
2745,1.5648475620789373,0
2746,-0.6880817955940907,0
2747,0.23047755488816252,0
2748,-0.01566445395424502,0
2749,0.012939688515996778,0
2750,0.03695045425248817,0
2751,0.08069895922746403,0
2752,0.030709711093685563,0
2753,0.05521069971218511,0
2754,-0.007688242814638098,0
2755,-0.03362573936063589,0
2756,-0.049072999565825094,0
2757,-0.002708106406728132,0
2758,0.017449614572841908,0
2759,0.026639732987049518,0
2760,0.3779198772330842,0
2761,4.000825010970152,0
2762,6.694992653686009,0
2763,-0.9492928354398598,0
2764,-1.4124136273005568,0
2765,1.4160840840759708,0
2766,-0.7175358351710196,0
2767,0.271936447018038,0
2768,0.0269855577239048,0
2769,-0.008025557638125564,0
2770,0.029911207142545287,0
2771,-0.05324808591189373,0
2772,0.06574463714848797,0
2773,0.02896404144217263,0
2774,-0.04081130032522802,0
2775,0.041862782026330064,0
2776,-0.025776612412799837,0
2777,-0.001025773035993171,0
2778,0.007999736573190218,0
2779,-0.04575752878226902,0
2780,0.3515394017135415,0
2781,4.061039558558166,0
2782,6.69798975707896,0
2783,-1.0700682938307504,0
2784,-1.4630787329244819,0
2785,1.5232242842248704,0
2786,-0.6914759927767317,0
2787,0.1959779786391021,0
2788,-0.07021184278772505,0
2789,-0.030333415679226504,0
2790,-0.02531947666065425,0
2791,-0.03712940292423153,0
2792,-0.06957246510220387,0
2793,-0.015465858115515478,0
2794,0.05430104226129265,0
2795,0.09375967171202569,0
2796,-0.003718114198174113,0
2797,-0.02435946447460801,0
2798,-0.04773972904169237,0
2799,-0.019222767802173846,0
2800,0.3529683595306454,0
2801,4.109604484898206,0
2802,6.732846247301652,0
2803,-1.0681137080764866,0
2804,-1.5087761424054502,0
2805,1.4264567567232849,0
2806,-0.7772034901090245,0
2807,0.30272490747239006,0
2808,0.10491028475102059,0
2809,-0.00015844352646672208,0
2810,-0.038964119816437486,0
2811,0.04770777913847941,0
2812,0.03956990793337889,0
2813,-0.023993348227236474,0
2814,0.07201862320704794,0
2815,-0.09359995068806506,0
2816,0.0010838826422486705,0
2817,-0.04746238033140855,0
2818,-0.01630148269956839,0
2819,-0.034416376725269926,0
2820,0.4195938217053271,0
2821,3.9136528101693706,0
2822,6.615382696784183,0
2823,-1.1175932029497837,0
2824,-1.5055509123572854,0
2825,1.3645174260407142,0
2826,-0.7884669538193039,0
2827,0.2569239736705,0
2828,-0.048655471416831846,0
2829,-0.03146910536245209,0
2830,0.010575331065489534,0
2831,-0.06070659342255909,0
2832,0.0371380325469109,0
2833,0.012989408594535673,0
2834,-0.026552818198864486,0
2835,-0.006690941807868196,0
2836,0.01308559419696076,0
2837,0.013512196395021582,0
2838,0.04400802912374395,0
2839,-0.00035877304573274024,0
2840,0.31025960108534856,0
2841,3.9773048927207535,0
2842,6.519902793818509,0
2843,-1.1149097141858417,0
2844,-1.5603862422478774,0
2845,1.4704089392934647,0
2846,-0.7913498425300985,0
2847,0.2070799517241881,0
2848,-0.009543468874289222,0
2849,-0.01667854877086261,0
2850,0.058758261769202416,0
2851,-0.008092319840172639,0
2852,-0.06419287945363138,0
2853,-0.05927972704932095,0
2854,-0.01403209019517513,0
2855,0.017472458727066112,0
2856,0.08960619855773726,0
2857,-0.014521166229204565,0
2858,-0.062216123045062514,0
2859,-0.008932378126120976,0
2860,0.35111734291460167,0
2861,3.990871236225152,0
2862,6.646569153145619,0
2863,-1.0466998610051879,0
2864,-1.562093125075972,0
2865,1.3391416479805127,0
2866,-0.7894574123613142,0
2867,0.19134520588951595,0
2868,-0.06842899578673681,0
2869,-0.07744064427775495,0
2870,0.034090277283627735,0
2871,0.05045309991923769,0
2872,-0.028319526343213677,0
2873,0.006011150861338337,0
2874,-0.04362912929406694,0
2875,-0.06599285633911703,0
2876,-0.07401272323730979,0
2877,-0.06854126161922025,0
2878,-0.009527553630241636,0
2879,-0.03246591714184101,0
2880,0.46855747476482235,0
2881,4.05469190216021,0
2882,6.607345762780194,0
2883,-1.1149248310096522,0
2884,-1.4992573297863365,0
2885,1.4563643660788101,0
2886,-0.8281307868906038,0
2887,0.2586458861967578,0
2888,-0.02237506211685114,0
2889,-0.04144076111278913,0
2890,-0.028436990772761666,0
2891,0.008042573760936297,0
2892,-0.07422620523658119,0
2893,-0.04716486085962232,0
2894,0.002766813119930305,0
2895,-0.05923343375776595,0
2896,-0.045896619332255736,0
2897,0.046432488982890915,0
2898,0.0022867253808631846,0
2899,0.001751901629634997,0
2900,0.32820512608815156,0
2901,3.948652024915848,0
2902,6.558911016808879,0
2903,-1.101136091912055,0
2904,-1.487012363011694,0
2905,1.4661139504564442,0
2906,-0.8568113368651445,0
2907,0.18942403224273294,0
2908,-0.029372737069591703,0
2909,-0.05744733764133734,0
2910,-0.0024252492833630873,0
2911,-0.054678558738039604,0
2912,0.07427521092278577,0
2913,-0.029713089132656877,0
2914,0.01770474789354838,0
2915,-0.026754776649350755,0
2916,-0.04057673596230603,0
2917,-0.08617959649535453,0
2918,0.045985067128633386,0
2919,-0.037716939295980995,0
2920,0.36698476792373874,0
2921,3.9481894193613982,0
2922,6.5623341999285145,0
2923,-1.0767595257592848,0
2924,-1.4818607743880305,0
2925,1.3821500364619024,0
2926,-0.8069230310194986,0
2927,0.16768244369312907,0
2928,-0.06658796609586107,0
2929,-0.1090884174674433,0
2930,0.015511434916639965,0
2931,-0.02581014974517135,0
2932,0.009928455217162464,0
2933,-0.03106647200957973,0
2934,-0.050035589421412015,0
2935,-0.01216485558141657,0
2936,0.04838483053239062,0
2937,-0.021192546136045348,0
2938,-0.01384335094446036,0
2939,-0.015203551527209962,0
2940,0.3615143145349074,0
2941,3.9390441201277735,0
2942,6.694227313682154,0
2943,-1.0478702767542127,0
2944,-1.4877010437131952,0
2945,1.4505107771422607,0
2946,-0.8117136944148631,0
2947,0.2444750047468862,0
2948,-0.01905142609391297,0
2949,-0.0389648649556427,0
2950,0.02470367510179068,0
2951,0.03344569016085197,0
2952,-0.027000143792884505,0
2953,0.06177123872663486,0
2954,0.018539748593542668,0
2955,0.009381000434606285,0
2956,0.004435334041290165,0
2957,-0.012691670792014081,0
2958,0.008190740435323515,0
2959,-0.06633102455841088,0
2960,0.3866954741497822,0
2961,3.992428579050564,0
2962,6.6279207946313,0
2963,-1.1191234110199861,0
2964,-1.5009817275893413,0
2965,1.407926963472686,0
2966,-0.8141474891809799,0
2967,0.2375320537380202,0
2968,-0.08636416479806394,0
2969,-0.06803249406738979,0
2970,-0.040970100389381904,0
2971,0.03733812614918653,0
2972,0.0010082333694069884,0
2973,-0.009282681699220221,0
2974,-0.01568716501734383,0
2975,-0.07497651734379861,0
2976,-0.13154831118612226,0
2977,-0.06624004838202459,0
2978,-0.07037592165107572,0
2979,-0.06079865329212139,0
2980,0.40803838457351443,0
2981,3.949362785714177,0
2982,6.656787681881057,0
2983,-1.0503817744128348,0
2984,-1.4772318826250972,0
2985,1.4132072856142779,0
2986,-0.8647003953270707,0
2987,0.11768603782102216,0
2988,-0.06723861921430897,0
2989,-0.03529330885581149,0
2990,-0.06965878970898226,0
2991,-0.020451556328383358,0
2992,-0.06591911461383251,0
2993,-0.09829677561875325,0
2994,-0.09525610409544646,0
2995,-0.08612477619144569,0
2996,-0.11553349779389359,0
2997,-0.147823389087044,0
2998,0.011100195330007515,0
2999,-0.03027454635204375,0
3000,0.37556202383656534,0
3001,4.048649849213051,0
3002,6.530949325840089,0
3003,-0.9426727428371593,0
3004,-1.5553749247759359,0
3005,1.4677283446879663,0
3006,-0.836884672852032,0
3007,0.18281909040117655,0
3008,-0.04749569984076034,0
3009,-0.12615879124195428,0
3010,-0.10594122555149271,0
3011,-0.03826797935432857,0
3012,0.03045597109941879,0
3013,-0.12460823730877701,0
3014,-0.05358929680296355,0
3015,0.05611569307933481,0
3016,-0.023142472334646093,0
3017,-0.023297205789785565,0
3018,-0.07779200265403706,0
3019,-0.08258923780148328,0
3020,0.38880898767936867,0
3021,4.048984771934437,0
3022,6.557257004178075,0
3023,-1.087315543323871,0
3024,-1.5693585166551973,0
3025,1.5157852534019973,0
3026,-0.722170098125987,0
3027,0.2866205624184623,0
3028,-0.05635667631456181,0
3029,-0.12294754144444761,0
3030,0.035915042830825736,0
3031,-0.042726321363103045,0
3032,-0.0007303780277224791,0
3033,0.020977168939464143,0
3034,0.02375998592596148,0
3035,0.010004118525461028,0
3036,-0.08442883235806772,0
3037,-0.016861269807210373,0
3038,-0.038658444229636046,0
3039,-0.051787779465590905,0
3040,0.3309054381583839,0
3041,3.8830624036525845,0
3042,6.594814079326326,0
3043,-1.0847373796412836,0
3044,-1.5522148731421608,0
3045,1.4063005120015095,0
3046,-0.7278830988705438,0
3047,0.12641238696787097,0
3048,-0.08264417674975881,0
3049,-0.12781405918162808,0
3050,-0.11178853065870344,0
3051,-0.01302855867460033,0
3052,-0.03097716337334372,0
3053,-0.0411039106088192,0
3054,-0.05268303826975211,0
3055,-0.014840895255452593,0
3056,0.0439903129891062,0
3057,-0.04826653919538555,0
3058,-0.0004674010769884565,0
3059,-0.013727291222165334,0
3060,0.37562229510666184,0
3061,4.000956914165308,0
3062,6.697936479533777,0
3063,-1.1818900846224638,0
3064,-1.4773907717096977,0
3065,1.46220444818786,0
3066,-0.8779445434384816,0
3067,0.131459397716042,0
3068,-0.16665569619975235,0
3069,-0.20560846178213843,0
3070,-0.03639487480297059,0
3071,-0.13638434263263452,0
3072,0.06412617467353587,0
3073,-0.074213658768078,0
3074,-0.15872334651069264,0
3075,-0.161129158104452,0
3076,0.021760281187439376,0
3077,-0.04039806662276112,0
3078,0.015863761877055814,0
3079,-0.050751045336460174,0
3080,0.3580107196473333,0
3081,3.971939512462886,0
3082,6.6643874657768585,0
3083,-1.0884447816874288,0
3084,-1.4173544790107404,0
3085,1.35974612573347,0
3086,-0.8960739001131566,0
3087,0.09640215589860911,0
3088,-0.04514659280852541,0
3089,0.05826957476556739,0
3090,0.032596569933018786,0
3091,-0.16702646360821563,0
3092,-0.04005681095494383,0
3093,-0.06653967929824468,0
3094,-0.012516908174362289,0
3095,-0.04645199949555229,0
3096,-0.03977732176961699,0
3097,-0.039139016505781124,0
3098,-0.09631297779505452,0
3099,-0.05416599760670064,0
3100,0.36195707354177425,0
3101,3.9906861277624635,0
3102,6.5540028694297146,0
3103,-1.043015518354077,0
3104,-1.4389549957787235,0
3105,1.3695715233683399,0
3106,-0.7894030414263169,0
3107,0.24563034680537743,0
3108,-0.06266670118704618,0
3109,0.016362794660056384,0
3110,-0.037734657626104624,0
3111,0.036071129318851224,0
3112,0.0007944472429277927,0
3113,-0.07428536641678651,0
3114,0.045690847705967104,0
3115,-0.0918454071212087,0
3116,0.02836937926182658,0
3117,0.01024256851937349,0
3118,-0.032609779854466,0
3119,-0.023263651899102167,0
3120,0.3273995384124875,0
3121,4.0821429923047905,0
3122,6.650543009606825,0
3123,-1.1681876572506722,0
3124,-1.4263338051117926,0
3125,1.4851491702296158,0
3126,-0.8075066971863667,0
3127,0.11611307458493034,0
3128,-0.16557537931454172,0
3129,-0.03582662987894797,0
3130,-0.016373022879176365,0
3131,-0.0420722317847845,0
3132,-0.051247573936618204,0
3133,-0.12265283284474714,0
3134,-0.08282715425068107,0
3135,-0.057264007317340576,0
3136,-0.08642510577811797,0
3137,-0.07230771910294884,0
3138,-0.015745762733987312,0
3139,-0.06526156027484867,0
3140,0.4544857457354598,0
3141,4.039919815586823,0
3142,6.646469680875289,0
3143,-1.1177094854205418,0
3144,-1.5055121805702991,0
3145,1.3889914137719486,0
3146,-0.8803359505387789,0
3147,0.14542081374774546,0
3148,0.011031662140855748,0
3149,-0.0599709860849178,0
3150,0.08590468389390554,0
3151,0.07671001479297282,0
3152,0.0067482578819275385,0
3153,0.09617031307208888,0
3154,0.0986296537086485,0
3155,0.006489764559787409,0
3156,0.02422187235916682,0
3157,0.086332213009631,0
3158,0.05100951761669913,0
3159,0.014522465901964323,0
3160,0.4322761772468297,0
3161,4.084389938610951,0
3162,6.661463552967843,0
3163,-1.1318943399440655,0
3164,-1.4998522270029886,0
3165,1.3318013639712962,0
3166,-0.7970245354981641,0
3167,0.2022157557107807,0
3168,-0.01157361538496854,0
3169,0.0023507939701348166,0
3170,0.10047081242918235,0
3171,-0.006326451267414807,0
3172,0.023436102759131834,0
3173,-0.03143722831095528,0
3174,0.03731991435926804,0
3175,-0.007679257745104987,0
3176,-0.007136923609516924,0
3177,0.03241850458494128,0
3178,-0.020859630059920423,0
3179,-0.031029851771985383,0
3180,0.37291830103245427,0
3181,4.081781248744475,0
3182,6.626236399512464,0
3183,-1.1487817365686122,0
3184,-1.4991785761758534,0
3185,1.4775751429945136,0
3186,-0.8132480054500874,0
3187,0.14900143799652044,0
3188,-0.04867250793815671,0
3189,0.04078170800395202,0
3190,-0.023327526218896028,0
3191,0.10908262448685903,0
3192,0.143361908146556,0
3193,-0.0734758446270501,0
3194,0.04853168759401241,0
3195,0.019975954467585075,0
3196,-0.028101189507995915,0
3197,0.03161531166151697,0
3198,0.0518825639387025,0
3199,0.06957745339597234,0
3200,0.4910328774241377,0
3201,4.136696811374211,0
3202,6.698812529345533,0
3203,-1.0875922023394793,0
3204,-1.482439136133732,0
3205,1.3752596744757002,0
3206,-0.8010954348296534,0
3207,0.2968738110301594,0
3208,0.14855642793107535,0
3209,-0.052432769482462754,0
3210,0.0201887687162914,0
3211,-0.010234921445513467,0
3212,-0.08127538838804466,0
3213,0.008868496418930661,0
3214,-0.0144343781316168,0
3215,-0.09461063748570203,0
3216,0.05234943747432525,0
3217,0.06588113162490356,0
3218,0.11070027723206576,0
3219,-0.003582096804793211,0
3220,0.33111107272586,0
3221,4.028471693104994,0
3222,6.504893596690875,0
3223,-1.1452213003828455,0
3224,-1.4163147440237391,0
3225,1.4558807052636484,0
3226,-0.9157034620757234,0
3227,0.26397491539849305,0
3228,-0.11806869728715844,0
3229,-0.10505751007926842,0
3230,0.0653465186944772,0
3231,-0.025766255279183088,0
3232,-0.04499389672273586,0
3233,0.003979953822368295,0
3234,-0.05000245703189632,0
3235,-0.030611803117332675,0
3236,0.005387594458544604,0
3237,0.08224334055165604,0
3238,-0.012773510970374305,0
3239,0.02659210008913472,0
3240,0.4302970363534463,0
3241,4.071339199788375,0
3242,6.5827383415211544,0
3243,-1.092905756326489,0
3244,-1.422992518601413,0
3245,1.4316757993277955,0
3246,-0.8410696588606408,0
3247,0.1416297810723691,0
3248,-0.10599454536888184,0
3249,-0.10588476297114757,0
3250,-0.08403809492106573,0
3251,-0.15180373516174436,0
3252,-0.10020417172728092,0
3253,-0.014496935263280622,0
3254,-0.1295246831160767,0
3255,-0.15135078135405078,0
3256,-0.19221297120732705,0
3257,-0.0558611715346501,0
3258,0.02082417762227798,0
3259,0.010188212432353835,0
3260,0.35688168866255726,0
3261,4.071280364846172,0
3262,6.5831842807947245,0
3263,-1.2333708774722507,0
3264,-1.4672930756767055,0
3265,1.4018799494874286,0
3266,-0.7117914752583396,0
3267,0.24381871215632903,0
3268,-0.058578925423181716,0
3269,-0.04595049529963514,0
3270,-0.053086286752248205,0
3271,0.01548284763950486,0
3272,0.07058586217378746,0
3273,-0.024057093200041336,0
3274,-0.054566992302038,0
3275,0.05168023364070632,0
3276,0.03721387961655301,0
3277,-0.017718600690679744,0
3278,0.06115697353079094,0
3279,0.022037542478118663,0
3280,0.3787576111208198,0
3281,4.074516798946408,0
3282,6.548057606741832,0
3283,-1.1047481802273227,0
3284,-1.4695421290511368,0
3285,1.444201601382176,0
3286,-0.7742454321752715,0
3287,0.23233716635174415,0
3288,0.020222466164101782,0
3289,-0.09775326827880938,0
3290,0.04871238512230793,0
3291,-0.07745995911018069,0
3292,-0.039231475533829004,0
3293,-0.03779997369525777,0
3294,0.0037315788192882164,0
3295,-0.04345322612185633,0
3296,0.056419992938348984,0
3297,-0.0389171957410354,0
3298,0.09933137876244683,0
3299,-0.008597464860751261,0
3300,0.4148996499452005,0
3301,4.027765163802868,0
3302,6.626110891008596,0
3303,-1.109161191292001,0
3304,-1.4187282788527942,0
3305,1.449772193927538,0
3306,-0.7607841829416165,0
3307,0.20852178986471726,0
3308,0.03081961231301716,0
3309,0.05595997769973182,0
3310,-0.00942962575866007,0
3311,0.03079058990371345,0
3312,-0.005453685765036924,0
3313,0.0502883841116527,0
3314,-0.06672165980435794,0
3315,0.04617587800476817,0
3316,0.006351567690698489,0
3317,-0.031052151295015172,0
3318,0.01900909004104926,0
3319,-0.01098199640969607,0
3320,0.48121034177795496,0
3321,4.1099289030290445,0
3322,6.63700464404143,0
3323,-1.175367622124294,0
3324,-1.4352964978550704,0
3325,1.4830523903166228,0
3326,-0.7683019100723915,0
3327,0.12196454487228223,0
3328,-0.016837655768803556,0
3329,-0.1118279581144324,0
3330,0.010736184543568339,0
3331,-0.022475658514614832,0
3332,0.012852642119631188,0
3333,0.003718156605386179,0
3334,-0.11374054198883558,0
3335,-0.0540546848483217,0
3336,-0.1405828891072923,0
3337,-0.05389708189272405,0
3338,-0.08347401893096493,0
3339,-0.07049541657943036,0
3340,0.29187932546681444,0
3341,3.967910462837146,0
3342,6.445513783343614,0
3343,-1.2726928156780732,0
3344,-1.4152079854696564,0
3345,1.2865800805753551,0
3346,-0.7752700357150017,0
3347,0.2278556945578084,0
3348,0.021605223691453554,0
3349,-0.086732673049737,0
3350,0.0308875517257774,0
3351,-0.01584162967232932,0
3352,-0.08737966912074704,0
3353,0.008025198759629851,0
3354,-0.048468375096905575,0
3355,-0.07978003995727828,0
3356,0.006579369918397094,0
3357,-0.016127761605763104,0
3358,-0.048037403557795025,0
3359,-0.029457216177933142,0
3360,0.39324476185160095,0
3361,3.985009483982303,0
3362,6.609830434221917,0
3363,-1.215601517719578,0
3364,-1.4164060546390067,0
3365,1.3670379445128344,0
3366,-0.7971208569439876,0
3367,0.17684947967687956,0
3368,0.03475799051244867,0
3369,-0.03197837760513469,0
3370,-0.07222894714378181,0
3371,-0.03231593677345571,0
3372,-0.1135593369880208,0
3373,0.03649809325587049,0
3374,-0.07289907211756624,0
3375,0.025465849992789627,0
3376,-0.021758984920449944,0
3377,-0.09440870877229018,0
3378,0.01281115633672849,0
3379,-0.1037961244140614,0
3380,0.3435707831998434,0
3381,4.143975471782448,0
3382,6.619876326260016,0
3383,-1.0702692397116067,0
3384,-1.3510035454376745,0
3385,1.3507765623780554,0
3386,-0.8290431601422458,0
3387,0.21596972831237232,0
3388,-0.020055825847424227,0
3389,-0.050213527353969056,0
3390,0.011276647332423478,0
3391,0.009425745291312824,0
3392,0.027231140485079894,0
3393,0.10498434066134196,0
3394,-0.011404995425612808,0
3395,0.01642812335637036,0
3396,-0.10965526104097467,0
3397,0.034472429288963484,0
3398,-0.019130884291043086,0
3399,0.05879590935393604,0
3400,0.4005199094793785,0
3401,4.067834348330133,0
3402,6.542874329045021,0
3403,-1.2711831349932925,0
3404,-1.3494754325185485,0
3405,1.374801064117034,0
3406,-0.8014070127446398,0
3407,0.17612712198508315,0
3408,-0.036426370618850464,0
3409,-0.05909360847215592,0
3410,-0.01492675544213018,0
3411,-0.02524832478694216,0
3412,-0.04263485036065194,0
3413,0.04795280059831804,0
3414,-0.003932199326837568,0
3415,0.022255876065382,0
3416,-0.13924065916865147,0
3417,-0.06622129575670782,0
3418,0.06138266124192885,0
3419,-0.06209988974947518,0
3420,0.3567634603070032,0
3421,4.027495319362987,0
3422,6.510389023599166,0
3423,-1.2790839347182763,0
3424,-1.3889379957313208,0
3425,1.3789832274403655,0
3426,-0.853881215532973,0
3427,0.2727273013802219,0
3428,0.017221234809241072,0
3429,-0.03180249989220757,0
3430,0.035079743487424035,0
3431,-0.018129551172949163,0
3432,-0.07993120343764303,0
3433,-0.06494161170537378,0
3434,0.004574545165940774,0
3435,-0.009325699184071707,0
3436,-0.10246147513536913,0
3437,0.031460537332667446,0
3438,0.04944834310849151,0
3439,0.06943201875933806,0
3440,0.5272730387300276,0
3441,4.109419862663577,0
3442,6.620207140437194,0
3443,-1.0915556912217101,0
3444,-1.2662929947534542,0
3445,1.4544444226061217,0
3446,-0.7532886368336155,0
3447,0.2705560971480652,0
3448,0.06440142368449939,0
3449,-0.0056816173103598055,0
3450,0.11155360352011956,0
3451,-0.02633475423937711,0
3452,-0.02440066453238015,0
3453,-0.06370953793896042,0
3454,0.09981458892486623,0
3455,0.056040108847543464,0
3456,-0.011475086537747627,0
3457,-0.10134061118116279,0
3458,-0.13082676407933885,0
3459,-0.0167240280599113,0
3460,0.35287820756210375,0
3461,4.0805822686272,0
3462,6.531887053722546,0
3463,-1.2298996964847664,0
3464,-1.4973846236099886,0
3465,1.3282743517087938,0
3466,-0.876336593209128,0
3467,0.1424609176268967,0
3468,-0.046547137201682756,0
3469,-0.0897464914997163,0
3470,-0.04851729355418535,0
3471,-0.048604528919119,0
3472,-0.04331023764568131,0
3473,-0.0407386999012713,0
3474,-0.05848389297985213,0
3475,-0.04016503028692428,0
3476,-0.028374994220321963,0
3477,0.049006203531277936,0
3478,-0.07456137041074579,0
3479,-0.11918852937458108,0
3480,0.3792228915084609,0
3481,4.082650047550333,0
3482,6.508458994247266,0
3483,-1.315447724970915,0
3484,-1.3290411911810807,0
3485,1.3669131334811901,0
3486,-0.8157410244713801,0
3487,0.15241539113528924,0
3488,-0.13732753576060147,0
3489,-0.06640652779780415,0
3490,-0.000679798474714173,0
3491,-0.04730421474833421,0
3492,-0.02546614825420319,0
3493,-0.05402444841755243,0
3494,0.06903247380746802,0
3495,-0.02381976174606139,0
3496,-0.036679613943070406,0
3497,0.05702047301521509,0
3498,-0.09724691790681986,0
3499,-0.02369064220333583,0
3500,0.4498066933271301,0
3501,4.072267196102192,0
3502,6.5585902607888045,0
3503,-1.1586530853045849,0
3504,-1.3681758037359133,0
3505,1.3047223626060027,0
3506,-0.84795891493955,0
3507,0.23779645225879928,0
3508,-0.07547948840125653,0
3509,-0.07600404214183691,0
3510,-0.02276925685040246,0
3511,0.004438585707493059,0
3512,-0.14633452190987659,0
3513,-0.006124668474605674,0
3514,0.0004589589361092064,0
3515,-0.03267759930214232,0
3516,0.021907550805318934,0
3517,-0.05579429535017358,0
3518,0.03841316385099467,0
3519,-0.11608629797374265,0
3520,0.3514023286671543,0
3521,4.014241067489344,0
3522,6.440275095705012,0
3523,-1.2484665410371123,0
3524,-1.4664960867889834,0
3525,1.3652326376637487,0
3526,-0.8588884341702175,0
3527,0.18941944350430806,0
3528,-0.1449404868418668,0
3529,0.05754873349911922,0
3530,-0.11327943317800829,0
3531,-0.004249224223111095,0
3532,-0.02865095930787845,0
3533,-0.09625108935749357,0
3534,-0.06262405640151711,0
3535,0.013974278646274527,0
3536,-0.06172620317300394,0
3537,-0.09627173362311339,0
3538,-0.10795069495271897,0
3539,-0.08051460941725441,0
3540,0.4162731663115565,0
3541,4.087850674917015,0
3542,6.484237978614479,0
3543,-1.1653487598153203,0
3544,-1.444191684061506,0
3545,1.4291013929690386,0
3546,-0.8705748734230233,0
3547,0.2562204660922289,0
3548,-0.07248320133120872,0
3549,-0.02151991544384264,0
3550,-0.1006349961791369,0
3551,-0.1778458818237038,0
3552,0.010527194807940366,0
3553,0.006261888339983306,0
3554,-0.07003816844938004,0
3555,0.045926505854943636,0
3556,0.024927347025036843,0
3557,-0.03576641929581831,0
3558,0.022125313040108632,0
3559,0.011193375564171541,0
3560,0.3096904837877309,0
3561,4.123386737723397,0
3562,6.475814705181887,0
3563,-1.2757350021316993,0
3564,-1.3731203692113922,0
3565,1.3019704577454756,0
3566,-0.8584944752906176,0
3567,0.22101788789284937,0
3568,-0.10303893915352186,0
3569,-0.08332774336950528,0
3570,-0.0761663188591484,0
3571,0.06347449972504385,0
3572,-0.05695764193572852,0
3573,-0.08622905817989382,0
3574,0.008409810672601548,0
3575,-0.04197730695462469,0
3576,-0.04687800792991051,0
3577,-0.07558366244387073,0
3578,-0.07708639791656981,0
3579,-0.11658013398181624,0
3580,0.3643031652009455,0
3581,4.084583280101903,0
3582,6.581854123138648,0
3583,-1.3042303755896987,0
3584,-1.412422117615089,0
3585,1.2955381763069451,0
3586,-0.8036280773522707,0
3587,0.17512934645128864,0
3588,-0.04090781750755455,0
3589,0.0023090031261666505,0
3590,0.016496964165675802,0
3591,-0.03198262930222194,0
3592,-0.004982870470337415,0
3593,-0.08714993368173837,0
3594,-0.0688255454147578,0
3595,-0.060639265958634225,0
3596,0.02121955962331272,0
3597,0.06730840008928698,0
3598,-0.16295317969575265,0
3599,-0.09309773542658113,0
3600,0.40352276471350496,0
3601,4.0473092628887555,0
3602,6.4831916683826565,0
3603,-1.259431310352486,0
3604,-1.3434161265765558,0
3605,1.2799669418773516,0
3606,-0.8434724846069476,0
3607,0.181381961730257,0
3608,-0.12088321618774221,0
3609,-0.05280502294185782,0
3610,0.027103162630736435,0
3611,0.007391058481739828,0
3612,-0.05226141376938289,0
3613,0.14578120564379166,0
3614,0.018375098894565737,0
3615,0.07110774016857188,0
3616,0.08491070310671958,0
3617,-0.04058435406895153,0
3618,-0.017716099749149197,0
3619,0.03190289339493343,0
3620,0.4783799480037317,0
3621,4.182784784302555,0
3622,6.532702703434898,0
3623,-1.198381029904701,0
3624,-1.3825735029521289,0
3625,1.4544382116042622,0
3626,-0.7372915134294162,0
3627,0.11999896870937192,0
3628,-0.04282820961175401,0
3629,0.0011742224352865038,0
3630,-0.06985895362023116,0
3631,-0.06352255891114511,0
3632,0.034287171971656816,0
3633,-0.02704885183887346,0
3634,0.005629049521958758,0
3635,-0.06926251663598793,0
3636,-0.04748537332995706,0
3637,-0.014287669168233319,0
3638,-0.030423739066264634,0
3639,-0.05531385589447263,0
3640,0.423579175526724,0
3641,4.188375132776111,0
3642,6.491786841275929,0
3643,-1.134930033386224,0
3644,-1.2421922462621384,0
3645,1.4626673033045283,0
3646,-0.715335210428378,0
3647,0.356375572968307,0
3648,0.0902362054934374,0
3649,-0.05514945853197335,0
3650,0.0381795979582166,0
3651,0.08662061786060203,0
3652,0.03788175382669171,0
3653,-0.005797532770499693,0
3654,0.07421232815825254,0
3655,0.05896721569599459,0
3656,0.02428842099130902,0
3657,0.002961401592334532,0
3658,-0.03580788299092438,0
3659,-0.14513883620607668,0
3660,0.4579403911135628,0
3661,4.13719440443816,0
3662,6.4836763094032035,0
3663,-1.2827197072469199,0
3664,-1.4087910905495988,0
3665,1.3636767515451107,0
3666,-0.7956348268564426,0
3667,0.2454861519125388,0
3668,-0.09338616197445161,0
3669,-0.08630930997254202,0
3670,0.012416596798139485,0
3671,-0.033869106281598456,0
3672,0.10275216716075239,0
3673,0.039922672594218056,0
3674,0.05451643818403374,0
3675,0.031448795589090625,0
3676,0.02817366080101575,0
3677,0.004057567222296294,0
3678,-0.01782743634118311,0
3679,-0.08562496956536247,0
3680,0.4083634722019833,0
3681,4.248600469301177,0
3682,6.531942298892927,0
3683,-1.1735976674041442,0
3684,-1.3536812187561205,0
3685,1.3251140276902706,0
3686,-0.7278296748471375,0
3687,0.20510725356309606,0
3688,0.18660561236363918,0
3689,0.020593344488111544,0
3690,0.12479586766975989,0
3691,0.04578909764815392,0
3692,0.034261788316406944,0
3693,0.09335867345723857,0
3694,0.055749002853954024,0
3695,0.09266701019145851,0
3696,0.0657080447781262,0
3697,0.049079847935243934,0
3698,0.02947272606238923,0
3699,0.09738428257432398,0
3700,0.4457935256662826,0
3701,4.2060215530498,0
3702,6.554204999664438,0
3703,-1.2609416028618674,0
3704,-1.21692677628724,0
3705,1.443676058786511,0
3706,-0.7798667695821107,0
3707,0.3322713172712474,0
3708,0.08626121998274751,0
3709,0.05872986925226457,0
3710,0.1780874171395009,0
3711,0.09307485974721277,0
3712,0.08350819875307651,0
3713,0.0507646199830057,0
3714,0.08454075092145939,0
3715,0.06078870611711307,0
3716,0.07682421122762757,0
3717,0.12588453241765507,0
3718,0.1566712957235385,0
3719,0.03378187028649515,0
3720,0.479304760971996,0
3721,4.16505626917005,0
3722,6.570289110453073,0
3723,-1.1883383500093743,0
3724,-1.268670030130737,0
3725,1.5131519978586216,0
3726,-0.8206438620370913,0
3727,0.28168650779847315,0
3728,0.007454479779392665,0
3729,-0.026325642229679695,0
3730,0.03465077326061231,0
3731,0.02088640851164678,0
3732,0.016737494976080083,0
3733,0.03689048729747884,0
3734,-0.04061503942863323,0
3735,0.06242330164124728,0
3736,-0.028306477256446562,0
3737,-0.09371869978771932,0
3738,0.001038670702035947,0
3739,-0.08397560553507616,0
3740,0.3642901951095559,0
3741,4.140171416690882,0
3742,6.553307037847738,0
3743,-1.2991866070690827,0
3744,-1.3621915598568175,0
3745,1.406801240032542,0
3746,-0.8143659141147676,0
3747,0.1867044472831293,0
3748,0.02781476556099909,0
3749,-0.004888283350546856,0
3750,0.17864154402446886,0
3751,0.012292351433724183,0
3752,-0.00763124972422264,0
3753,-0.06113630165474748,0
3754,0.07299874250146599,0
3755,0.013006370876171004,0
3756,0.06157790714189392,0
3757,0.06843407849748046,0
3758,0.009454467852278183,0
3759,0.09325879362663742,0
3760,0.44490440272943715,0
3761,4.26542993000462,0
3762,6.570666466324432,0
3763,-1.2396429756064626,0
3764,-1.2311060213717653,0
3765,1.425086180072543,0
3766,-0.7272963975502262,0
3767,0.25616789570629395,0
3768,-0.03809950146883964,0
3769,-0.019426889162117614,0
3770,0.10221064620781353,0
3771,-0.07308592983192112,0
3772,0.14434896506122016,0
3773,0.00921850686621583,0
3774,0.12415440473300174,0
3775,0.03228314318313371,0
3776,0.025270177223037305,0
3777,0.10363928467703733,0
3778,0.04164401938186116,0
3779,0.04052669685901725,0
3780,0.3877756261739589,0
3781,4.2521520477496235,0
3782,6.519450657177484,0
3783,-1.3127573425465773,0
3784,-1.3303091958884987,0
3785,1.4250062507002026,0
3786,-0.7483637779865844,0
3787,0.24090013719279202,0
3788,0.0007794313683137308,0
3789,-0.05877686232996889,0
3790,0.05808183795235805,0
3791,0.031199096644445593,0
3792,0.04761874437153595,0
3793,-0.07358940649163222,0
3794,0.00608871606342386,0
3795,0.050741320419795316,0
3796,0.01909892799787765,0
3797,-0.02246358364999624,0
3798,-0.052789591852453195,0
3799,-0.029083772103318944,0
3800,0.38440401815539027,0
3801,4.16577728428121,0
3802,6.566542033523352,0
3803,-1.2433777685248706,0
3804,-1.3182202615857397,0
3805,1.3839310685810051,0
3806,-0.7891936671926822,0
3807,0.3103537806786147,0
3808,-0.07833027920932258,0
3809,0.0030875063024532754,0
3810,0.08383610528726082,0
3811,0.028952254329182574,0
3812,0.05851348905371624,0
3813,0.10191367520733377,0
3814,0.007371410715471156,0
3815,0.0482844774127701,0
3816,0.022828020212947796,0
3817,0.004901231674518593,0
3818,-0.01997564698710936,0
3819,0.03473780256218356,0
3820,0.490958869594766,0
3821,4.202957098959116,0
3822,6.534589723071332,0
3823,-1.241578146999917,0
3824,-1.3427886452696869,0
3825,1.4542800537787524,0
3826,-0.7587094085985964,0
3827,0.2160037565449228,0
3828,-0.06941692154634008,0
3829,0.022694020191912738,0
3830,0.09715775550076722,0
3831,-0.0262002521278851,0
3832,-0.06283567219557108,0
3833,0.04791842700977164,0
3834,-0.025857086728295505,0
3835,-0.005117264196639366,0
3836,-0.01488029235653389,0
3837,0.03417362210557323,0
3838,0.07413126367564665,0
3839,0.020355148165586354,0
3840,0.5044929847403254,0
3841,4.157251837088607,0
3842,6.557704744190284,0
3843,-1.2192271806648143,0
3844,-1.3288443864705797,0
3845,1.3474994987829167,0
3846,-0.8792202265267625,0
3847,0.2307604509123531,0
3848,-0.019739787819467745,0
3849,-0.04301102262592406,0
3850,-0.04918940234642995,0
3851,0.015455772885765173,0
3852,0.005447792086109741,0
3853,0.010998825416110327,0
3854,0.08164547538305891,0
3855,-0.014918667332692155,0
3856,-0.02784987023784487,0
3857,-0.03435983685872479,0
3858,-0.00026664235871339155,0
3859,-0.051689920943546304,0
3860,0.3890899094562399,0
3861,4.235991247745298,0
3862,6.572864493061927,0
3863,-1.3722449465950237,0
3864,-1.4039368317682317,0
3865,1.2967637269403163,0
3866,-0.7659016487866738,0
3867,0.08745256941605939,0
3868,-0.00043521935908958503,0
3869,-0.08085811491497241,0
3870,-0.008437313240468845,0
3871,0.0947027708027531,0
3872,-0.07524894555379509,0
3873,0.03523963604075749,0
3874,-0.04226768554304272,0
3875,-0.024233162412944084,0
3876,-0.07677035195148868,0
3877,-0.060333936603170546,0
3878,0.005277356438376094,0
3879,-0.006387673433229326,0
3880,0.39097898262912995,0
3881,4.155712046163735,0
3882,6.5416781463588505,0
3883,-1.2501045993463131,0
3884,-1.3107550172701652,0
3885,1.4137857975874193,0
3886,-0.752860539339702,0
3887,0.1745157537473184,0
3888,0.011804019477324361,0
3889,-0.012032716838053889,0
3890,0.05249525261387125,0
3891,0.0039327658877953645,0
3892,-0.0023712402853794286,0
3893,-0.038689910737484616,0
3894,0.04451120574189643,0
3895,0.05153192875511582,0
3896,-0.02188820949712842,0
3897,-0.028116273658913504,0
3898,-0.04158729805710087,0
3899,-0.014737878195622955,0
3900,0.35375561373058334,0
3901,4.195586576390994,0
3902,6.511445454290918,0
3903,-1.3541792979137266,0
3904,-1.2357329008186917,0
3905,1.403023841584487,0
3906,-0.8493571299480734,0
3907,0.19932210553765334,0
3908,-0.03748994571557314,0
3909,-0.033148531342893806,0
3910,0.12251634023418193,0
3911,-0.024841380801737943,0
3912,0.02112140354573337,0
3913,0.07079834343916341,0
3914,-0.022117496162546553,0
3915,-0.07750048550188056,0
3916,-0.08853010854769516,0
3917,-0.008013288821936432,0
3918,0.05204347514557407,0
3919,0.05518976155311607,0
3920,0.4055002419936784,0
3921,4.239750561745705,0
3922,6.453111585209651,0
3923,-1.259518667690244,0
3924,-1.317309340119032,0
3925,1.380862080836673,0
3926,-0.7981321162757457,0
3927,0.2498254099631071,0
3928,-0.08146168882585636,0
3929,-0.05397410515998907,0
3930,0.07068680471578123,0
3931,0.05977605480756268,0
3932,-0.08253697777006463,0
3933,-0.007362119364669902,0
3934,0.015336507414111439,0
3935,-0.012496787971939795,0
3936,-0.08480171511290376,0
3937,0.029316933799778528,0
3938,0.03442597563686173,0
3939,0.02217398896243733,0
3940,0.40618998419402286,0
3941,4.250690078594024,0
3942,6.507528991173439,0
3943,-1.3304130169186976,0
3944,-1.257477110262934,0
3945,1.3055933052050637,0
3946,-0.6605252409868296,0
3947,0.3042586084838155,0
3948,-0.07843342742789,0
3949,0.07050308166822317,0
3950,0.07344808533849868,0
3951,0.05233120571547912,0
3952,0.09436739224638102,0
3953,0.0552951892411862,0
3954,0.051113642769197457,0
3955,-0.0198329262152787,0
3956,0.10404389194923347,0
3957,0.018787961954081014,0
3958,0.07827770626213222,0
3959,0.06292734064986348,0
3960,0.40349348310228716,0
3961,4.1542375336327595,0
3962,6.56735863431084,0
3963,-1.296876093236892,0
3964,-1.3202080403770788,0
3965,1.3746006574600156,0
3966,-0.8964526324207819,0
3967,0.20236601259234285,0
3968,-0.0429278490665842,0
3969,0.019364082911351645,0
3970,-0.003827276830346224,0
3971,-0.0249972729942707,0
3972,0.06309936156148838,0
3973,0.02679227052961062,0
3974,0.008300936666072536,0
3975,-0.008900731861190178,0
3976,0.0355281805649908,0
3977,-0.05097241182868489,0
3978,-0.05859109122083881,0
3979,-0.1318708274438464,0
3980,0.40490256310718875,0
3981,4.198968152988819,0
3982,6.51970555229366,0
3983,-1.291538842588865,0
3984,-1.3670465277270807,0
3985,1.3896038223841265,0
3986,-0.632894587647683,0
3987,0.2748930336079476,0
3988,-0.014346990188886685,0
3989,-0.07588105473051475,0
3990,0.11474332134093021,0
3991,-0.06185210590035398,0
3992,0.029456892066196384,0
3993,-0.03380340637902163,0
3994,-0.06716461003849492,0
3995,-0.010118332162455185,0
3996,0.0509430853646334,0
3997,0.04602871473754937,0
3998,0.004845973396081412,0
3999,-0.00035320841336016796,0
4000,0.4434811471354391,0
4001,4.241838314855721,0
4002,6.497427064140072,0
4003,-1.3499722738638136,0
4004,-1.3156587615817736,0
4005,1.467490581569029,0
4006,-0.7060032312288784,0
4007,0.37929907019579145,0
4008,-0.0064606561234591825,0
4009,0.006599808409247218,0
4010,0.026479148653568235,0
4011,-0.018874225650209856,0
4012,-0.023664904306421656,0
4013,0.018024165014973448,0
4014,-0.04799421859741376,0
4015,0.0573172280327691,0
4016,0.02746096331627581,0
4017,0.005838564646858967,0
4018,-0.009352373432480136,0
4019,0.004307306707014423,0
4020,0.4585303874689722,0
4021,4.180292820901586,0
4022,6.491371248499505,0
4023,-1.2424521359449645,0
4024,-1.3456063007453798,0
4025,1.3363150906656684,0
4026,-0.7759956972276694,0
4027,0.24630123795717257,0
4028,-0.014578323130161924,0
4029,-0.05837809514739288,0
4030,-0.0005959208721076055,0
4031,-0.03134986213793822,0
4032,-0.01666176669719424,0
4033,-0.012749457978964557,0
4034,0.005059834338699742,0
4035,-0.03997419674754091,0
4036,-0.013155659811658478,0
4037,-0.006656390665752229,0
4038,0.0063197194947719314,0
4039,-0.03338986820891396,0
4040,0.4816052053110022,0
4041,4.2323854691747735,0
4042,6.477734253398787,0
4043,-1.3622697333953426,0
4044,-1.2863081036351849,0
4045,1.3632524798718577,0
4046,-0.8263366607203099,0
4047,0.19946823372837738,0
4048,-0.13437955555776895,0
4049,-0.1439055334577219,0
4050,-0.006733509298930414,0
4051,-0.07129269881419985,0
4052,-0.023950031134096342,0
4053,0.013408912731580777,0
4054,-0.06770557732091037,0
4055,-0.14331538636949204,0
4056,-0.04492873134996918,0
4057,-0.08831075277438345,0
4058,-0.0758973284850839,0
4059,-0.030462275553161302,0
4060,0.39954421084673675,0
4061,4.281489320215486,0
4062,6.530207729624641,0
4063,-1.244443150371639,0
4064,-1.2546493954696458,0
4065,1.4027038770089026,0
4066,-0.8198630789165832,0
4067,0.299626553062275,0
4068,0.024412613325333687,0
4069,0.04462143098288826,0
4070,0.014237279149205235,0
4071,-0.005331794125783194,0
4072,0.08339343361938761,0
4073,0.007635015218921463,0
4074,0.0901301128977906,0
4075,0.007649354516053319,0
4076,-0.014383241444978233,0
4077,-0.11695967991891514,0
4078,-0.025063970276345313,0
4079,-0.0450135962669952,0
4080,0.3826029255781348,0
4081,4.184050317836882,0
4082,6.453603920439178,0
4083,-1.3107283591418413,0
4084,-1.317116187772374,0
4085,1.3285289983690443,0
4086,-0.8240112261797671,0
4087,0.2270497478798718,0
4088,0.05938931405671194,0
4089,-0.0639199292860395,0
4090,0.09124812997014939,0
4091,0.11959566957483173,0
4092,0.03475339173949817,0
4093,-0.005983440661528443,0
4094,0.11110998612061729,0
4095,0.054977896242938834,0
4096,0.04923924273161887,0
4097,0.003940608024374303,0
4098,-0.03804515386878091,0
4099,-0.017011025357301507,0
4100,0.40640211108488533,0
4101,4.201934061433929,0
4102,6.561865144724243,0
4103,-1.3203785076919319,0
4104,-1.2790889669146488,0
4105,1.269058493756237,0
4106,-0.7745510643814981,0
4107,0.22653236894824993,0
4108,-0.05682766827762217,0
4109,-0.13250507487894714,0
4110,-0.02942116341098387,0
4111,-0.06951872561169645,0
4112,-0.009473955474727982,0
4113,0.020587572888841558,0
4114,0.021573842635000215,0
4115,0.012051369065235226,0
4116,0.0618041326951627,0
4117,-0.11618405530673677,0
4118,-0.049931511956533454,0
4119,0.044647840019319374,0
4120,0.41885700273004084,0
4121,4.235765659256711,0
4122,6.547524376917359,0
4123,-1.4025981374408187,0
4124,-1.249043758702556,0
4125,1.3113930998206453,0
4126,-0.890664543014853,0
4127,0.2711954480416407,0
4128,-0.004364393754052093,0
4129,0.05081536195064766,0
4130,-0.04006548736781439,0
4131,-0.09567371157043866,0
4132,0.033793943598498216,0
4133,-0.041466656337337454,0
4134,-0.06013246529945762,0
4135,0.04216391044746419,0
4136,-0.029710902534733723,0
4137,-0.02062188241709961,0
4138,0.00437322184314641,0
4139,0.00624926775576605,0
4140,0.4536306190061386,0
4141,4.225385996654958,0
4142,6.533582893392897,0
4143,-1.3883190007112711,0
4144,-1.2119352027312453,0
4145,1.3900640143456677,0
4146,-0.7959596443261029,0
4147,0.2863353804568251,0
4148,-0.019491009083291256,0
4149,-0.01610491410643455,0
4150,0.010988954669857992,0
4151,-0.04526833957063076,0
4152,-0.01702435172146856,0
4153,0.06458789320293296,0
4154,-0.10023954500346545,0
4155,-0.01873860570798737,0
4156,-0.03842944013854009,0
4157,-0.1179823199448933,0
4158,-0.006151577555806271,0
4159,-0.08500585411926753,0
4160,0.3873531771674494,0
4161,4.202863623105934,0
4162,6.426022872798332,0
4163,-1.3788604023878077,0
4164,-1.2635009327868998,0
4165,1.3084764867901861,0
4166,-0.8771079703209806,0
4167,0.2015993496589431,0
4168,-0.014702289113091294,0
4169,-0.07363367117855119,0
4170,0.07879406290194958,0
4171,0.023695993047674526,0
4172,-0.05799547587241886,0
4173,0.01557514560443879,0
4174,-0.057713228806979495,0
4175,0.014911601515986011,0
4176,0.06739649094759742,0
4177,-0.002376549691977623,0
4178,0.01816871937373334,0
4179,0.008581928158793752,0
4180,0.4901716075623111,0
4181,4.219588369935616,0
4182,6.4958786754546916,0
4183,-1.3961957006280579,0
4184,-1.1664758642986894,0
4185,1.3424650446462552,0
4186,-0.7664705141402661,0
4187,0.24681249666938493,0
4188,-0.14506997152268844,0
4189,-0.09394455115332773,0
4190,-0.07569135334261243,0
4191,0.006741957048269541,0
4192,-0.06696022046678962,0
4193,-0.10099209795195341,0
4194,0.02122936309564919,0
4195,-0.021706566327919542,0
4196,0.0023469064797525183,0
4197,0.030750606059353425,0
4198,-0.12133652658639404,0
4199,-0.09248610023251094,0
4200,0.39709358947891155,0
4201,4.228760407224909,0
4202,6.5026289522770115,0
4203,-1.4450803419292002,0
4204,-1.2726093164004229,0
4205,1.3717711953904559,0
4206,-0.8840941784822409,0
4207,0.26451187028393075,0
4208,-0.0009280980565824493,0
4209,0.04152083952139736,0
4210,-0.031424588291140726,0
4211,-0.011855896298870442,0
4212,-0.11161535701989461,0
4213,-0.03401839689095333,0
4214,-0.10534138920155679,0
4215,0.0474124570745881,0
4216,-0.0038274203946908857,0
4217,-0.03710068747266811,0
4218,-0.03504631153692344,0
4219,-0.05492698022255018,0
4220,0.44191435692588443,0
4221,4.161620170554184,0
4222,6.367471936584374,0
4223,-1.4867844029846804,0
4224,-1.3363281418822741,0
4225,1.3519435445897063,0
4226,-0.8526363131726706,0
4227,0.20184967535317244,0
4228,-0.08476934968256183,0
4229,-0.11459566648331834,0
4230,-0.06201743027372822,0
4231,-0.03543474159766606,0
4232,0.026534299280225104,0
4233,-0.013261838693568472,0
4234,-0.040587731991759704,0
4235,0.037471900227276485,0
4236,0.0056710822963514235,0
4237,-0.050015374964990686,0
4238,-0.09519965507113737,0
4239,-0.050972007470452614,0
4240,0.42815804414841724,0
4241,4.228422186876644,0
4242,6.591307619221196,0
4243,-1.4517173258296765,0
4244,-1.3274927803371792,0
4245,1.4049403155762334,0
4246,-0.7895044435199958,0
4247,0.2060001583557236,0
4248,-0.022072844905655056,0
4249,-0.06065047297205243,0
4250,-0.11847639755404205,0
4251,-0.025300664715058107,0
4252,-0.023668732347887626,0
4253,-0.01823670040147725,0
4254,-0.008132652566213702,0
4255,-0.0062970462653711284,0
4256,0.006283517126043182,0
4257,0.041008205538988055,0
4258,0.04860445953639407,0
4259,-0.028488077076595848,0
4260,0.36238428102173875,0
4261,4.282002976506739,0
4262,6.410358177940846,0
4263,-1.5023264917904264,0
4264,-1.2097762009535182,0
4265,1.4314802414705372,0
4266,-0.8608266577347572,0
4267,0.20873323232016755,0
4268,-0.07343019389469657,0
4269,-0.025550883944204683,0
4270,-0.018055398176699076,0
4271,0.07810712361020074,0
4272,0.011229749967546282,0
4273,0.0573985964009077,0
4274,-0.04479093498936271,0
4275,0.04528943817927011,0
4276,0.023728447839055294,0
4277,-0.060458429647976465,0
4278,0.026189966812303664,0
4279,-0.06181648187965423,0
4280,0.48439366684866425,0
4281,4.299887219397021,0
4282,6.454615971939991,0
4283,-1.299913607063104,0
4284,-1.1817232211433581,0
4285,1.3478316289432446,0
4286,-0.7417709663444586,0
4287,0.23586612778658972,0
4288,-0.07135720652900081,0
4289,-0.07002469472956512,0
4290,-0.014500645339691741,0
4291,0.08532630291922635,0
4292,0.06977040140854199,0
4293,0.06837581256155083,0
4294,0.037487587232910596,0
4295,-0.013139996478780891,0
4296,-0.07072755166298204,0
4297,-0.03274661659043795,0
4298,0.01970936510923238,0
4299,0.0077666977183208094,0
4300,0.4540179968295689,0
4301,4.315393985819101,0
4302,6.464268649179032,0
4303,-1.3054608387854845,0
4304,-1.3015282965434316,0
4305,1.3400195855355599,0
4306,-0.8164793539863112,0
4307,0.19586340277475978,0
4308,-0.0824257732881872,0
4309,-0.03760846344104635,0
4310,0.058122388456609476,0
4311,0.0015690076539188573,0
4312,0.029110030299749786,0
4313,0.009467980517214817,0
4314,0.015940197565844045,0
4315,-0.06977881358539789,0
4316,-0.0369548018430892,0
4317,0.030594442762469382,0
4318,-0.0162592205779846,0
4319,0.04542164700277339,0
4320,0.4412901046404646,0
4321,4.337669267849355,0
4322,6.5327936872593515,0
4323,-1.323639942224964,0
4324,-1.130489307204862,0
4325,1.3487282094320066,0
4326,-0.7402049538966995,0
4327,0.26882552802793835,0
4328,-0.0208431947400463,0
4329,0.046338233287677916,0
4330,0.0917498806345251,0
4331,0.05503959317090276,0
4332,-0.02089468054942495,0
4333,-0.03395959029769437,0
4334,0.05739571657547012,0
4335,0.07914861003644108,0
4336,0.00039426727425008815,0
4337,0.028835137737014516,0
4338,0.13152859179031787,0
4339,0.005238247883027951,0
4340,0.5625728334018485,0
4341,4.367789486027826,0
4342,6.484121742485313,0
4343,-1.2761874759647303,0
4344,-1.131773899655717,0
4345,1.483630011574501,0
4346,-0.6952305654031464,0
4347,0.3074561233014417,0
4348,-0.04665670857934393,0
4349,0.10684403719958943,0
4350,0.0543491833244054,0
4351,-0.024066769356281423,0
4352,0.05708638500606867,0
4353,0.11480017636032923,0
4354,-0.007503308459716612,0
4355,0.026517535512218846,0
4356,0.0254381274418495,0
4357,0.09138691473434005,0
4358,0.17062439401440863,0
4359,0.008105224526655193,0
4360,0.43186545354612443,0
4361,4.239604009601454,0
4362,6.442669643063684,0
4363,-1.3819018559117446,0
4364,-1.1143634803715101,0
4365,1.4542602577476929,0
4366,-0.7816197359183048,0
4367,0.25067067623553774,0
4368,-0.11083890338792718,0
4369,-0.07645389330493157,0
4370,0.07813228585660953,0
4371,-0.12896750631983883,0
4372,-0.007301219134393723,0
4373,0.06851208302557962,0
4374,-0.012189400719340316,0
4375,-0.02488933515408257,0
4376,0.029971477301475827,0
4377,-0.01879171002320191,0
4378,0.05084700276139104,0
4379,0.019828493786699514,0
4380,0.5741060013217829,0
4381,4.514858200305904,0
4382,6.530238378696681,0
4383,-1.4524515336538961,0
4384,-1.1316260626201948,0
4385,1.3396599429394842,0
4386,-0.7932921603316059,0
4387,0.3326776402021701,0
4388,-0.023691678597127355,0
4389,-0.02940033506592497,0
4390,0.08419086478678992,0
4391,-0.03279658903285227,0
4392,0.028478116865409762,0
4393,0.08850265083647317,0
4394,-0.023876407522006406,0
4395,0.08784268402720243,0
4396,-0.004107045225551404,0
4397,0.03820797276340837,0
4398,0.08518892094325713,0
4399,-0.0032152274822521663,0
4400,0.5116727620191706,0
4401,4.368432072868372,0
4402,6.463305785603441,0
4403,-1.3741257868383236,0
4404,-1.0242381424727127,0
4405,1.46384268813118,0
4406,-0.6902833646839692,0
4407,0.3572495584848529,0
4408,0.01744368704712257,0
4409,0.15058534595287168,0
4410,-0.010055028395257418,0
4411,-0.0024219365996456035,0
4412,-0.010973752545622741,0
4413,0.0718248309173117,0
4414,0.042277624752051955,0
4415,0.04944576483266216,0
4416,0.0034279821846895184,0
4417,0.022709740621188718,0
4418,0.0005968104689378546,0
4419,0.031067508138276315,0
4420,0.4715371990788664,0
4421,4.295329419995335,0
4422,6.379481567654603,0
4423,-1.4772825908979985,0
4424,-1.1702295453094391,0
4425,1.3835336421905153,0
4426,-0.825513935482192,0
4427,0.2897746520802812,0
4428,0.02128677610600021,0
4429,-0.14789244943945073,0
4430,-0.011146630361635244,0
4431,-0.03636478961318519,0
4432,0.001794670681966943,0
4433,-0.02419464231248039,0
4434,-0.14385872110657993,0
4435,-0.029645603496359762,0
4436,0.00982654139025041,0
4437,-0.08325455140556906,0
4438,-0.01669787157106056,0
4439,0.009586406669246574,0
4440,0.4613887729868464,0
4441,4.307966613090279,0
4442,6.410300028658012,0
4443,-1.3923455711349164,0
4444,-1.2466253960099787,0
4445,1.3956186251291258,0
4446,-0.7421682481945948,0
4447,0.2693391108824986,0
4448,-0.12825165848007605,0
4449,0.002963668059309305,0
4450,-0.014648730360760424,0
4451,-0.06588645946412026,0
