timestamp,value-0,is_anomaly
0,0.26016029082152825,0
1,3.543586060078847,0
2,6.978255403010105,0
3,-0.06312687412937748,0
4,-1.8683063989550437,0
5,1.5645518988376328,0
6,-0.670034254938125,0
7,0.21409205675827703,0
8,-0.013519871627588581,0
9,0.012927259751392257,0
10,0.12796645694196712,0
11,0.027728202996764137,0
12,0.06824618578500914,0
13,0.11836422203227237,0
14,0.09026966027791009,0
15,0.06963615435987125,0
16,0.06757840562296372,0
17,0.06508213776472671,0
18,0.05650647897943208,0
19,0.010548565980296638,0
20,0.2972843341633957,0
21,3.517930322918801,0
22,6.900983580159485,0
23,-0.28264957250876166,0
24,-1.9232516213794941,0
25,1.5847708615419562,0
26,-0.6786834695988965,0
27,0.15932683584462493,0
28,0.11032495699955111,0
29,-0.03150836924854847,0
30,0.005612095836757917,0
31,-0.0017228719023026015,0
32,0.08851478572029722,0
33,-0.05423647194009266,0
34,-0.03473472798617503,0
35,0.1891301589432746,0
36,0.032397210134382314,0
37,0.11729543903048187,0
38,0.02035524518621533,0
39,0.10627992305969702,0
40,1.3095551264486112,1
41,4.501728050055086,1
42,7.956262188607262,1
43,0.7688800110326907,1
44,-0.9815879789953244,1
45,2.571733437810595,1
46,0.2763310646563041,1
47,1.1204873351185047,1
48,1.0062752519765632,1
49,0.9538558750398012,1
50,1.1266291552860879,1
51,0.9936787873544697,1
52,1.0850555966040947,1
53,0.9572382966704283,1
54,1.0750842916630043,1
55,1.0567271272567929,1
56,1.096507773255604,1
57,1.0532261836098797,1
58,1.0061617586843223,1
59,1.0299762549536131,1
60,1.2966465402289218,1
61,4.4839872920182735,1
62,7.854569363062755,1
63,0.7440336989507819,1
64,-0.9631791822927462,1
65,2.525135121050591,1
66,0.3142530865322649,1
67,1.1426124103992172,1
68,0.9970004213092112,1
69,1.0110141274084488,1
70,1.05556617182592,1
71,0.9097368629519164,1
72,0.9921117474221909,1
73,1.0656869667890543,1
74,1.0116248020293381,1
75,1.050538242430691,1
76,1.0444933032893506,1
77,0.8754887404958479,1
78,1.0591337180790004,1
79,0.9315406242066239,1
80,1.2879967948734807,1
81,4.5283160202436,1
82,7.92517999192735,1
83,0.6809340630293028,1
84,-0.9731120446845638,1
85,2.539885744258774,1
86,0.2533516655485277,1
87,1.144678529481381,1
88,0.9720758443003493,1
89,0.9247906390909361,1
90,1.0622939963804487,1
91,0.9410711026034669,1
92,1.0429577906402714,1
93,1.0616891029498667,1
94,1.0648416203444013,1
95,1.0707118284630044,1
96,1.0258535392035746,1
97,1.025124135800591,1
98,0.9568207732463478,1
99,0.9895703817935037,1
100,1.3305836254543744,1
101,4.58724824556827,1
102,7.9548762861460265,1
103,0.8084179106388447,1
104,-0.913716347147978,1
105,2.589393521249059,1
106,0.3457185041293055,1
107,1.221985753418926,1
108,1.1067145613932756,1
109,0.956128690526525,1
110,1.0769791076497892,1
111,1.004551795163713,1
112,0.9820624136089036,1
113,0.8896341541753761,1
114,0.9747012564347349,1
115,0.9539755213467915,1
116,0.9834639463539656,1
117,0.9742762657228758,1
118,0.9593184356435241,1
119,0.8392012125858702,1
120,1.2921124934103276,1
121,4.579376132453492,1
122,7.8549243724618245,1
123,0.6745368012832464,1
124,-0.9373398989551953,1
125,2.68421319772192,1
126,0.38725299655793044,1
127,1.191735817549854,1
128,1.1149232189088323,1
129,0.914983336609254,1
130,1.0618991367704012,1
131,1.054005180372475,1
132,1.142414546046135,1
133,1.0750883540341822,1
134,0.876397134490301,1
135,1.0467386211681324,1
136,1.0189454267029383,1
137,0.9707416136700983,1
138,0.9276846863847722,1
139,0.8896650300691602,1
140,0.24070546776506024,0
141,3.4247221248777984,0
142,6.843778011202724,0
143,-0.36744021726728887,0
144,-1.9394377259784301,0
145,1.5878526083510047,0
146,-0.7103787183959762,0
147,0.15184456156134696,0
148,0.0603291778761281,0
149,-0.023827138021886234,0
150,0.006048391872962022,0
151,0.03306154527574977,0
152,0.07410309770309483,0
153,-0.059513729415801325,0
154,0.13923581649888297,0
155,-0.0028462455180631417,0
156,0.039920040694791506,0
157,-0.07527254612581216,0
158,-0.04437282657817097,0
159,0.0029162475223933476,0
160,0.3309187994781424,0
161,3.5119053520614973,0
162,6.880861700859195,0
163,-0.395539260262175,0
164,-1.9986891552936865,0
165,1.5522797496169713,0
166,-0.7890709496861481,0
167,0.043813833875131644,0
168,0.02590601953492904,0
169,-0.1443853620916027,0
170,-0.044773568128738006,0
171,-0.05239885360874677,0
172,-0.02924008999172171,0
173,-0.024605715004195255,0
174,0.04436987990372636,0
175,-0.009356847337744736,0
176,0.00418979833261484,0
177,-0.05527631654450771,0
178,0.04446642551106035,0
179,0.07628535709158747,0
180,0.1956617935686428,0
181,3.517025448161919,0
182,6.85837048365486,0
183,-0.30107891867691,0
184,-1.9171631660098947,0
185,1.479025063966767,0
186,-0.7497735709384071,0
187,0.08742123510635813,0
188,-0.08958438544359262,0
189,-0.006243695764698687,0
190,-0.014843470609603636,0
191,-0.02927298154278137,0
192,-0.04530473603498189,0
193,-0.1722172145289763,0
194,-0.1852748098420165,0
195,-0.024111024761480568,0
196,-0.09464075940090845,0
197,-0.03139168633852987,0
198,-0.0032481813134402765,0
199,-0.0027718473751252443,0
200,0.14620681339263458,0
201,3.4442130576026924,0
202,6.84913746871643,0
203,-0.28883619615153516,0
204,-2.065023493603519,0
205,1.511786502154518,0
206,-0.7159686409809596,0
207,0.06488176432433546,0
208,0.05498434010516519,0
209,-0.10924423054808462,0
210,0.06352399118612681,0
211,0.024882734143217636,0
212,-0.030247856080119623,0
213,-0.011488439683591015,0
214,-0.04159065438827894,0
215,0.0016872846414600906,0
216,-0.06027829969523449,0
217,-0.022023558888912505,0
218,-0.05567909936523922,0
219,-0.050614789181954944,0
220,0.16978279650406408,0
221,3.4633148127140028,0
222,6.8812407920073415,0
223,-0.3496564941283965,0
224,-1.931039312800109,0
225,1.5618771081132738,0
226,-0.6524786027368776,0
227,0.12423859180007793,0
228,0.008616023991219017,0
229,-0.008605847369494553,0
230,0.036714363514210355,0
231,-0.03643848183837055,0
232,-0.014863742817899234,0
233,0.030467930327978714,0
234,0.07054305066298655,0
235,0.010755869586470328,0
236,-0.057271443235928685,0
237,0.0482654123391139,0
238,-0.12961504731470275,0
239,0.095334680040093,0
240,0.17118436077196675,0
241,3.618322748634343,0
242,6.7480853304358615,0
243,-0.4048271221609196,0
244,-1.9325924145337643,0
245,1.5500182744483137,0
246,-0.7444752366398778,0
247,0.05989077176616847,0
248,0.0479991831942993,0
249,-0.017702973037209597,0
250,-0.031223139182826286,0
251,-0.05809067953128578,0
252,0.0747887908051699,0
253,-0.0255858339235072,0
254,-0.016163455645393454,0
255,-0.06359239385714952,0
256,0.014461100450100635,0
257,-0.0335773933844616,0
258,-0.07649794303940685,0
259,-0.12026167924450759,0
260,0.18706690157461603,0
261,3.5514910109200195,0
262,6.834182052074706,0
263,-0.3127529023886167,0
264,-1.952367252236051,0
265,1.550913432550735,0
266,-0.6815113939904163,0
267,0.1897222642894231,0
268,-0.05010490074445,0
269,-0.0735371035697264,0
270,0.056852366953628594,0
271,0.016148468353896318,0
272,0.01814643039481224,0
273,-0.018731263690176043,0
274,-0.050462305657426876,0
275,0.06418742607342803,0
276,-0.02940413565841454,0
277,-0.005128047430609267,0
278,-0.010464939706656434,0
279,-0.0409384827243425,0
280,0.24625158258968294,0
281,3.523836463848669,0
282,6.884191946122481,0
283,-0.2695181495727005,0
284,-1.8646120171281098,0
285,1.6113448570949733,0
286,-0.7048607516615207,0
287,0.26717069101748225,0
288,0.17798004875599907,0
289,0.05447590532926637,0
290,0.1231733121629396,0
291,0.03952970111055847,0
292,0.03919072411254162,0
293,0.04981127375210505,0
294,0.09465005079770139,0
295,0.0341792055859887,0
296,0.005085426439825749,0
297,0.05169437838950645,0
298,0.012591338142544154,0
299,0.14335422098886594,0
300,0.2504414699613161,0
301,3.64163398617264,0
302,6.8851282998155074,0
303,-0.35236211272994133,0
304,-1.9464019188979789,0
305,1.4601924865281495,0
306,-0.6934395013118828,0
307,0.018126036652228186,0
308,-0.021863461241437912,0
309,-0.13214618353569293,0
310,-0.10024211329291194,0
311,-0.004505275873491046,0
312,-0.00881090094680144,0
313,-0.01559237185709151,0
314,0.0075084330941479,0
315,-0.001475890180334144,0
316,0.036407831883271166,0
317,-0.06199553670970167,0
318,0.07666634276735647,0
319,-0.002409938717758263,0
320,0.2885039167666635,0
321,3.5853834023896574,0
322,6.991750878648904,0
323,-0.22211801524821606,0
324,-1.826911049002768,0
325,1.6053103960282822,0
326,-0.691576878905894,0
327,0.22793775863872318,0
328,0.049422414343093246,0
329,-0.030238045209660613,0
330,-0.010234482690210392,0
331,-0.05816845374698512,0
332,0.025984506194086467,0
333,-0.07781698977467243,0
334,-0.10919129245675624,0
335,0.04371022894750948,0
336,-0.03928376771639311,0
337,-0.0884955531000969,0
338,-0.008737777695055935,0
339,-0.03344071621527418,0
340,0.2511810802108418,0
341,3.481785005403978,0
342,6.865363990393072,0
343,-0.4021246442374953,0
344,-2.003912944577425,0
345,1.5655307195421055,0
346,-0.6706429421949717,0
347,0.199176590774521,0
348,0.06752758263978337,0
349,-0.0407331540952825,0
350,0.010556706223306098,0
351,-0.08476421697741296,0
352,0.03856857202874431,0
353,0.08546022687253396,0
354,-0.007703617426330495,0
355,0.08051679412596557,0
356,-0.03956842460595948,0
357,-0.07540163328372543,0
358,0.017038111235252427,0
359,0.012737711346609316,0
360,0.29568152623254196,0
361,3.5447269105008834,0
362,6.800950692163121,0
363,-0.35136377209280706,0
364,-1.9485529507218882,0
365,1.5235427356744,0
366,-0.7004193831947231,0
367,0.18876128632170588,0
368,0.008463941858738982,0
369,-0.045853666518931524,0
370,-0.00032783178097985435,0
371,-0.04802007199852583,0
372,-0.09129654165661273,0
373,0.02032458511521243,0
374,0.027183619406301422,0
375,0.08701308757338704,0
376,0.0245543624986753,0
377,0.07970798745394134,0
378,-0.034190716203527045,0
379,-0.06878589709862194,0
380,0.2938183492599068,0
381,3.580052466973374,0
382,6.912957617183091,0
383,-0.387649573142022,0
384,-1.9368634164854235,0
385,1.642707994572661,0
386,-0.7297712064322536,0
387,0.11972239786279032,0
388,0.042485093825928286,0
389,-0.07048118471737352,0
390,0.10360377434240352,0
391,-0.03322220658038966,0
392,0.02643937394116734,0
393,0.052392083518785916,0
394,-0.016947261411836036,0
395,0.044057761802697576,0
396,0.011833864385539579,0
397,-0.003703751739610295,0
398,0.0074667584855034625,0
399,0.0372924048574706,0
400,0.39344725639372546,0
401,3.6016159095111058,0
402,6.806293470565007,0
403,-0.2926945107184764,0
404,-1.9150266653381363,0
405,1.500675351713388,0
406,-0.7854840360412078,0
407,0.17275821970805966,0
408,0.07246612004305135,0
409,-0.13814698638956102,0
410,-0.0067947747336083615,0
411,0.054185610711163956,0
412,-0.03868038523755933,0
413,0.030293631993407226,0
414,-0.001381993560803622,0
415,-0.13021892754709302,0
416,-0.037660925400844675,0
417,0.019801147282307762,0
418,0.045194884263185,0
419,0.050250287203682645,0
420,0.47658772291749596,0
421,3.6140499405280915,0
422,6.778572006009397,0
423,-0.4336729679061891,0
424,-1.9668465533026402,0
425,1.5625504911808257,0
426,-0.7135368501884622,0
427,0.17320663821907978,0
428,0.05479439115305413,0
429,-0.013109330659187554,0
430,0.004421500868722894,0
431,-0.03668852818601949,0
432,-0.1395612923329727,0
433,0.018882474702721017,0
434,0.008294308689361492,0
435,-0.06916423573610164,0
436,-0.10912789577928306,0
437,-0.06503679192168527,0
438,0.001370414485362778,0
439,-0.11899569463948187,0
440,0.19147309113737657,0
441,3.5155640030089472,0
442,6.836534301613827,0
443,-0.4601290541821325,0
444,-1.8729804866408073,0
445,1.4703179349911246,0
446,-0.78572801045202,0
447,0.12182286439627751,0
448,0.038939583087551605,0
449,-0.08074153349351716,0
450,0.00955910083447534,0
451,0.0006801757440054179,0
452,0.09490497126593388,0
453,0.02788778508190054,0
454,-0.012400560038403969,0
455,-0.01059910236325479,0
456,-0.0030925683190315173,0
457,-0.03129775965430117,0
458,0.0912664691646495,0
459,-0.020888537253111513,0
460,0.28045388969351365,0
461,3.670609114213785,0
462,6.865153423998982,0
463,-0.2915188873246074,0
464,-1.905996595493578,0
465,1.4927285085968327,0
466,-0.6810148483267204,0
467,0.1846161991389127,0
468,0.045890403796299155,0
469,0.0037155848719890514,0
470,0.03279460810691512,0
471,0.002815338013240784,0
472,-0.0003680558732641571,0
473,-0.08639574737926622,0
474,0.0033848057477850824,0
475,-0.024866944073734073,0
476,-0.051216282750707026,0
477,-0.03325082171462648,0
478,0.030843969895652752,0
479,0.009500649748266528,0
480,0.2623293912827731,0
481,3.5575911541259835,0
482,6.833800532211319,0
483,-0.37674979257125135,0
484,-1.9612226889526054,0
485,1.536199247668559,0
486,-0.7582124667834703,0
487,0.08238805384736958,0
488,-0.02130904216790377,0
489,-0.04105144504840934,0
490,0.06099131133832353,0
491,-0.06526398475300971,0
492,-0.025303786053298055,0
493,-0.02692355651176755,0
494,-0.1452694921230135,0
495,0.023662388223358328,0
496,0.025062366668944437,0
497,-0.05853450491759239,0
498,-0.07495154033389452,0
499,-0.05498464840819492,0
500,0.2702982863260824,0
501,3.5830981587596944,0
502,6.900525635423173,0
503,-0.3542153154289432,0
504,-1.949313111294279,0
505,1.4442501526349787,0
506,-0.8047727368831412,0
507,0.11471705687998035,0
508,-0.030253400329794008,0
509,-0.21783658241882015,0
510,-0.06365875960470699,0
511,-0.07462449725514235,0
512,0.04061553048470011,0
513,-0.11420749486933446,0
514,0.09275104920381325,0
515,0.032957353495604594,0
516,0.03602075837622492,0
517,-0.005585772479087205,0
518,0.0659791714979852,0
519,0.010228359636201882,0
520,0.4514341503469062,0
521,3.694459079348628,0
522,6.8448305212939164,0
523,-0.3767943504544052,0
524,-1.9088392317857072,0
525,1.5805749086560934,0
526,-0.8068167319401012,0
527,0.14525784096152178,0
528,-0.04926259555744757,0
529,-0.01979170209988585,0
530,-0.07707608637201657,0
531,-0.09955144517644238,0
532,0.001927926989123696,0
533,-0.015740380891729168,0
534,-0.07417274194335985,0
535,-0.014966802788632778,0
536,-0.014671444258470327,0
537,-0.014258636911504766,0
538,-0.1456616659433493,0
539,-0.03721056027421491,0
540,0.3345088235165301,0
541,3.5530902626865575,0
542,6.795281464792047,0
543,-0.4527334367447646,0
544,-1.8829455088309837,0
545,1.5455405201469787,0
546,-0.7661928427954339,0
547,0.11787326030533073,0
548,-0.12017761520818601,0
549,-0.12171684571772674,0
550,-0.02128130924575544,0
551,0.028957870993569234,0
552,-0.04047169138931297,0
553,0.005526247844439599,0
554,-0.01695027140142276,0
555,0.06051363745779032,0
556,-0.021451959341372593,0
557,0.00891984168410458,0
558,-0.03701196211026532,0
559,-0.0753098533448372,0
560,0.3266308717224592,0
561,3.5852686829420377,0
562,6.855278831970253,0
563,-0.42040956482840336,0
564,-1.890541968174831,0
565,1.5187030277266491,0
566,-0.6654821573710092,0
567,0.09967846699946196,0
568,-0.06639323946333069,0
569,-0.07484035233837083,0
570,0.03944120002989132,0
571,0.0017867546080975946,0
572,0.017201032426786264,0
573,0.03816240378242066,0
574,0.008716473237138794,0
575,-0.05126001334126848,0
576,0.037398175217208646,0
577,-0.04695546464469283,0
578,-0.04285439062475156,0
579,-0.04343197656467757,0
580,0.20273950703339866,0
581,3.601705441120193,0
582,6.799962092388545,0
583,-0.38926732901892475,0
584,-1.9128326926668546,0
585,1.4739233323628858,0
586,-0.7247374621515762,0
587,0.06506614668591658,0
588,-0.060798434015533274,0
589,-0.2149800217613755,0
590,0.05891218658736666,0
591,-0.057636440555326296,0
592,0.02722065605693333,0
593,0.0017063270233067737,0
594,0.01092588380435007,0
595,0.0157096959382423,0
596,0.030028971901706704,0
597,-0.0752178580882143,0
598,-0.07259063810245198,0
599,-0.08469412351948914,0
600,0.2638232967976628,0
601,3.621103410833988,0
602,6.8607504955049645,0
603,-0.5205498730308569,0
604,-1.8850087582649895,0
605,1.5677506119475002,0
606,-0.672187313368871,0
607,0.17563256123216595,0
608,0.022056880631762657,0
609,-0.06278886787322811,0
610,-0.0041923539395494775,0
611,0.013909883625006083,0
612,-0.005016174491708738,0
613,0.008814285258500565,0
614,0.0030700188388238132,0
615,-0.09971114230269028,0
616,-0.06224016903358054,0
617,0.04797744971448216,0
618,-0.02720176452982335,0
619,-0.025850314176642738,0
620,0.36497971469590473,0
621,3.5533233408289244,0
622,6.797360202024099,0
623,-0.4528206664115557,0
624,-1.851894509028831,0
625,1.5521005148828257,0
626,-0.7263915808882311,0
627,0.1931199767261375,0
628,0.018426562660401612,0
629,-0.006993172107614444,0
630,0.02900086362725612,0
631,-0.09943390409649372,0
632,-0.06258075945227745,0
633,0.02846787825426817,0
634,-0.019909862019058675,0
635,0.02089198161829164,0
636,-0.02700377683248335,0
637,0.022458159070428235,0
638,-0.0025421022459842547,0
639,-0.054777899662730195,0
640,0.3023177524282506,0
641,3.624984069226977,0
642,6.764939600990212,0
643,-0.4492708568098722,0
644,-1.8970131431436885,0
645,1.4869515992242512,0
646,-0.796967617141661,0
647,0.06077425415321368,0
648,0.005734260458655188,0
649,-0.10073138591679943,0
650,0.03139861967825125,0
651,0.043299316585895115,0
652,-0.044082961764510854,0
653,-0.05508388188722499,0
654,-0.04780386321405673,0
655,-0.040718944247882756,0
656,-0.0728290030530028,0
657,-0.04359241707040286,0
658,0.01044786429168872,0
659,-0.03308074700857348,0
660,0.2743280777830035,0
661,3.5960174458612624,0
662,6.878282436731119,0
663,-0.5291957682891726,0
664,-1.788493942710371,0
665,1.4795448972566516,0
666,-0.7208952715171889,0
667,0.1775757454277656,0
668,-0.028345243550026687,0
669,-0.07419685089500214,0
670,0.05053360660509713,0
671,0.033986341814190794,0
672,-0.07891680213885643,0
673,-0.04135325624759506,0
674,0.10912293002584965,0
675,0.021703913271115892,0
676,-0.029708720943625234,0
677,0.05759312872423678,0
678,-0.009532334615283456,0
679,-0.007659147267902279,0
680,0.3374544229893708,0
681,3.5586654618465325,0
682,6.764915847617808,0
683,-0.3990741323881436,0
684,-1.8630351052922414,0
685,1.509050087464833,0
686,-0.7584681479036192,0
687,0.14297167407245834,0
688,-0.02842533110269617,0
689,-0.0838887047367143,0
690,0.11765565635045312,0
691,0.018616583374617517,0
692,0.03748968074998074,0
693,-0.04518265229923253,0
694,0.11465579360078465,0
695,0.10563035111077058,0
696,0.02529307298685413,0
697,-0.0013343716369880465,0
698,-0.04094445413158501,0
699,0.014274018285413047,0
700,0.4464234014816706,0
701,3.5703399938308746,0
702,6.938462587790841,0
703,-0.3739259183116755,0
704,-1.7813417772584397,0
705,1.5417188215733364,0
706,-0.7670536438114431,0
707,0.19253366988335713,0
708,0.056408401285999304,0
709,-0.009010008513851,0
710,-0.03620396123751363,0
711,0.07544854602471665,0
712,-0.08377485460413013,0
713,0.0038140323583551773,0
714,-0.011922949714470154,0
715,0.04003167564127229,0
716,-0.060004445541709896,0
717,0.03152113213087829,0
718,0.009558767690364955,0
719,0.04937257403117989,0
720,0.27214715267441314,0
721,3.715619677720858,0
722,6.891227291798974,0
723,-0.4510199214415165,0
724,-1.7765342841520944,0
725,1.7165173653156645,0
726,-0.795268809281892,0
727,0.2619491782428627,0
728,0.01272412017712729,0
729,0.020526832638154406,0
730,0.1338825269105865,0
731,0.05427754809526198,0
732,0.05612019077517788,0
733,0.12694307397586402,0
734,0.07682417261243832,0
735,0.0035797247380706804,0
736,0.03100728548140783,0
737,0.05805328635017265,0
738,0.13101721429908056,0
739,0.08051327746652753,0
740,0.2691974030755971,0
741,3.7847843658909337,0
742,6.856829231596674,0
743,-0.4968278665157491,0
744,-1.8051450386742942,0
745,1.6323285991168823,0
746,-0.6368580856856574,0
747,0.24874153261939108,0
748,0.009869940682006029,0
749,0.02273684354477165,0
750,0.014348498945618411,0
751,0.02559800541361664,0
752,0.03781404405409712,0
753,0.13959475856425113,0
754,-0.040615364455341425,0
755,-0.003511576973775861,0
756,-0.08168428670532765,0
757,0.06359202982746905,0
758,0.02702119086074205,0
759,0.05500481628651211,0
760,0.25348244925538477,0
761,3.8053633156766353,0
762,6.932403924426789,0
763,-0.42337737413186516,0
764,-1.8169064087026465,0
765,1.5915413080614351,0
766,-0.6555256123681066,0
767,0.20075652892293164,0
768,0.09524732193139404,0
769,0.054826443103967525,0
770,0.07303131141562408,0
771,-0.012669045509437135,0
772,0.010902038581403931,0
773,-0.03637328998604735,0
774,0.017414226274381574,0
775,0.03917292614322795,0
776,0.07005362725412008,0
777,0.03699111089915895,0
778,0.043679206044159695,0
779,-0.026082916560708116,0
780,0.3441171355962,0
781,3.6393100673914898,0
782,6.82120964456665,0
783,-0.5299072445898205,0
784,-1.7809490789727314,0
785,1.4386534219175047,0
786,-0.710810666560575,0
787,0.17273319675967774,0
788,0.058905128822475374,0
789,-0.0648546854010609,0
790,0.05315457826523273,0
791,-0.06900278796630872,0
792,0.05237609100690847,0
793,0.08135925034495374,0
794,0.035995518219895634,0
795,0.08185636620517645,0
796,0.060438515827761906,0
797,0.11584936485074468,0
798,0.026400276782748498,0
799,0.08499529017030272,0
800,0.3557109441911814,0
801,3.6722654385991,0
802,6.925872219215583,0
803,-0.4694520141693223,0
804,-1.7772734242178347,0
805,1.5846996103051203,0
806,-0.6362889968287428,0
807,0.13343412303200944,0
808,-0.050811236675664374,0
809,-0.09500974649116918,0
810,-0.038153868303847066,0
811,-0.10756163757684246,0
812,0.0007422859289768977,0
813,0.0024135004107941303,0
814,-0.07109714616256803,0
815,0.053416916948338174,0
816,0.01027593038825191,0
817,0.004767068949941466,0
818,0.06751276078250386,0
819,0.027596873677707495,0
820,0.3572167038173874,0
821,3.7424117724360793,0
822,6.9518628246113705,0
823,-0.47542084850205363,0
824,-1.8125930124422422,0
825,1.648455744411506,0
826,-0.6618046429753837,0
827,0.16293626979622264,0
828,0.06263343338617972,0
829,-0.06310902217468481,0
830,0.008374588876710984,0
831,-0.023712705145948785,0
832,0.006710154138324978,0
833,0.022622876841384462,0
834,-0.02994194610080665,0
835,-0.03727819182682105,0
836,0.04955864627611797,0
837,0.008075777209357217,0
838,-0.03634204132011182,0
839,-0.060500247567875955,0
840,0.34336577221795794,0
841,3.6497224976462666,0
842,6.7785679954068545,0
843,-0.5140503874151718,0
844,-1.8589727064672146,0
845,1.4625556081714994,0
846,-0.7929126940314651,0
847,0.166533407373326,0
848,0.03535005216429688,0
849,-0.09750768494455023,0
850,-0.0640625684928863,0
851,-0.08997386531274412,0
852,0.02073688155693651,0
853,-0.1263122991215804,0
854,-0.02068981101637947,0
855,-0.0109925000050984,0
856,-0.0315029267849153,0
857,-0.021845014915015188,0
858,0.06326882929886898,0
859,-0.03964549480623234,0
860,0.2539071186694985,0
861,3.606897689316015,0
862,6.892778171827762,0
863,-0.40449944419765205,0
864,-1.7253281729949594,0
865,1.5997805900616575,0
866,-0.6198213999382869,0
867,0.21381289698032252,0
868,0.057870569456662996,0
869,0.05750862499163366,0
870,0.10541942447925484,0
871,0.02415085119494105,0
872,-0.005382688031563013,0
873,-0.018430420576346217,0
874,0.0035326292911141977,0
875,0.04297497014888304,0
876,0.06400748613025975,0
877,0.05867034220137396,0
878,-0.010854514107145264,0
879,0.0015936557573956109,0
880,0.4181508787356154,0
881,3.6458920767071366,0
882,6.774129405846721,0
883,-0.49543561606051617,0
884,-1.860584281925316,0
885,1.537450924822212,0
886,-0.7076383427470525,0
887,0.20643970001420037,0
888,-0.005650338789446405,0
889,-0.020617797058673372,0
890,0.0033313255809554257,0
891,0.031544515276387075,0
892,0.06990799079415551,0
893,-0.017720338427689806,0
894,0.0394779725006388,0
895,0.0849154341849522,0
896,-0.05626462324610276,0
897,0.009151909835200563,0
898,-0.07299748224193973,0
899,-0.017205465781104552,0
900,0.3575234339490951,0
901,3.591265224963383,0
902,6.760462166944791,0
903,-0.5030465507751082,0
904,-1.7749482546348712,0
905,1.5565661942856914,0
906,-0.7430973814106601,0
907,0.21264773264471956,0
908,0.08359946099437025,0
909,-0.021366032701519523,0
910,-0.002433243165392486,0
911,0.048467497488415334,0
912,0.061428167628881473,0
913,0.014463486815955693,0
914,0.127769331705786,0
915,0.0627271508426839,0
916,0.0743520980936239,0
917,0.03721039251746028,0
918,-0.016481284748519166,0
919,0.010908804291599674,0
920,0.32471885566999087,0
921,3.6956879515471552,0
922,6.762980661026949,0
923,-0.5611310950717643,0
924,-1.8308338072633095,0
925,1.5796243185280634,0
926,-0.7465129350769018,0
927,0.18367337309282727,0
928,0.006285844333757428,0
929,-0.10796082469516616,0
930,0.025375519851165578,0
931,-0.06414854597313559,0
932,-0.03926850728568483,0
933,0.015126385412667469,0
934,0.02042443626734854,0
935,0.0031364940271294823,0
936,-0.007102956852114338,0
937,-0.09553776184071408,0
938,-0.01846858908216647,0
939,0.09869508906104148,0
940,0.25248823736735493,0
941,3.676370035525413,0
942,6.970524983483367,0
943,-0.5136388841968149,0
944,-1.691143810744672,0
945,1.6044711156052966,0
946,-0.6391981481182193,0
947,0.22327953254374308,0
948,0.12047054367041424,0
949,0.06276650377966916,0
950,0.04529393100857762,0
951,0.026911271616490137,0
952,0.02026088549867342,0
953,0.03689553102695227,0
954,0.020744256656779703,0
955,0.001606341677183861,0
956,-0.03216058439482559,0
957,0.020303627927043304,0
958,-0.0093624130734891,0
959,-0.11702979588132276,0
960,0.30631672269672144,0
961,3.7575031411271924,0
962,6.790185967147174,0
963,-0.45071514746028,0
964,-1.8884683055989988,0
965,1.5141511701463533,0
966,-0.7769228391103697,0
967,0.1787555559791122,0
968,0.04403056972268094,0
969,0.0016359930082490426,0
970,0.04350517990499155,0
971,-0.0641998601285681,0
972,0.08526522865416766,0
973,0.15584514670822983,0
974,0.057215711395098005,0
975,0.010133453860035203,0
976,-0.00274088530249033,0
977,0.015275762851653552,0
978,0.006357653832791597,0
979,0.00040427529392840153,0
980,0.37800081756957643,0
981,3.7087613515423947,0
982,6.782487378745419,0
983,-0.5434775659368525,0
984,-1.7994853453577258,0
985,1.5098921867976425,0
986,-0.8390287750511564,0
987,0.09953425371578503,0
988,0.08073507121443206,0
989,0.0009592671853170531,0
990,-0.0816675089277527,0
991,0.02605240737256525,0
992,-0.026908554474043764,0
993,-0.06496584517969421,0
994,0.0879609659056733,0
995,-0.023115266410733665,0
996,0.07304887259659333,0
997,0.04457185573015983,0
998,-0.034287857397460805,0
999,0.08232206689197825,0
1000,0.37102178771264305,0
1001,3.784028802261701,0
1002,6.903376274140338,0
1003,-0.41382491678400674,0
1004,-1.656039453919428,0
1005,1.6784421900501907,0
1006,-0.5854911345163657,0
1007,0.22569607486740112,0
1008,0.03122739407545545,0
1009,-0.02136057213648944,0
1010,-0.08169072744490706,0
1011,0.024842519930791035,0
1012,0.01800354979446528,0
1013,-0.004327889517277857,0
1014,-0.0901733930118252,0
1015,-0.05259234594463677,0
1016,-0.05475953634780345,0
1017,0.05850298199206635,0
1018,-0.13010865612285996,0
1019,-0.060083345993207006,0
1020,0.23376872895527917,0
1021,3.751089991979669,0
1022,6.780236543760723,0
1023,-0.584946787240338,0
1024,-1.8111558016151437,0
1025,1.4972455009613983,0
1026,-0.7770665713248941,0
1027,0.04701765762962534,0
1028,-0.02355569447518345,0
1029,-0.03250727452143591,0
1030,-0.008893228963446362,0
1031,-0.03458167285343233,0
1032,-0.04576505163512736,0
1033,0.06090592880158993,0
1034,0.07824878654867536,0
1035,0.06362941362369297,0
1036,-0.010978291251946867,0
1037,-0.018153015240003904,0
1038,-0.04965351501975325,0
1039,0.007940297000846808,0
1040,0.3293606456140384,0
1041,3.7528501590503702,0
1042,6.705561768665748,0
1043,-0.5848850412777805,0
1044,-1.7701193987079717,0
1045,1.501975277609721,0
1046,-0.761577636874804,0
1047,0.09031701645845022,0
1048,0.004026902118322309,0
1049,-0.041048358246508626,0
1050,-0.0011569298814552847,0
1051,-0.039815811645030376,0
1052,-0.02202048121179516,0
1053,-0.006330861936878816,0
1054,-0.035395419858210084,0
1055,0.09674132142460194,0
1056,-0.056194006078240835,0
1057,0.05411970427934707,0
1058,0.0697262396691612,0
1059,0.05208538715083857,0
1060,0.3821060852449586,0
1061,3.6888416289130435,0
1062,6.862036117566769,0
1063,-0.5846906184083933,0
1064,-1.6690588160250235,0
1065,1.5046282437909928,0
1066,-0.6699895270454296,0
1067,0.17761403755048977,0
1068,0.01042885413551706,0
1069,-0.11970339466323768,0
1070,-0.07634600382466164,0
1071,-0.04499168823937935,0
1072,-0.04385238611573257,0
1073,-0.02364561011954073,0
1074,0.07090807321350212,0
1075,-0.10654622353872349,0
1076,0.023725769127664092,0
1077,-0.06710940999079007,0
1078,-0.03530793060231209,0
1079,-0.03711204168278664,0
1080,0.24435445010472484,0
1081,3.6289910302200106,0
1082,6.7781906170986606,0
1083,-0.5953964805142948,0
1084,-1.8443914023969443,0
1085,1.4336573307482592,0
1086,-0.8477246445398916,0
1087,0.09375772111118277,0
1088,-0.0316752633638818,0
1089,-0.05104529764817006,0
1090,0.005867099494889215,0
1091,-0.011359854421312165,0
1092,-0.02091771142755665,0
1093,-0.0464715732907455,0
1094,-0.0042605042795201475,0
1095,0.042441509765232574,0
1096,0.07622528758446717,0
1097,0.06786367478295774,0
1098,-0.02693823000452168,0
1099,0.0212522328186502,0
1100,0.3274405163898299,0
1101,3.675185630345116,0
1102,6.785072863542511,0
1103,-0.6561704939622058,0
1104,-1.894128363369501,0
1105,1.3926766800674963,0
1106,-0.8371494333173729,0
1107,0.06637702164537873,0
1108,-0.11685424890640575,0
1109,-0.12178921714899049,0
1110,-0.037800302516036687,0
1111,-0.06643285506344379,0
1112,-0.1329542588755241,0
1113,-0.027936867892726633,0
1114,-0.09892314400686536,0
1115,0.04376681793011537,0
1116,-0.021102513507017653,0
1117,0.030119451323182667,0
1118,-0.04530898883030639,0
1119,-0.07008946088391438,0
1120,0.2904695509877388,0
1121,3.7182992995752984,0
1122,6.850694400087216,0
1123,-0.5234941657857342,0
1124,-1.7718732959338093,0
1125,1.5925783169011654,0
1126,-0.7066772515801516,0
1127,0.24712712006311613,0
1128,0.05648932128736717,0
1129,0.0035060383715428897,0
1130,0.05063074038846073,0
1131,0.0817100238799959,0
1132,0.09902027180142034,0
1133,0.10962815371297482,0
1134,0.046369583839846594,0
1135,0.016359635270938012,0
1136,-0.04309710516951996,0
1137,0.04615843496648766,0
1138,0.025072226879716483,0
1139,0.021216957702848312,0
1140,0.3673306617591683,0
1141,3.660385739376543,0
1142,6.815134748880191,0
1143,-0.6138242844941185,0
1144,-1.831926782873913,0
1145,1.4292001101307836,0
1146,-0.7619323021684608,0
1147,-0.02301725952599884,0
1148,-0.08280674883826947,0
1149,-0.005873032594795435,0
1150,0.07481215038762878,0
1151,-0.009541524303221239,0
1152,0.007682718030601694,0
1153,-0.01895053645319173,0
1154,0.037975283837336025,0
1155,0.060891843755978316,0
1156,0.03231278762029141,0
1157,0.0021423312552120693,0
1158,0.13773533792498618,0
1159,0.05485566961017645,0
1160,0.2918615136835501,0
1161,3.724843032096945,0
1162,6.781240800861802,0
1163,-0.5635119232195618,0
1164,-1.7607591156717668,0
1165,1.485932202324785,0
1166,-0.8033167684452837,0
1167,0.05615604036859388,0
1168,0.036263370280885054,0
1169,-0.0636902805706653,0
1170,-0.0904015284645763,0
1171,-0.012991624290946198,0
1172,-0.05991093449520933,0
1173,-0.08853032014739287,0
1174,0.039074622957919324,0
1175,-0.015999122248889375,0
1176,-0.07067975791640504,0
1177,-0.004038030231909909,0
1178,-0.020204535821595745,0
1179,-0.05142553260636749,0
1180,0.33967042795750857,0
1181,3.8215222436539573,0
1182,6.790695569285626,0
1183,-0.49463596066371684,0
1184,-1.7807641609253755,0
1185,1.5076431849017675,0
1186,-0.7501663271595738,0
1187,0.21749897567823728,0
1188,0.03945987682946175,0
1189,-0.09313031853851028,0
1190,-0.005171439307909012,0
1191,0.01380219526450887,0
1192,-0.033158787730810727,0
1193,-0.0416116484872302,0
1194,-0.02595269674811907,0
1195,0.04266146036365634,0
1196,-0.002861132074658221,0
1197,0.04018034767949258,0
1198,0.05329393278941344,0
1199,0.05054738468139999,0
1200,0.36987252480821603,0
1201,3.863646523280114,0
1202,6.882378370123276,0
1203,-0.4490195573261047,0
1204,-1.6516858787590056,0
1205,1.5902867427144693,0
1206,-0.7426929302155885,0
1207,0.2230540478026359,0
1208,0.08923494062958491,0
1209,0.07967851184183339,0
1210,0.09721382197492123,0
1211,-0.0006262481192230232,0
1212,0.09546536454961742,0
1213,-0.04757938835813396,0
1214,0.04201573852043941,0
1215,-0.02844492807273573,0
1216,0.029358878161964107,0
1217,0.0465127889723648,0
1218,-0.00033302970206024185,0
1219,0.0651743945733219,0
1220,0.3057520882991577,0
1221,3.7201027145389864,0
1222,6.895466447532024,0
1223,-0.49974646806979,0
1224,-1.701410525950026,0
1225,1.527429912364575,0
1226,-0.5915019147279406,0
1227,0.22628901749528657,0
1228,0.10907280969645694,0
1229,-0.03242903692979168,0
1230,0.02630315947363278,0
1231,-0.0023417673852051887,0
1232,0.021629797055090265,0
1233,-0.010514714084474554,0
1234,0.012699754462733106,0
1235,-0.025421482039290743,0
1236,-0.06426671552628667,0
1237,0.014492917522336808,0
1238,0.10426261414704899,0
1239,0.059984881591747086,0
1240,0.32206922436837426,0
1241,3.8213082234932414,0
1242,6.745494608131293,0
1243,-0.6000538099748617,0
1244,-1.8364439992239545,0
1245,1.5565530184686511,0
1246,-0.6758392980218445,0
1247,0.201812702825326,0
1248,0.03791054998781558,0
1249,0.01564473823880462,0
1250,0.12914142368744502,0
1251,-0.021019418133236337,0
1252,-0.002955525006445102,0
1253,0.05428716556245267,0
1254,0.12472670956103107,0
1255,0.038759855148788075,0
1256,0.048104766036925074,0
1257,0.030034854651800245,0
1258,-0.021987151539064324,0
1259,0.015355458850361152,0
1260,0.3677848488237013,0
1261,3.7567634334163427,0
1262,6.809286770890499,0
1263,-0.5835584009608729,0
1264,-1.6799487879619566,0
1265,1.521471107345151,0
1266,-0.745806343598397,0
1267,0.20447947396695917,0
1268,0.04275599252292728,0
1269,-0.09033587758061314,0
1270,0.07207441459325022,0
1271,0.056920497786397975,0
1272,0.05796579908644748,0
1273,0.018228098512585854,0
1274,-0.029053608396171656,0
1275,-0.025174935101889857,0
1276,-0.05303889373562598,0
1277,0.012491716540389108,0
1278,-0.030566509955173352,0
1279,0.058478166533483436,0
1280,0.3175203309011586,0
1281,3.8136000729811697,0
1282,6.833130756831846,0
1283,-0.5775138770170422,0
1284,-1.744065001460512,0
1285,1.4873030102618694,0
1286,-0.633384620571757,0
1287,0.2870519324385884,0
1288,0.051338061211648287,0
1289,0.02553498858809513,0
1290,0.007077540138662686,0
1291,0.02280912860815719,0
1292,0.0842338252856327,0
1293,-0.02849417063347854,0
1294,0.04041953151004846,0
1295,0.06760549242293105,0
1296,0.0504276007346665,0
1297,-0.0038683193370956555,0
1298,0.04862605034774971,0
1299,0.014988647348870267,0
1300,0.3861703440155475,0
1301,3.7503848461866354,0
1302,6.796417255539418,0
1303,-0.6068699191364093,0
1304,-1.7803207494637028,0
1305,1.4733911464478442,0
1306,-0.7604546144314897,0
1307,0.11991349729666889,0
1308,-0.04895734170431449,0
1309,0.04203090208130974,0
1310,-0.08488061736652518,0
1311,-0.01946040301841471,0
1312,0.0680967080009494,0
1313,0.05814446845087941,0
1314,0.07713348620751435,0
1315,0.013965401467804731,0
1316,0.045873591845891286,0
1317,-0.05108757177382946,0
1318,0.03688781116773705,0
1319,-0.07325124077185315,0
1320,0.4100758225456764,0
1321,3.790509040950626,0
1322,6.901949613398497,0
1323,-0.5446765661167106,0
1324,-1.7508538871381358,0
1325,1.511077390838208,0
1326,-0.6885571236778023,0
1327,0.2663560438164711,0
1328,-0.020513776787426094,0
1329,0.05186843194309654,0
1330,0.13154109804916558,0
1331,0.02681601566537248,0
1332,-0.015110675080196666,0
1333,0.030576890882404607,0
1334,0.14157756418720335,0
1335,0.013426460301348638,0
1336,0.07480130176471714,0
1337,-0.06345266470666679,0
1338,0.006789746091154219,0
1339,-0.02648004305299544,0
1340,0.29655884496722956,0
1341,3.7935292161201173,0
1342,6.778553481926083,0
1343,-0.5993976000212644,0
1344,-1.7699238326661018,0
1345,1.5091355835145635,0
1346,-0.8042786957076762,0
1347,0.22757917344857298,0
1348,-0.0006181792630606132,0
1349,0.023630044699435165,0
1350,-0.03535687738883517,0
1351,-0.017404771098300638,0
1352,-0.030475472473802744,0
1353,0.006583969658453289,0
1354,0.039682042170233904,0
1355,0.04640901413122872,0
1356,0.017426198540932254,0
1357,-0.0035255711927169413,0
1358,0.06300114353445317,0
1359,0.07630988641551015,0
1360,0.3622486862827855,0
1361,3.7439692050401963,0
1362,6.769303034363589,0
1363,-0.6049546237100203,0
1364,-1.7067033623620802,0
1365,1.5451183541870037,0
1366,-0.7398787836607694,0
1367,0.08543843810481372,0
1368,-0.0006831528287797942,0
1369,-0.11838213184383792,0
1370,0.016840628439039922,0
1371,-0.060309948982795666,0
1372,-0.10493182808934878,0
1373,-0.029491726469936398,0
1374,-0.03651582876368088,0
1375,-0.09749314891443497,0
1376,-0.04063151783611104,0
1377,-0.0313230390051274,0
1378,-0.09422233171336664,0
1379,-0.04791171653148358,0
1380,0.477101883527486,0
1381,3.697403588904247,0
1382,6.9045542485018565,0
1383,-0.5987403335670992,0
1384,-1.6605758474005876,0
1385,1.5526313776892753,0
1386,-0.71588508810377,0
1387,0.2528719915403519,0
1388,0.0101826061277421,0
1389,-0.0701268169670171,0
1390,-0.008027272952017852,0
1391,-0.05414138242061825,0
1392,-0.017627540269877253,0
1393,-0.038403555215809945,0
1394,-0.08756718873824063,0
1395,-0.058419885174751614,0
1396,0.029353614474033004,0
1397,0.010288480809334973,0
1398,-0.022504665280745326,0
1399,-0.040214575374655386,0
1400,0.229941056213547,0
1401,3.786886651155828,0
1402,6.8045758281617506,0
1403,-0.6273203890326261,0
1404,-1.6218534320458655,0
1405,1.5238108982617506,0
1406,-0.7585161610073056,0
1407,0.15034436181031896,0
1408,0.0021261197780281333,0
1409,0.038026236609804656,0
1410,-0.043659078838448676,0
1411,-0.04589837959791158,0
1412,0.029802804009536565,0
1413,-0.048139627746964495,0
1414,0.023281986273564387,0
1415,0.024690631742383458,0
1416,0.06429283750659719,0
1417,-0.010473801676307855,0
1418,0.03436292571519639,0
1419,0.10199713377519495,0
1420,0.3273805405944331,0
1421,3.8486017776922083,0
1422,6.828806048114035,0
1423,-0.5557425755762683,0
1424,-1.7086041859233991,0
1425,1.5061023816067949,0
1426,-0.7471799550486405,0
1427,0.2080151094057215,0
1428,-0.08200315512445562,0
1429,-0.04743629916202409,0
1430,0.025946672730551883,0
1431,-0.015618783782814408,0
1432,-0.0601507595408262,0
1433,0.08198103895057669,0
1434,-0.024549377288998073,0
1435,-0.0231105408466543,0
1436,-0.046101225551422896,0
1437,0.0381747613926077,0
1438,0.011290897328339555,0
1439,0.04220491599993659,0
1440,0.24949039140907908,0
1441,3.710092204485115,0
1442,6.875552870720559,0
1443,-0.6967875167054202,0
1444,-1.741270984078527,0
1445,1.4823122597399685,0
1446,-0.728966312249427,0
1447,0.1374417746411933,0
1448,-0.07515158029910501,0
1449,-0.07138933650332094,0
1450,0.010300821422646335,0
1451,-0.07094159295133048,0
1452,0.016745390843358084,0
1453,0.022197408424095767,0
1454,0.03825030064807182,0
1455,-0.027554240591395426,0
1456,-0.018027823849065476,0
1457,-0.057378229981776115,0
1458,-0.04755209113452166,0
1459,0.01670294326928607,0
1460,0.29526580785737433,0
1461,3.7522645135300916,0
1462,6.839963096717176,0
1463,-0.7632154344718879,0
1464,-1.7323742709699141,0
1465,1.4728734255086608,0
1466,-0.8460458620996959,0
1467,0.030811636569915507,0
1468,0.03622200382222054,0
1469,-0.1679584201555837,0
1470,-0.1532956694290776,0
1471,-0.09667698335707148,0
1472,-0.11811900409605851,0
1473,-0.10871849305988276,0
1474,-0.16393210705062228,0
1475,-0.07839899621446027,0
1476,-0.06758041787172968,0
1477,-0.0031650541175835545,0
1478,-0.07645064209396331,0
1479,0.07425506029998807,0
1480,0.3472628271174786,0
1481,3.759041609369572,0
1482,6.787395903940678,0
1483,-0.6328092608726488,0
1484,-1.7069540443838207,0
1485,1.541422371322885,0
1486,-0.7245458784691743,0
1487,0.15567115387917627,0
1488,0.04002223032055626,0
1489,-0.004864771720693328,0
1490,-0.0413386516262742,0
1491,0.02361796074773006,0
1492,0.010556195378491642,0
1493,-0.030306556280533893,0
1494,-0.06535774786807526,0
1495,-0.042831105199778265,0
1496,-0.03413196582962265,0
1497,0.020260089871759843,0
1498,0.022176739736917517,0
1499,0.03441098903872217,0
1500,0.3112709616445779,0
1501,3.7266442644397806,0
1502,6.745235969851424,0
1503,-0.6613408038800316,0
1504,-1.6490287330173083,0
1505,1.5400746172833257,0
1506,-0.7359569584449064,0
1507,0.273265523370962,0
1508,0.10970307570643022,0
1509,-0.10015606914572805,0
1510,0.047258686414290776,0
1511,0.05074837627455788,0
1512,0.10108941479316788,0
1513,0.06731633973286803,0
1514,0.07957525446843539,0
1515,0.09610076123097011,0
1516,0.007159817229384607,0
1517,0.07425331104795545,0
1518,0.09603071841208673,0
1519,0.019440236292611063,0
1520,0.3405694180805248,0
1521,3.701596969877782,0
1522,6.75475730517897,0
1523,-0.6842499441360276,0
1524,-1.7479321463277049,0
1525,1.5020800146748532,0
1526,-0.7934676605197613,0
1527,0.10084013689995806,0
1528,0.0898165519199899,0
1529,-0.06351061486583255,0
1530,0.10092912242104592,0
1531,-0.006560110972192185,0
1532,-0.03206510957912036,0
1533,-0.020145248577389148,0
1534,0.02865955613867407,0
1535,0.006397151740687404,0
1536,-0.012582514492323987,0
1537,-0.0027126050695245874,0
1538,-0.0176347223091589,0
1539,-0.03593742391651484,0
1540,0.3583297303910017,0
1541,3.77776212804827,0
1542,6.732532519391337,0
1543,-0.6554889534564035,0
1544,-1.7323925034252172,0
1545,1.4539528705527498,0
1546,-0.7454235272614627,0
1547,0.15826043507273563,0
1548,0.01167892243798375,0
1549,-0.16310111369492444,0
1550,-0.03439742887279675,0
1551,-0.05922536566067143,0
1552,-0.05361441091532892,0
1553,-0.044932033082200604,0
1554,-0.02964548585608078,0
1555,0.03619600668616274,0
1556,-0.11636194554762491,0
1557,-5.058038845144608e-06,0
1558,0.028580233357102913,0
1559,0.022329306402121094,0
1560,0.3439654349792753,0
1561,3.794182022571346,0
1562,6.784268579176077,0
1563,-0.6588798265843625,0
1564,-1.7115607907674766,0
1565,1.577650085420741,0
1566,-0.7282449370197485,0
1567,0.20878948254073737,0
1568,0.07627601288578922,0
1569,0.009324810236440537,0
1570,0.06622112938224896,0
1571,0.00761568060671837,0
1572,0.05830198966252271,0
1573,0.10383241639781854,0
1574,-0.024617192816539027,0
1575,0.15331181107977881,0
1576,0.06173679825729978,0
1577,0.026569786119795123,0
1578,0.07852602980896958,0
1579,-0.042092889569193714,0
1580,0.41526360821308095,0
1581,3.8089873681284843,0
1582,6.859422477933748,0
1583,-0.7302951497318667,0
1584,-1.6802345844314572,0
1585,1.5753551681363303,0
1586,-0.815423164095962,0
1587,0.17472497734242606,0
1588,0.012684293582480738,0
1589,-0.018481676474946154,0
1590,0.04535228400731928,0
1591,0.12063829642476497,0
1592,0.09153074595779337,0
1593,-0.040254723905866,0
1594,-0.032061415948567,0
1595,-0.05221294640587856,0
1596,-0.031745407792999676,0
1597,0.04329284157864246,0
1598,0.010882183857102247,0
1599,0.03274914425716795,0
1600,0.36948756128401994,0
1601,3.771802031743479,0
1602,6.7419563633585184,0
1603,-0.5918901823919017,0
1604,-1.6609393381656719,0
1605,1.5620319373778861,0
1606,-0.8168739254087336,0
1607,0.16056855160743183,0
1608,-0.060764300554611295,0
1609,-0.0067551873297017236,0
1610,-0.008336267994392292,0
1611,-0.00528948348760641,0
1612,-0.07985591565591932,0
1613,-0.010721672867267506,0
1614,0.07762463683198513,0
1615,0.04597301044810389,0
1616,0.10950094253595066,0
1617,0.041846719172247346,0
1618,0.05980451074074792,0
1619,-0.03917755105028592,0
1620,0.3314595510192772,0
1621,3.797141728879032,0
1622,6.78307159468597,0
1623,-0.6661871154158451,0
1624,-1.6597094258698744,0
1625,1.5605218027950345,0
1626,-0.6724199641526998,0
1627,0.24338825137124456,0
1628,-0.017696493293294917,0
1629,-0.002445060579587698,0
1630,0.017753441468557826,0
1631,0.021905657737451394,0
1632,-0.037187085403315584,0
1633,0.045099708963423135,0
1634,0.06197741004680081,0
1635,-0.026257677629523694,0
1636,0.08239154167827051,0
1637,0.05271745252798131,0
1638,0.0401248890125382,0
1639,-0.017454091319652344,0
1640,0.31432053198839327,0
1641,3.7969344688723483,0
1642,6.768920556246783,0
1643,-0.6481107378291039,0
1644,-1.6685897664319262,0
1645,1.4681325483200403,0
1646,-0.6997697154427465,0
1647,0.29679404889234073,0
1648,-0.01632610271623773,0
1649,0.08063808962369338,0
1650,0.08922647016230319,0
1651,0.016678899660441844,0
1652,-0.015086694816957156,0
1653,-0.015338382286297265,0
1654,-0.022297640284303245,0
1655,0.06657977950965235,0
1656,0.04027286876950499,0
1657,0.07714818524387801,0
1658,-0.0437385137168093,0
1659,-0.022284703279517627,0
1660,0.23549791998558767,1
1661,2.114008848694502,1
1662,3.926503394993994,1
1663,5.4563784108644375,1
1664,5.9314154118913045,1
1665,2.023423510211827,1
1666,-0.9111568134200531,1
1667,-1.3796683445886564,1
1668,-1.0796812924123498,1
1669,0.6877670736877538,1
1670,0.9072268503191657,1
1671,-0.3847223899563248,1
1672,-0.5121037562718768,1
1673,0.012614168904757611,1
1674,0.04350885149555035,1
1675,0.06112465243873213,1
1676,0.012437434723287247,1
1677,-0.05356333149378388,1
1678,-0.027645180862979842,1
1679,0.01515066747358177,1
1680,0.09771386397868106,1
1681,-0.03828240958474837,1
1682,-0.10197476598818218,1
1683,0.02261865667830422,1
1684,0.048861551686058026,1
1685,0.05101136164160877,1
1686,-0.028843334013470168,1
1687,-0.10057297947263728,1
1688,-0.022201961172115744,1
1689,-0.03513681501673872,1
1690,0.2858950355265141,1
1691,3.7534492103219943,1
1692,6.825029032103539,1
1693,-0.7781438327272487,1
1694,-1.7354079956306125,1
1695,1.5554368726630872,1
1696,-0.7311537444701356,1
1697,0.06424364459977078,1
1698,-0.032850846410226606,1
1699,-0.011022865802422288,1
1700,0.06155722282060826,1
1701,0.11561095265338273,1
1702,-0.08327221085186008,1
1703,-0.010844607105400356,1
1704,-0.09916796315209603,1
1705,0.03321990746324148,1
1706,-0.024947402394374863,1
1707,0.04121933527092167,1
1708,0.10855567260879437,1
1709,-0.0790744016072167,1
1710,0.32397825567254945,1
1711,3.837838081564979,1
1712,6.868288933618991,1
1713,-0.6364257941677299,1
1714,-1.6878299923687548,1
1715,1.469850442654591,1
1716,-0.7945256291477841,1
1717,0.1849751084351881,1
1718,0.06759209009264637,1
1719,-0.03393169515238898,1
1720,0.14300817379308872,1
1721,0.09045304660657201,1
1722,0.0930906809919009,1
1723,0.051697332929732234,1
1724,0.06103833233163856,1
1725,0.14832613273243384,1
1726,0.04815558894537889,1
1727,-0.015067623699347624,1
1728,-0.03086061955432033,1
1729,-0.027270833012236824,1
1730,0.2932411765760428,1
1731,3.770751381081033,1
1732,6.74663057565132,1
1733,-0.6832621579668811,1
1734,-1.675179764506968,1
1735,1.5166599958041835,1
1736,-0.7254242181276122,1
1737,0.26372543123785114,1
1738,0.0052944848397704115,1
1739,-0.01985375468486699,1
1740,0.014941261474309402,1
1741,-0.08226574100758197,1
1742,0.048459299206040196,1
1743,-0.0021959838172420643,1
1744,0.05400228600100433,1
1745,-0.047562818534189547,1
1746,0.04917269633949449,1
1747,0.050990290316622375,1
1748,0.07374220233049456,1
1749,0.02713194856852468,1
1750,0.4404112599426745,1
1751,3.8785830839216877,1
1752,6.7980858860124656,1
1753,-0.6930562182079492,1
1754,-1.6717159904116092,1
1755,1.5435592599533567,1
1756,-0.681450994339749,1
1757,0.12829935273108245,1
1758,0.043077940850559146,1
1759,-0.13454536007098966,1
1760,0.2920715335832636,0
1761,3.9475352882797927,0
1762,6.782646179314915,0
1763,-0.612219250495246,0
1764,-1.66945435211945,0
1765,1.5858976713566595,0
1766,-0.6738655244423609,0
1767,0.32423726786389734,0
1768,0.12609022357369526,0
1769,0.19380942701007042,0
1770,0.13362248293273762,0
1771,0.03863367129779466,0
1772,0.0885951519085106,0
1773,0.09220143029495124,0
1774,0.14554708864897187,0
1775,0.09119846358631634,0
1776,0.0073472446555086085,0
1777,0.13834070373132246,0
1778,0.04191045770548087,0
1779,0.06864660085603137,0
1780,0.47252748669258066,0
1781,3.9776628441607946,0
1782,6.904753406738242,0
1783,-0.6110279745311492,0
1784,-1.575098689627801,0
1785,1.5465725898492806,0
1786,-0.7840641468096042,0
1787,0.21660115448933548,0
1788,0.16607014858861643,0
1789,0.04818842048867513,0
1790,0.1292150190089647,0
1791,0.08426639946412781,0
1792,0.055075472297735864,0
1793,0.16367829469811435,0
1794,0.04282363681399952,0
1795,0.22901404685538357,0
1796,0.07602113345405208,0
1797,0.07489453622784402,0
1798,-0.033811541904883585,0
1799,0.08393406307498225,0
1800,0.3768948715673123,0
1801,3.8665786426807953,0
1802,6.80155720227021,0
1803,-0.7382495141322825,0
1804,-1.6519582399205124,0
1805,1.5849644960896268,0
1806,-0.712666426730645,0
1807,0.3476261013346192,0
1808,0.10434400926833434,0
1809,0.1129610072726054,0
1810,0.2089865735469391,0
1811,0.14450030838141578,0
1812,0.23289083808463684,0
1813,0.08016637147691216,0
1814,0.09673186435606854,0
1815,0.07269827298002435,0
1816,0.09858717743338578,0
1817,0.1293933099289563,0
1818,0.04558978169327325,0
1819,0.10465462409228059,0
1820,0.35104292193021036,0
1821,3.8877361234945367,0
1822,6.818270912995998,0
1823,-0.6881372281846907,0
1824,-1.5534297520932656,0
1825,1.5367421163523944,0
1826,-0.6716350457513977,0
1827,0.2593130295157773,0
1828,-0.05851580840810744,0
1829,-0.08093764064957641,0
1830,0.014727109633749201,0
1831,0.1313263133620014,0
1832,0.1585610626799437,0
1833,0.02985825661058536,0
1834,0.07723839994675566,0
1835,-0.06094175262471124,0
1836,0.05550299150654421,0
1837,-0.015891643323906142,0
1838,-0.04045758664261707,0
1839,-0.06730859038740192,0
1840,0.33194761413680146,0
1841,3.8080245535520727,0
1842,6.795124701283969,0
1843,-0.7274971282874916,0
1844,-1.633438648279983,0
1845,1.5343105336157503,0
1846,-0.7186458085538147,0
1847,0.21672104179119617,0
1848,0.06410311939997337,0
1849,0.10393975678742981,0
1850,0.17153115552893436,0
1851,0.1516751422150547,0
1852,0.1158649400047248,0
1853,0.10290272352545063,0
1854,0.04438962380864021,0
1855,0.11267952574489444,0
1856,0.18227909473732695,0
1857,0.09985482758770095,0
1858,0.093646589371748,0
1859,0.15539937902250944,0
1860,0.3801882330966586,0
1861,3.954657341315628,0
1862,6.811064546441636,0
1863,-0.6829436259572682,0
1864,-1.614315494067798,0
1865,1.5542843031781906,0
1866,-0.7138649669117626,0
1867,0.1739936192641277,0
1868,-0.013389965299342256,0
1869,0.0067014268576168975,0
1870,0.0693032035313223,0
1871,0.018900603964792085,0
1872,0.013655398998229288,0
1873,-0.04007357939799725,0
1874,0.08878303642408776,0
1875,0.11799377021321747,0
1876,0.09553662867623004,0
1877,0.18213102297993472,0
1878,0.03632770209919887,0
1879,0.1432890618311147,0
1880,0.44589097632634633,0
1881,3.940934484002549,0
1882,6.903355904914497,0
1883,-0.653513216875176,0
1884,-1.6438172395664006,0
1885,1.6261799728840405,0
1886,-0.6619261345572197,0
1887,0.17401314465680925,0
1888,0.07001506519774146,0
1889,0.02390399512646259,0
1890,0.05349684345240127,0
1891,-0.04521277061948441,0
1892,-0.050608115481325495,0
1893,0.014470799615926105,0
1894,0.024732237206967066,0
1895,-0.07501948337924746,0
1896,-0.019713879469431143,0
1897,0.071446981973758,0
1898,-0.09292381523056238,0
1899,0.05959420552656508,0
1900,0.43991740054748424,0
1901,3.837104579034231,0
1902,6.724554774077993,0
1903,-0.7463550679242321,0
1904,-1.7491107370733119,0
1905,1.6257588555452767,0
1906,-0.741578230324295,0
1907,0.19481981264478762,0
1908,0.03398867728808535,0
1909,0.07582998667283833,0
1910,0.022201359926315174,0
1911,-0.03219150510169795,0
1912,0.03873771584985812,0
1913,0.04487268677824209,0
1914,0.13535700278648566,0
1915,0.18389708630125678,0
1916,0.033095080065569354,0
1917,0.046436729878099575,0
1918,0.03424988271361931,0
1919,-0.07880873344996547,0
1920,0.4119460121305897,0
1921,3.9115862290952386,0
1922,6.796336760985548,0
1923,-0.667088255191009,0
1924,-1.5994187636116848,0
1925,1.5951054683071637,0
1926,-0.66200282551892,0
1927,0.2617769410665743,0
1928,0.10340211642330344,0
1929,-0.038369437184178644,0
1930,0.04187834744132808,0
1931,0.03736170939731581,0
1932,0.11989183149772673,0
1933,0.1126566837515814,0
1934,0.15838820415504154,0
1935,0.11767125741089388,0
1936,-0.02979583956989358,0
1937,0.1498159512020752,0
1938,-0.04558990047410008,0
1939,0.09746015940090219,0
1940,0.2325223218944911,0
1941,3.820175716290066,0
1942,6.779593234900996,0
1943,-0.7599282396953622,0
1944,-1.6171810127178583,0
1945,1.458479529358468,0
1946,-0.750710672627579,0
1947,0.15602549388117193,0
1948,0.07433685013238377,0
1949,0.02773218576091383,0
1950,0.03358995346457954,0
1951,0.06161038797808237,0
1952,0.014582695370431886,0
1953,-0.025389018072541424,0
1954,-0.03253710599816242,0
1955,-0.02117337299332848,0
1956,0.0760423456947381,0
1957,-0.08793088544793419,0
1958,0.020922249552927943,0
1959,-0.019014015966507546,0
1960,0.28889100185599986,0
1961,3.8694279182219535,0
1962,6.694342255109535,0
1963,-0.80439149783843,0
1964,-1.5809212064667562,0
1965,1.560496694840637,0
1966,-0.7349804623405629,0
1967,0.24543146106827218,0
1968,0.028077142893082524,0
1969,-0.03656934917819849,0
1970,0.07139169753484259,0
1971,0.06572690942400239,0
1972,0.13368143123286164,0
1973,0.07216512918349885,0
1974,0.15160337027455345,0
1975,0.026093836235290848,0
1976,0.04409191237917769,0
1977,0.010876641664316788,0
1978,0.025956678764559572,0
1979,0.0743659644386037,0
1980,0.33500592697117143,0
1981,3.8506738323667253,0
1982,6.755631013215488,0
1983,-0.7948520530899053,0
1984,-1.7235620903715616,0
1985,1.4420495581884871,0
1986,-0.7693459871746117,0
1987,0.16643168788650342,0
1988,0.00640308728876432,0
1989,0.02232308807653475,0
1990,0.13637686335082153,0
1991,-0.0011971567738889915,0
1992,0.005865405759956076,0
1993,0.0344969686160093,0
1994,0.040587646923302856,0
1995,0.10509804470185771,0
1996,0.1163708118486029,0
1997,-0.07547007734843122,0
1998,-0.12336050759752165,0
1999,0.021498307860786273,0
2000,0.4936540968005273,0
2001,3.8715208829477947,0
2002,6.708943533607653,0
2003,-0.7276434782597204,0
2004,-1.5823542474699814,0
2005,1.5247169337237572,0
2006,-0.8345328020233843,0
2007,0.17932575350078953,0
2008,0.019041661191453063,0
2009,-0.08644643393649953,0
2010,-0.02232123373175631,0
2011,-0.029235962242054204,0
2012,0.04710174560568327,0
2013,-0.039218403955846706,0
2014,-0.0778009306435226,0
2015,-0.0750187934480083,0
2016,-0.018627568557945867,0
2017,-0.005813087305826776,0
2018,-0.004408957958363232,0
2019,-0.03795518143580004,0
2020,0.23217260856181193,0
2021,3.7564283659575506,0
2022,6.6930976607118335,0
2023,-0.834407759564015,0
2024,-1.6088655268098353,0
2025,1.442434784641028,0
2026,-0.8184597243283129,0
2027,0.15153491393942126,0
2028,0.035211999929745434,0
2029,-0.16446564690199728,0
2030,0.004725557507714911,0
2031,-0.07697058250402031,0
2032,-0.06378212158639518,0
2033,-0.034255546256070725,0
2034,0.01827830866095661,0
2035,-0.025033090176717607,0
2036,0.02162309812394246,0
2037,-0.04825753557577297,0
2038,-0.013506850114638945,0
2039,0.05003671784694177,0
2040,0.457068369541899,0
2041,3.874065422249828,0
2042,6.625453081762208,0
2043,-0.8493456562572692,0
2044,-1.6742927730815,0
2045,1.4389975758894173,0
2046,-0.7811946836293937,0
2047,0.17219487777492698,0
2048,0.0325049502219099,0
2049,-0.00818383469218914,0
2050,-0.07732507041292723,0
2051,-0.07768473007097909,0
2052,-0.048195033910161805,0
2053,-0.06130829425756741,0
2054,-0.000886116160541052,0
2055,0.0882603832125343,0
2056,-0.03811162666276903,0
2057,-0.05098899524818531,0
2058,-0.09855728050847092,0
2059,0.01864372751367387,0
2060,0.3157188152473025,0
2061,3.9176129707181633,0
2062,6.671223816622547,0
2063,-0.8712330791704223,0
2064,-1.6865828766349253,0
2065,1.5295546494736072,0
2066,-0.7793602392358179,0
2067,0.10100670860965157,0
2068,0.04297820631183015,0
2069,-0.10058568077370872,0
2070,0.02229323361374695,0
2071,-0.07518598029393267,0
2072,-0.029301744081163428,0
2073,-0.03600520196066506,0
2074,-0.05644050072451262,0
2075,-0.08046562061640486,0
2076,0.041369142451433936,0
2077,0.0017349657587585401,0
2078,0.015421957039007873,0
2079,-0.03638558080768674,0
2080,0.2866099120577291,0
2081,3.8083672145960503,0
2082,6.614162833084038,0
2083,-0.8380068832376684,0
2084,-1.6727130571342512,0
2085,1.4725147544817099,0
2086,-0.7312816747669036,0
2087,0.13925136110640596,0
2088,-0.01964715745649274,0
2089,-0.082231803379066,0
2090,-0.07665694817748905,0
2091,-0.11160277367849727,0
2092,-0.0722941210282437,0
2093,-0.05294069198168063,0
2094,-0.09178453308615289,0
2095,0.018862269657480182,0
2096,-0.07829177432728618,0
2097,-0.06927555015999219,0
2098,-0.06012194511335098,0
2099,-0.0505450999667714,0
2100,0.2771168382896324,0
2101,3.8008359375078866,0
2102,6.591033207805495,0
2103,-0.8563875040831466,0
2104,-1.6298725723904364,0
2105,1.3979124617666816,0
2106,-0.8042711275432612,0
2107,0.1931942454218537,0
2108,-0.06761168761755293,0
2109,-0.08567881501214115,0
2110,-0.11570728984270584,0
2111,-0.04529116471670805,0
2112,-0.024080106464873456,0
2113,-0.09056212692755386,0
2114,-0.030073408187797947,0
2115,-0.022451451227253685,0
2116,-0.05667989861211201,0
2117,-0.14634117467922192,0
2118,-0.12625268258213224,0
2119,-0.10618443523557235,0
2120,0.3479206614277181,0
2121,3.807091004015355,0
2122,6.679770205925874,0
2123,-0.9163267069226863,0
2124,-1.6496028772445601,0
2125,1.4832862329208432,0
2126,-0.7954611701059331,0
2127,0.16353031707933635,0
2128,-0.070456569495077,0
2129,-0.02360567701597309,0
2130,-0.046887378507136604,0
2131,-0.11280354973989831,0
2132,-0.006610279981663705,0
2133,-0.034764157335458984,0
2134,0.0380187214084175,0
2135,-0.04667269258594485,0
2136,0.008607293948520757,0
2137,-0.03997839429809309,0
2138,-0.063972614097026,0
2139,-0.06148786026827169,0
2140,0.23501900748942806,0
2141,3.80726544102475,0
2142,6.641615947835743,0
2143,-0.9501072978415377,0
2144,-1.6931168406907788,0
2145,1.4537006209615462,0
2146,-0.8283601002693523,0
2147,0.21125502586917058,0
2148,0.06756456197010725,0
2149,-0.10584408851796168,0
2150,-0.1489297481740424,0
2151,0.02703844651865377,0
2152,0.013085968547438698,0
2153,0.009125769595310366,0
2154,-0.016421025610581154,0
2155,-0.0015909094927689382,0
2156,0.0006632801158877426,0
2157,-0.0338035340241307,0
2158,-0.009739686659709972,0
2159,-0.07222843091179243,0
2160,0.27449583514984305,0
2161,3.9268090569081506,0
2162,6.725200446159801,0
2163,-0.7931055320647757,0
2164,-1.725693816283911,0
2165,1.4875227657398058,0
2166,-0.8037497774021258,0
2167,0.3260093963488625,0
2168,-0.06834508421995704,0
2169,-0.019673351694934484,0
2170,-0.0208129222115815,0
2171,0.01300717581040238,0
2172,-0.050272525464898805,0
2173,-0.03329413151323242,0
2174,0.05756893331682539,0
2175,0.09184432913611407,0
2176,-0.03491498024832556,0
2177,-0.09188776265312386,0
2178,-0.012757915580404521,0
2179,-0.029483887112424688,0
2180,0.3231144477783705,0
2181,3.808022470508956,0
2182,6.6906737908980505,0
2183,-0.8741296330232098,0
2184,-1.7161849184472562,0
2185,1.4579664557263636,0
2186,-0.8276864697531784,0
2187,0.10139577463831774,0
2188,-0.034979149236403134,0
2189,-0.10080569767117226,0
2190,0.005466113868693402,0
2191,0.025197691563907398,0
2192,-0.001387965397747314,0
2193,-0.01575134514780087,0
2194,0.11147966254315501,0
2195,0.020162155299230315,0
2196,-0.03034183715815652,0
2197,0.04483950364055509,0
2198,-0.0011952144565300948,0
2199,-0.0015309395878223301,0
2200,0.3900337779483507,0
2201,3.855487096409286,0
2202,6.727161859730352,0
2203,-0.8003925356048169,0
2204,-1.6107962798834992,0
2205,1.4902248642543217,0
2206,-0.7361462439678739,0
2207,0.2079765398313308,0
2208,-0.004315019751390222,0
2209,-0.1017081303433896,0
2210,0.0761587044912407,0
2211,-0.011760226076386623,0
2212,0.03672990772926418,0
2213,0.009593094835231224,0
2214,-0.0789115126162051,0
2215,0.06950830752757926,0
2216,-0.05656100398271939,0
2217,0.00503659582773213,0
2218,0.019347844527928006,0
2219,0.0857545100054792,0
2220,0.36052930727752475,0
2221,3.9246536366531464,0
2222,6.705641108578559,0
2223,-0.8944328367539032,0
2224,-1.6196309402410412,0
2225,1.494222601817756,0
2226,-0.6445885534165857,0
2227,0.32022435347315537,0
2228,-0.016061162966824825,0
2229,0.03622839762856678,0
2230,-0.06576986573345965,0
2231,-0.021504122385785546,0
2232,0.02767888347411329,0
2233,0.02500957439667611,0
2234,-0.018743063435546523,0
2235,0.04489091347224357,0
2236,0.08712664986664122,0
2237,-0.09252609133860712,0
2238,0.004129874040509214,0
2239,0.044667915898265464,0
2240,0.3281958426039384,0
2241,3.95504770481602,0
2242,6.770380194718083,0
2243,-0.7562526058185949,0
2244,-1.5455035586107189,0
2245,1.5055585851890099,0
2246,-0.6596386101189083,0
2247,0.1803434297179375,0
2248,-0.0906009829577165,0
2249,0.007996576662958384,0
2250,-0.014005067525398353,0
2251,0.04758515206938228,0
2252,-0.09052441005368053,0
2253,0.04131663595276307,0
2254,0.07664231986631208,0
2255,0.005375173022467202,0
2256,-0.013161558250981515,0
2257,0.032881880427451105,0
2258,-0.04589706987351606,0
2259,0.0730166610869514,0
2260,0.3737209748494311,0
2261,3.929635490267583,0
2262,6.672503342383986,0
2263,-0.877141944946315,0
2264,-1.5620124784579537,0
2265,1.478891124320646,0
2266,-0.7071990469956151,0
2267,0.1675552398201398,0
2268,-0.01647454636308786,0
2269,-0.039927242612192645,0
2270,-0.008514684079642277,0
2271,0.008888865070906846,0
2272,0.05725468426427601,0
2273,-0.014503749569389176,0
2274,0.08124020656787292,0
2275,0.023077164818325058,0
2276,-0.02604423073044078,0
2277,0.062135614355469555,0
2278,-0.042931158868731084,0
2279,0.03300815964137208,0
2280,0.25338712468997315,0
2281,3.9081553863779868,0
2282,6.652176518218865,0
2283,-0.8891058943230833,0
2284,-1.618561086379355,0
2285,1.4808100702332807,0
2286,-0.6609439991294077,0
2287,0.2436884631791841,0
2288,0.06867815766148011,0
2289,0.04025598787726738,0
2290,0.007096763811319323,0
2291,0.015533307733714974,0
2292,0.12571685485086956,0
2293,0.01043734399003958,0
2294,0.04149186656881085,0
2295,0.11258039733457184,0
2296,0.05518380689257373,0
2297,0.037555462844522984,0
2298,0.0073752915664798,0
2299,-0.00831471504379928,0
2300,0.3456818752473994,0
2301,3.9117512717906786,0
2302,6.745239866714225,0
2303,-0.900524643366889,0
2304,-1.6481771721925866,0
2305,1.3865955588323142,0
2306,-0.8118535781773761,0
2307,0.15608143876927535,0
2308,-0.03434593536605543,0
2309,-0.08537903829938447,0
2310,0.053099336872385466,0
2311,-0.03454938411080394,0
2312,-0.15199855787824032,0
2313,-0.04139213086823369,0
2314,-0.016537514551012926,0
2315,-0.06410378019310518,0
2316,-0.022527090182469924,0
2317,-0.025254546647662426,0
2318,-0.019433601497746852,0
2319,-0.021126641329998978,0
2320,0.3020694030798833,0
2321,3.90980909876695,0
2322,6.669970016624653,0
2323,-0.8755581423012225,0
2324,-1.576252889658919,0
2325,1.4654992485664418,0
2326,-0.7928414799903281,0
2327,0.2212167183886568,0
2328,0.060076611696359486,0
2329,0.1055509948140816,0
2330,-0.06436902157200833,0
2331,0.0047140376330965066,0
2332,-0.007692972528562842,0
2333,-0.03313747960289135,0
2334,-0.031323406094974464,0
2335,-0.05867371222889027,0
2336,-0.002320967522780509,0
2337,-0.03186673061261494,0
2338,-0.016264828532232347,0
2339,-0.08386415669350657,0
2340,0.3007544524801726,0
2341,3.894809875283184,0
2342,6.647716933447158,0
2343,-0.9377550872418134,0
2344,-1.667685029079782,0
2345,1.5084337118591016,0
2346,-0.7562115926103339,0
2347,0.26481012551859495,0
2348,0.027054881011104145,0
2349,0.08657809274311329,0
2350,0.07636688567236524,0
2351,0.016669882597137663,0
2352,0.07852853115944788,0
2353,0.004706031014675274,0
2354,0.06486256042192907,0
2355,0.013068364593864058,0
2356,0.0009529334340994226,0
2357,0.057704789485905315,0
2358,-0.01671796574144902,0
2359,0.07047527382909782,0
2360,0.21091031546793837,0
2361,3.8407894986538316,0
2362,6.655502447060938,0
2363,-0.9819887241172313,0
2364,-1.5900503621421043,0
2365,1.3720264653484024,0
2366,-0.817772347610194,0
2367,0.1632806285767949,0
2368,-0.06870244632584369,0
2369,-0.06225777462506582,0
2370,-0.058075922758919804,0
2371,-0.02810746898052219,0
2372,-0.03484682773226002,0
2373,-0.007878502370464129,0
2374,0.023969188741413388,0
2375,0.01330367498199867,0
2376,0.001681253598195688,0
2377,0.06667980488547419,0
2378,0.04816368272187606,0
2379,0.017070067971478097,0
2380,0.37186192780082306,0
2381,3.922745588286752,0
2382,6.6727870905533635,0
2383,-0.8491898132974129,0
2384,-1.56334199821457,0
2385,1.5503156943419454,0
2386,-0.7067645005065631,0
2387,0.29038353427156993,0
2388,0.0030572842410622157,0
2389,-0.0766671101969041,0
2390,0.044918139707010085,0
2391,0.13054540662132885,0
2392,-0.01984031154073767,0
2393,0.001960304140662082,0
2394,-0.06833085500845962,0
2395,-0.03578793287742437,0
2396,0.08776579810609213,0
2397,0.04106731869692715,0
2398,0.10081102343386966,0
2399,0.07886459022147112,0
2400,0.39028901127007176,0
2401,3.896595198766762,0
2402,6.69986579309318,0
2403,-0.9255332121638917,0
2404,-1.5929600409494022,0
2405,1.5292439251952827,0
2406,-0.7672249473501798,0
2407,0.2838625355188463,0
2408,-0.08554485881742144,0
2409,-0.01661128020344039,0
2410,0.07520830011783325,0
2411,0.0051575875290052475,0
2412,0.034762085345165804,0
2413,0.0585572979179297,0
2414,0.17156147564082508,0
2415,0.04235095181304377,0
2416,0.006444671101179165,0
2417,0.0578195624471574,0
2418,-0.0599707314085723,0
2419,-0.01181869891523718,0
2420,0.38770180077673844,0
2421,3.971755299529993,0
2422,6.613846434440742,0
2423,-0.7845642196598507,0
2424,-1.7070793935189195,0
2425,1.5401965425262207,0
2426,-0.6988839130451883,0
2427,0.22156882374431783,0
2428,0.16053121111744018,0
2429,-0.014790555834117414,0
2430,0.05817084353488696,0
2431,0.06437189809353161,0
2432,-0.05135857153567056,0
2433,0.014897280829654157,0
2434,0.06566459357327635,0
2435,0.04326057039060589,0
2436,0.14275142177966837,0
2437,-0.04451448892778467,0
2438,-0.052601003731493616,0
2439,-0.013034496590380452,0
2440,0.4215147609899174,0
2441,3.8969436487846454,0
2442,6.702458476216861,0
2443,-0.9037449704181193,0
2444,-1.4526353032037087,0
2445,1.4699628446266215,0
2446,-0.7491186252524098,0
2447,0.24888575556121087,0
2448,-0.015836183965652527,0
2449,-0.052217270678816645,0
2450,0.04264818609246903,0
2451,0.051437195305649636,0
2452,0.12878970773890241,0
2453,0.14920161462321657,0
2454,0.037355966029011825,0
2455,-0.0363013570027315,0
2456,0.03647552950924804,0
2457,0.027223244338071557,0
2458,-0.023087342647516797,0
2459,0.1096463049816936,0
2460,0.3428586995463736,0
2461,3.996486948356847,0
2462,6.641170898216321,0
2463,-0.9283350278682304,0
2464,-1.5647378716694638,0
2465,1.4310946096384733,0
2466,-0.6881821924230905,0
2467,0.18607929592613595,0
2468,0.033907620944471834,0
2469,-0.04610648490805153,0
2470,-0.038436558367986,0
2471,0.026725471047429228,0
2472,-0.03795594430114451,0
2473,-0.050004742250204084,0
2474,0.16344469749936819,0
2475,0.0885063954915237,0
2476,0.06653510037780522,0
2477,-0.0174694829939972,0
2478,-0.03159589578473951,0
2479,0.08337229169796675,0
2480,0.4131931699454011,0
2481,3.979135401099615,0
2482,6.831117339699845,0
2483,-0.8923651506849456,0
2484,-1.5489591461283998,0
2485,1.6528313738161255,0
2486,-0.7802190581982251,0
2487,0.35227834785658957,0
2488,0.07054923736352647,0
2489,0.005444821567616363,0
2490,-0.005831275231536481,0
2491,-0.051958734310222125,0
2492,0.1070719530500226,0
2493,-0.008305135735797456,0
2494,0.1245738928120774,0
2495,0.04631320029095383,0
2496,0.07431686912057953,0
2497,0.010961223195581939,0
2498,-0.11830702044523295,0
2499,0.05929238735251492,0
2500,0.39600421373873856,0
2501,3.8960202009812797,0
2502,6.695802022800068,0
2503,-0.8413531594461364,0
2504,-1.5028938319556664,0
2505,1.4962224756698044,0
2506,-0.7583745375315476,0
2507,0.2420392870372432,0
2508,0.03290524654487122,0
2509,0.008843680414751316,0
2510,-0.03140121961439125,0
2511,0.0022357929686267278,0
2512,-0.0017151943574566786,0
2513,0.001060694223841585,0
2514,0.08642559880544312,0
2515,0.11335709291760804,0
2516,-0.017392799882743684,0
2517,-0.02776880211315988,0
2518,0.06744997814670002,0
2519,0.04377729164511515,0
2520,0.4428850269169527,0
2521,3.9896027180914735,0
2522,6.731427867380731,0
2523,-0.8792477059010542,0
2524,-1.4557865374643093,0
2525,1.4334290070623852,0
2526,-0.7703295650256127,0
2527,0.24159232769898184,0
2528,-0.05534459510430923,0
2529,0.03400551324092928,0
2530,0.001379710447930331,0
2531,-0.01614103468644241,0
2532,0.060127446779185884,0
2533,-0.013172133198321744,0
2534,-0.019778046584680006,0
2535,-0.022222008974912263,0
2536,-0.05974028983104304,0
2537,0.14322306000601087,0
2538,-0.013756847065254714,0
2539,-0.03788719464776637,0
2540,0.37351030838031185,0
2541,3.935441814723371,0
2542,6.777736677690254,0
2543,-0.9822943986827086,0
2544,-1.5291609304359985,0
2545,1.440061996482475,0
2546,-0.8086824646451046,0
2547,0.2561208012395394,0
2548,0.05779501767942985,0
2549,-0.027727872725858492,0
2550,0.03470888060371761,0
2551,-0.033172766676570445,0
2552,0.029152239467051814,0
2553,0.039968934472704575,0
2554,-0.007291396272237981,0
2555,0.020698180812398062,0
2556,0.06730144182716517,0
2557,0.004378734737312855,0
2558,0.04631092518705511,0
2559,0.14000296786619257,0
2560,0.35782568745024584,0
2561,4.038684933148118,0
2562,6.693161186952609,0
2563,-0.8643117770288474,0
2564,-1.4982252048572557,0
2565,1.4396300171514378,0
2566,-0.7876118753702963,0
2567,0.21711828082603513,0
2568,0.03728017940246751,0
2569,0.02844090384511883,0
2570,0.06826970731115886,0
2571,0.037230610666579206,0
2572,0.10823296560871205,0
2573,0.043862250403364916,0
2574,0.010490651767106975,0
2575,0.06370222598559178,0
2576,0.002588213804571568,0
2577,0.008898399168203435,0
2578,0.0477985470490997,0
2579,-0.00017643766700079118,0
2580,0.3750146739776519,0
2581,3.900652278099582,0
2582,6.566635164429135,0
2583,-0.9457141060233508,0
2584,-1.5044291504889464,0
2585,1.3558389791067573,0
2586,-0.6952874107016285,0
2587,0.2574950656890605,0
2588,0.04963058576633313,0
2589,0.06876665467826393,0
2590,0.13114679841416405,0
2591,0.04010940303755765,0
2592,0.05947934633318323,0
2593,0.03900853417971778,0
2594,0.052622527738782704,0
2595,0.007728308653760348,0
2596,-0.02334759654249441,0
2597,0.10716093213940031,0
2598,-0.014166565810695038,0
2599,0.014659037158972849,0
2600,0.5083564386345985,0
2601,3.9786828007045933,0
2602,6.727666794971787,0
2603,-0.9521664264442506,0
2604,-1.4966914792588932,0
2605,1.4164246931882678,0
2606,-0.7052125732543149,0
2607,0.2186975969873202,0
2608,-0.01712804905115635,0
2609,-0.005311256944198816,0
2610,0.07561703098603438,0
2611,0.03585277400032365,0
2612,-0.05591103724453452,0
2613,0.11299918791036616,0
2614,-0.03639254132761183,0
2615,-0.008852861016307084,0
2616,0.030112305752812176,0
2617,0.12122731068589736,0
2618,0.09198542974889912,0
2619,0.04316564196463568,0
2620,0.46939870431005437,0
2621,4.026084260384508,0
2622,6.709854433548481,0
2623,-0.8720901037165358,0
2624,-1.5413344014458212,0
2625,1.511108278066847,0
2626,-0.7915385933094498,0
2627,0.23877985072337693,0
2628,-0.02717393002785031,0
2629,0.03853775739010744,0
2630,-0.027298769048521118,0
2631,-0.030062231094294754,0
2632,-0.02232666715761519,0
2633,0.012644279639285305,0
2634,0.07838519877974975,0
2635,-0.009505885633545683,0
2636,-0.014045890092042662,0
2637,0.016659288498132585,0
2638,-0.015434212477287036,0
2639,0.04058787712792529,0
2640,0.39162126693588806,0
2641,4.110657710869359,0
2642,6.668464737890619,0
2643,-0.922528641006845,0
2644,-1.4829969169823085,0
2645,1.5484719782737266,0
2646,-0.7703337599979952,0
2647,0.2735832879121434,0
2648,0.02137170291979341,0
2649,0.06665517862702819,0
2650,0.010725171679638816,0
2651,0.10126027600100507,0
2652,0.09291950718408054,0
2653,0.036274460526094954,0
2654,0.026902650053917267,0
2655,0.04275087495255549,0
2656,-0.004709124557805464,0
2657,-0.0004220254906947066,0
2658,0.0046625039212893574,0
2659,-0.005821177316816284,0
2660,0.3667174715169058,0
2661,3.922664391843082,0
2662,6.5809531025771335,0
2663,-1.004445444234649,0
2664,-1.533648846274055,0
2665,1.4896589698748715,0
2666,-0.7912952132616635,0
2667,0.15437541848774933,0
2668,0.07739370814398937,0
2669,-0.056307192613109486,0
2670,0.02207717008560021,0
2671,0.0004909009328589219,0
2672,0.1676382855239399,0
2673,0.0653832769515489,0
2674,0.05792745390929681,0
2675,0.02177449372389079,0
2676,0.033115809978384876,0
2677,0.07545288460644203,0
2678,0.09488754578634391,0
2679,0.07577970894557595,0
2680,0.5233137053745851,0
2681,4.048432526460962,0
2682,6.702478360870679,0
2683,-0.8281517411968653,0
2684,-1.4194514868875205,0
2685,1.569072023442689,0
2686,-0.6932974799329451,0
2687,0.2500053112330262,0
2688,0.09099295605143792,0
2689,0.0338521762333117,0
2690,0.12076572500744281,0
2691,0.10417972013554878,0
2692,-0.001788343730564676,0
2693,-0.003378633118247286,0
2694,0.02428556997803736,0
2695,0.003971605257838108,0
2696,0.02689309178542407,0
2697,0.006638899717513004,0
2698,0.1098124314674425,0
2699,-0.06499367800185497,0
2700,0.3720651993060956,0
2701,3.9954035731300612,0
2702,6.658022433661202,0
2703,-1.0507901991588138,0
2704,-1.572618215263252,0
2705,1.5027290159485227,0
2706,-0.6799930044892291,0
2707,0.19117285776499146,0
2708,-0.06542735606610411,0
2709,0.019880214225293406,0
2710,0.0033003349299600415,0
2711,0.045504055132834675,0
2712,-0.006817746444375716,0
2713,-0.02285604290126938,0
2714,-0.01586977068307114,0
2715,0.018596611766444227,0
2716,0.013954653445944647,0
2717,0.017091434302546657,0
2718,-0.00035312300557030496,0
2719,0.00033006138551368996,0
2720,0.4041925842350998,0
2721,3.9913195285171947,0
2722,6.756825652396057,0
2723,-1.0269893462808506,0
2724,-1.4979556817781945,0
2725,1.5264838225593549,0
2726,-0.8340183884914965,0
2727,0.1746104743831361,0
2728,0.019778603402384357,0
2729,-0.0024793426253186266,0
2730,0.02537693773503706,0
2731,-0.010604768431503746,0
2732,0.06885603534205735,0
2733,0.1317139492420087,0
2734,-0.0008855069314748915,0
2735,0.06151056197496271,0
2736,0.021713469031756763,0
2737,0.011509117874975976,0
2738,0.01742318119403424,0
2739,0.061046729071006764,0
2740,0.3888724229254706,0
2741,4.015568523643876,0
2742,6.655687514923188,0
2743,-1.010891834337964,0
2744,-1.5725297422186326,0
2745,1.5667437026157045,0
2746,-0.7709883148152993,0
2747,0.2795825097431765,0
2748,0.0749404813186704,0
2749,0.03416494869926142,0
2750,0.060829880658457694,0
2751,-0.05982563224738134,0
2752,-0.02046506793721201,0
2753,-0.04593434291216059,0
2754,0.06192596376520233,0
2755,0.04422158346770737,0
2756,0.05941278609491844,0
2757,-0.013180170391990433,0
2758,-0.04653865465141558,0
2759,-0.008155837277100732,0
2760,0.4836261704581923,0
2761,3.99161899801099,0
2762,6.6455707856819,0
2763,-0.9366101976046178,0
2764,-1.534535460626144,0
2765,1.583028765980774,0
2766,-0.775777745854414,0
2767,0.24180441174290582,0
2768,0.015864979420064488,0
2769,-0.00504420258290874,0
2770,0.02956733089832177,0
2771,-0.009880834191087111,0
2772,0.09869494072974552,0
2773,-0.0027408242428848054,0
2774,0.08643336823872208,0
2775,-0.02730566636300833,0
2776,0.11845862337917382,0
2777,0.08048266311754326,0
2778,0.06825689529908519,0
2779,-0.11992254965932723,0
2780,0.3948000249830971,0
2781,4.160423964919018,0
2782,6.688012247845217,0
2783,-0.9609047963777693,0
2784,-1.4938551003447484,0
2785,1.538455162266705,0
2786,-0.7185703393004426,0
2787,0.1868036855237076,0
2788,-0.02855037629626019,0
2789,0.07874370893535379,0
2790,0.009665642246061094,0
2791,-0.020015262479373828,0
2792,0.00914227503170553,0
2793,-0.003692598558592745,0
2794,-0.0047608262435478235,0
2795,-0.016978903747548995,0
2796,0.04886210721466769,0
2797,-0.02350188520730144,0
2798,0.007756149427142304,0
2799,0.09824650622383946,0
2800,0.23805967074913154,0
2801,4.06825070219794,0
2802,6.617798608913184,0
2803,-0.9864894243140147,0
2804,-1.4891397814632783,0
2805,1.5255457029344455,0
2806,-0.7331565917053188,0
2807,0.2195144368545135,0
2808,-0.0022835209126731565,0
2809,-0.04508155054325097,0
2810,-0.020901345000713924,0
2811,-0.1371559855993223,0
2812,-0.0368220920423913,0
2813,0.0007155932804802298,0
2814,-0.04050470344544019,0
2815,-0.03706867663309145,0
2816,-0.07618034927027531,0
2817,-0.04140473887010821,0
2818,-0.04129930337429392,0
2819,-0.016386514329721977,0
2820,0.4427041273233323,0
2821,4.106845495028288,0
2822,6.61676190878581,0
2823,-1.087307390405269,0
2824,-1.4734536504221922,0
2825,1.3873556662922253,0
2826,-0.7933261596996082,0
2827,0.17414463126583923,0
2828,-0.023104775025926602,0
2829,-0.08071526389831161,0
2830,0.10922588180233951,0
2831,-0.07304444461269963,0
2832,0.03707167026598287,0
2833,-0.04720638262201035,0
2834,0.06267002050712417,0
2835,-0.034116333197807436,0
2836,-0.12614720879038951,0
2837,-0.06282601811481485,0
2838,-0.03453755292750771,0
2839,-0.06501336694683994,0
2840,0.4081793867343954,0
2841,4.062422491435742,0
2842,6.688317565531413,0
2843,-1.063926931851934,0
2844,-1.4737507098723137,0
2845,1.476142605145379,0
2846,-0.7243343586039411,0
2847,0.21006911899086037,0
2848,-0.020396107768894563,0
2849,-0.04916665945592537,0
2850,-0.07946892704972758,0
2851,0.03329918934169135,0
2852,-0.05764797900261782,0
2853,-0.05154649185015288,0
2854,0.03600223326728273,0
2855,0.1504727127316321,0
2856,0.05363924706035445,0
2857,0.08043868198001486,0
2858,-0.05111204979471297,0
2859,-0.020463536979755982,0
2860,0.3723336922595958,0
2861,4.047444737793492,0
2862,6.6125172340782346,0
2863,-1.121857236884537,0
2864,-1.6343274365516005,0
2865,1.3842449781662896,0
2866,-0.7801305611824565,0
2867,0.2680758984072333,0
2868,-0.11180019814939153,0
2869,-0.028630162619081634,0
2870,-0.012843721750502513,0
2871,-0.020224614385937617,0
2872,-0.001729132673200043,0
2873,0.004192926410551589,0
2874,-0.02724113708870568,0
2875,-0.04109755088744871,0
2876,-0.011503690163590149,0
2877,-0.0960808860078523,0
2878,-0.020910809631908348,0
2879,-0.061155053623914844,0
2880,0.440966173357761,0
2881,3.9798915066979537,0
2882,6.616521840388141,0
2883,-1.207532223995645,0
2884,-1.5261263003506507,0
2885,1.447164703011791,0
2886,-0.7474599249339132,0
2887,0.25873661979079843,0
2888,-0.15876878611243012,0
2889,-0.0681527476043396,0
2890,0.04047787782152814,0
2891,0.08396971435826801,0
2892,-0.013551391635237275,0
2893,0.08845045799545578,0
2894,0.08135019031944232,0
2895,-0.03702766114704565,0
2896,0.060937098967444765,0
2897,-0.04556114844924272,0
2898,-0.06863280524327392,0
2899,-0.012300254443477994,0
2900,0.40100150410513224,0
2901,4.010022871439441,0
2902,6.54161709615854,0
2903,-1.0817583829511421,0
2904,-1.4395047834149923,0
2905,1.391168817791831,0
2906,-0.8568762887491362,0
2907,0.21777250242619828,0
2908,-0.07466975783354612,0
2909,-0.1380073010434656,0
2910,0.0009466357002329423,0
2911,0.07411828054114669,0
2912,0.02246779572959072,0
2913,-0.07979140369142898,0
2914,0.05622903997130892,0
2915,-0.052577979503915025,0
2916,-0.0316219991685168,0
2917,-0.07864831674270342,0
2918,-0.0353250655604045,0
2919,-0.009223591096209804,0
2920,0.44122817375673506,0
2921,4.002411657437564,0
2922,6.661386592487173,0
2923,-0.9715071234311585,0
2924,-1.4606599338163742,0
2925,1.463305747262426,0
2926,-0.709386840866778,0
2927,0.35657515199212453,0
2928,0.03341694067884431,0
2929,-0.04097680712517328,0
2930,0.17491594775218472,0
2931,0.009127025095615303,0
2932,0.0799596078006812,0
2933,0.040601204986604626,0
2934,-0.028097193102733085,0
2935,0.06518726064317178,0
2936,-0.00792002723388384,0
2937,-0.024861202380819025,0
2938,-0.12489469562665681,0
2939,-0.05390856912057752,0
2940,0.30206897979228475,0
2941,3.897325761319675,0
2942,6.559729695707804,0
2943,-1.1497313998780738,0
2944,-1.512641322182319,0
2945,1.3597941922729369,0
2946,-0.9048586595212689,0
2947,0.1779530490253206,0
2948,-0.0026641612861648817,0
2949,-0.09733301768640251,0
2950,-0.0390811651501492,0
2951,0.07795358197136017,0
2952,-0.013848974084829456,0
2953,0.045940144836051085,0
2954,0.030805755464989697,0
2955,-0.022065498546224326,0
2956,-0.004423484221644821,0
2957,0.09946342204326525,0
2958,0.007624871629861335,0
2959,0.13784114737707087,0
2960,0.3583711789630342,0
2961,4.048912193417903,0
2962,6.5494134703459395,0
2963,-1.0027351779648495,0
2964,-1.486615040459733,0
2965,1.4003619235256233,0
2966,-0.7639415348841522,0
2967,0.2535932424851537,0
2968,-0.0819413409342137,0
2969,-0.10225715263230475,0
2970,0.07587753156189161,0
2971,-0.08595029502989726,0
2972,-0.00812216681708746,0
2973,-0.05725828486132081,0
2974,0.03827827815365375,0
2975,0.06140223856706745,0
2976,-0.049938855705578655,0
2977,-0.061351258929544815,0
2978,-0.008752232923780072,0
2979,-0.02189700087572589,0
2980,0.426771025742222,0
2981,3.99911927615119,0
2982,6.580681916255596,0
2983,-1.0811334587105672,0
2984,-1.5313873621460805,0
2985,1.428842572801783,0
2986,-0.8684048921203104,0
2987,0.1435767339913174,0
2988,-0.04050299765964839,0
2989,-0.004455943381172021,0
2990,-0.0639749437804964,0
2991,-0.014470045669186197,0
2992,0.057644259905081104,0
2993,-0.07648179512609796,0
2994,-0.028482035404273225,0
2995,-0.06668036470157014,0
2996,-0.04227320416471898,0
2997,0.07015478491045692,0
2998,-0.07279228140693067,0
2999,0.0004891039902355666,0
3000,0.3257735484547683,0
3001,4.011980029387262,0
3002,6.673110198045242,0
3003,-1.136870246273574,0
3004,-1.430947459959269,0
3005,1.4876348403426758,0
3006,-0.8346350600921878,0
3007,0.17683834143816124,0
3008,0.04768540960408492,0
3009,0.09989103513938388,0
3010,0.12289050431673401,0
3011,-0.05500532805108553,0
3012,0.11417690522542395,0
3013,-0.021383671329776748,0
3014,0.028601735669594838,0
3015,0.0334776742240953,0
3016,-0.08908674388774736,0
3017,-0.036386040794584275,0
3018,0.05777442650068771,0
3019,0.020025195116469482,0
3020,0.3384034278927362,0
3021,4.038737555971403,0
3022,6.629553397140695,0
3023,-1.1981422455658262,0
3024,-1.522563799543806,0
3025,1.4783453013618808,0
3026,-0.7971010503025107,0
3027,0.2762271774455217,0
3028,-0.10303500729972419,0
3029,0.00754748811306475,0
3030,-0.01793608428661894,0
3031,0.023385335006256905,0
3032,0.033494412209464725,0
3033,-0.03949965086805302,0
3034,0.014134636316636938,0
3035,0.0317218648967144,0
3036,0.09260047490664935,0
3037,0.04839460838625396,0
3038,-0.01567207365395968,0
3039,0.11230228402682386,0
3040,0.3787525651737897,0
3041,4.08652194090675,0
3042,6.616288294153729,0
3043,-1.117130950795395,0
3044,-1.4458008173701087,0
3045,1.4410388249657209,0
3046,-0.6973756445552591,0
3047,0.18946720119403365,0
3048,0.06759563290649485,0
3049,-0.07217701348800762,0
3050,0.07918525842490498,0
3051,-0.018756787749185953,0
3052,0.0007020384436332121,0
3053,0.065076992504323,0
3054,0.04817911932140385,0
3055,-0.01280843805590872,0
3056,0.09570905452297884,0
3057,-0.010911458123043484,0
3058,0.012049563805812888,0
3059,0.1517676224174324,0
3060,0.44465974405852227,0
3061,4.0859718684508515,0
3062,6.709797294625216,0
3063,-0.9886790921870805,0
3064,-1.4337894305341161,0
3065,1.5106159523246956,0
3066,-0.7265700514383324,0
3067,0.21158759754444653,0
3068,0.023894104078612175,0
3069,0.010210642434198829,0
3070,0.04219108896877155,0
3071,0.03630361486967333,0
3072,-0.01585652508251434,0
3073,0.041434004538588566,0
3074,0.033165951777748864,0
3075,0.04223425616516194,0
3076,0.04608645750469954,0
3077,0.043989515391529295,0
3078,0.028195688575690627,0
3079,-0.07357908597165988,0
3080,0.32402742408336405,0
3081,4.034689117455656,0
3082,6.539003126187002,0
3083,-0.9836520381660384,0
3084,-1.4411886615504836,0
3085,1.5106792986097437,0
3086,-0.7609149191129418,0
3087,0.30566570697833395,0
3088,-0.045232777956453016,0
3089,-0.04840178343285717,0
3090,-0.013714245946916802,0
3091,-0.0008643461399990438,0
3092,0.02591209760581807,0
3093,0.0033760753419488296,0
3094,0.09054655988649837,0
3095,0.03962842135844742,0
3096,0.02156087926302021,0
3097,0.07359927993368895,0
3098,-0.031335745926620126,0
3099,0.13255909813845007,0
3100,0.499352664763349,0
3101,4.067627720424366,0
3102,6.62857106968609,0
3103,-1.0376619674565464,0
3104,-1.4774483295628678,0
3105,1.4882522944901861,0
3106,-0.8150277845244831,0
3107,0.28694146314591984,0
3108,-0.00948680993457708,0
3109,-0.02255614692562191,0
3110,-0.06495270849300838,0
3111,0.05300658917278779,0
3112,-0.026719647387354904,0
3113,0.017004276208003443,0
3114,0.005924971253790538,0
3115,0.04123027685955795,0
3116,0.04156817503461387,0
3117,-0.0014144084404040073,0
3118,0.012186472141948452,0
3119,0.11577653356370442,0
3120,0.3833561563663544,0
3121,4.059355589164562,0
3122,6.576846645186174,0
3123,-1.0827656759145456,0
3124,-1.4354360700304887,0
3125,1.474077654876588,0
3126,-0.7772501518944492,0
3127,0.268087469126848,0
3128,-0.0005657572098312219,0
3129,-0.06101340166043279,0
3130,0.06550822826845433,0
3131,0.048663809169655015,0
3132,0.020929135040708584,0
3133,0.0429072953187697,0
3134,0.08817627732343593,0
3135,-0.0007694849126843074,0
3136,0.02190408313360597,0
3137,0.050340532292294224,0
3138,-0.06319313469567037,0
3139,-0.03888329898008741,0
3140,0.3193255780225511,0
3141,4.0418719629885524,0
3142,6.667188936800178,0
3143,-1.1704279158140376,0
3144,-1.4547003502480236,0
3145,1.3112681597751648,0
3146,-0.8721474049694387,0
3147,0.11427077321192486,0
3148,-0.07784204031458422,0
3149,0.042148068625323845,0
3150,0.06966775458027448,0
3151,0.08787969369343007,0
3152,-0.002887186279202359,0
3153,0.0423003615259416,0
3154,-0.030963104394168404,0
3155,0.09440915138401886,0
3156,0.06120139883548438,0
3157,0.015761940529408974,0
3158,0.014983338905349051,0
3159,-0.08782914004006438,0
3160,0.40385940341572246,0
3161,4.093966031918024,0
3162,6.683720591198608,0
3163,-1.0700500731941371,0
3164,-1.3536538459131813,0
3165,1.5437346354859713,0
3166,-0.7858541760963212,0
3167,0.15299477181111426,0
3168,-0.014735969652561038,0
3169,-0.0642950939723606,0
3170,-0.09477078449759407,0
3171,0.0672693522599866,0
3172,0.038324305302944735,0
3173,0.031249514032513345,0
3174,-0.0177262516495817,0
3175,0.011929443576424701,0
3176,-0.0740637608726595,0
3177,-0.04393496671616239,0
3178,0.010938517255236238,0
3179,-0.013045148590000333,0
3180,0.41984839477119923,0
3181,4.087656215648918,0
3182,6.588706646222022,0
3183,-1.0850410166308586,0
3184,-1.3891966435687295,0
3185,1.3969456228984458,0
3186,-0.8320868728685284,0
3187,0.18622598639327248,0
3188,-0.11769071865081457,0
3189,-0.07329314305975473,0
3190,-0.0031924381998488993,0
3191,-0.03299869434177474,0
3192,0.001734628423926344,0
3193,-0.05707078671758869,0
3194,-0.031282409796207014,0
3195,-0.0231730473941011,0
3196,-0.05138641477682105,0
3197,-0.03174813614291188,0
3198,0.022289108465071376,0
3199,-0.07180289215780838,0
3200,0.38190251075606063,0
3201,4.121190765309774,0
3202,6.5784592518273675,0
3203,-1.1483728852719093,0
3204,-1.3661441425763734,0
3205,1.4393073858111194,0
3206,-0.8099631409231461,0
3207,0.18625790457458416,0
3208,0.027095400044762356,0
3209,-0.02516953055143035,0
3210,0.00425315049398646,0
3211,-0.01016995634875149,0
3212,-0.02277649700352207,0
3213,0.008149090956354915,0
3214,0.05324793400796182,0
3215,0.07590270148343199,0
3216,-0.020247623843913015,0
3217,0.03319544797130703,0
3218,0.023387811710004213,0
3219,0.02806523120037908,0
3220,0.44042118263086744,0
3221,4.06081977563726,0
3222,6.495512850247749,0
3223,-1.1723135450096296,0
3224,-1.411112449446356,0
3225,1.4435201130015283,0
3226,-0.8275962893322362,0
3227,0.22775049140464293,0
3228,-0.049402117303267594,0
3229,0.06341914342172644,0
3230,-0.09962728517280334,0
3231,0.017386921045238986,0
3232,-0.06241651348519253,0
3233,-0.10123115905212797,0
3234,-0.07822330766766325,0
3235,0.0211059724977987,0
3236,-0.031543947528054644,0
3237,0.0024830404055782573,0
3238,0.05752641166309256,0
3239,0.03274112179160243,0
3240,0.3309918168130321,0
3241,4.091828331081936,0
3242,6.53752833361517,0
3243,-1.1083165045242114,0
3244,-1.4914772490129546,0
3245,1.4070334814796779,0
3246,-0.7387007214193418,0
3247,0.19045343105643775,0
3248,0.02728354274357445,0
3249,-0.08010161075576162,0
3250,0.004315268748972418,0
3251,-0.035030888972190664,0
3252,-0.022026110435892983,0
3253,0.020971535535217852,0
3254,0.04664590839895576,0
3255,0.009406180053407768,0
3256,-0.00747590400994538,0
3257,-0.004403794515999615,0
3258,-0.039149742052479404,0
3259,-0.031574772294601386,0
3260,0.3981970727652762,0
3261,4.038939564367692,0
3262,6.5377773223324755,0
3263,-1.1742141637903454,0
3264,-1.4615477616451498,0
3265,1.4243622388099912,0
3266,-0.7990690800244572,0
3267,0.1963097707317562,0
3268,-0.08013166338949056,0
3269,-0.033373907413346976,0
3270,-0.026170921017317675,0
3271,0.006417059140607705,0
3272,0.013722350224525816,0
3273,-0.03325065475706203,0
3274,-0.05988966151870246,0
3275,-0.1112642143084232,0
3276,0.0155293276834714,0
3277,-0.10783479637490778,0
3278,-0.0966376404760469,0
3279,-0.13544339558900859,0
3280,0.4156292578054731,0
3281,4.04881029575358,0
3282,6.572507077069269,0
3283,-1.1997602467887187,0
3284,-1.4687559028124004,0
3285,1.3938242720842275,0
3286,-0.8157591536495722,0
3287,0.25755922847684165,0
3288,-0.0400511060989817,0
3289,-0.13910802738674224,0
3290,0.006214091005429459,0
3291,-0.006892542416954094,0
3292,0.03382149052134838,0
3293,0.0018909076862879907,0
3294,-0.04455321958669328,0
3295,0.03128544115367109,0
3296,-0.041908689580451255,0
3297,0.043067058412370234,0
3298,0.0572149359684157,0
3299,-0.016493222536935904,0
3300,0.41446325532993206,0
3301,4.073126929537073,0
3302,6.577059782076159,0
3303,-1.0149801697393868,0
3304,-1.388121075268551,0
3305,1.4977512256587273,0
3306,-0.7640350456757284,0
3307,0.16866597225641553,0
3308,-0.021555281720180217,0
3309,-0.05871120355171659,0
3310,0.05978883216871402,0
3311,-0.07896867413763985,0
3312,-0.07611198628248107,0
3313,-0.020836063348308374,0
3314,-0.007525893675768393,0
3315,-0.10037232992857503,0
3316,0.034713133393883766,0
3317,-0.014820359875922224,0
3318,0.012830263759678466,0
3319,0.049596887180363584,0
3320,0.38041398233276297,0
3321,4.064015916361833,0
3322,6.57300929396292,0
3323,-1.1125126238040963,0
3324,-1.4376102542254015,0
3325,1.4056366102553142,0
3326,-0.7860345023094515,0
3327,0.2423901061283388,0
3328,-0.07718107837922618,0
3329,-0.1552010497567333,0
3330,-0.05061570874252169,0
3331,-0.02914740123463404,0
3332,0.024300206034901968,0
3333,0.0512888135060558,0
3334,-0.002064372184604847,0
3335,0.03417518210105158,0
3336,-0.08063447895982873,0
3337,0.03047161488016834,0
3338,-0.07123137471411112,0
3339,0.03331999304993475,0
3340,0.3124659412967311,0
3341,3.9953673734395454,0
3342,6.589090494172973,0
3343,-1.2160989169784224,0
3344,-1.4955586009319564,0
3345,1.361517469773348,0
3346,-0.8449134068802405,0
3347,0.11926368231123621,0
3348,-0.08185514623845849,0
3349,-0.05056465338097615,0
3350,-0.02923033800169934,0
3351,-0.004315505071192792,0
3352,-0.013754213500545301,0
3353,0.008494652521428264,0
3354,-0.0006775488337011741,0
3355,-0.06176845513593425,0
3356,-0.017722129391845955,0
3357,-0.02505684509561847,0
3358,-0.03752643415156599,0
3359,0.01636381331157323,0
3360,0.28669866431994817,0
3361,4.104394993546388,0
3362,6.45716535174887,0
3363,-1.1506988758816894,0
3364,-1.4732808055512407,0
3365,1.4539270642992543,0
3366,-0.7968159757428158,0
3367,0.15561335625991965,0
3368,-0.08495770287942105,0
3369,-0.09507234984275031,0
3370,-0.009516567368616294,0
3371,-0.019352709683188668,0
3372,-0.05083296433663417,0
3373,-0.031631631151436614,0
3374,-0.014677174690487182,0
3375,-0.027043395382312933,0
3376,0.0018944284472018347,0
3377,0.009404053225022295,0
3378,-0.017876649207188025,0
3379,-0.011274858105681282,0
3380,0.4416776071372402,0
3381,4.113365826260323,0
3382,6.522513057064376,0
3383,-1.185620180167097,0
3384,-1.4212089922409112,0
3385,1.3731075552820904,0
3386,-0.6989179843614852,0
3387,0.20211010511782684,0
3388,-0.03842448961763131,0
3389,-0.055266022603600376,0
3390,-0.08783734615705165,0
3391,-0.04908065363537994,0
3392,0.010630524056272496,0
3393,-0.0022065915030471256,0
3394,-0.0016880852988483477,0
3395,-0.044892777031210654,0
3396,0.06566308387333611,0
3397,-0.10788833134081452,0
3398,0.016326695175083047,0
3399,0.04877946784651592,0
3400,0.3137811184705941,0
3401,4.111418541943038,0
3402,6.463942690564116,0
3403,-1.1115900821082625,0
3404,-1.4045734429039527,0
3405,1.4458172967103349,0
3406,-0.8041191168634134,0
3407,0.22298077502788854,0
3408,-0.12402567970240008,0
3409,0.05106948877795782,0
3410,0.04295273527945793,0
3411,0.007744924405379001,0
3412,-0.06418511135245866,0
3413,-0.018689793694024265,0
3414,-0.1024924158928151,0
3415,-0.012897494646567824,0
3416,-0.04089014496206023,0
3417,-0.023462217889308044,0
3418,-0.04039383577653587,0
3419,0.030658627155210776,0
3420,0.4262931222388076,0
3421,4.051045531050084,0
3422,6.553815147900924,0
3423,-1.1034902683311143,0
3424,-1.3247929143199857,0
3425,1.4169866047378212,0
3426,-0.8140825083842183,0
3427,0.1340866179783715,0
3428,-0.07489157396955168,0
3429,-0.08596968664180082,0
3430,-0.018534556688964927,0
3431,-0.08133442044834457,0
3432,0.006184669368209987,0
3433,-0.07093837358896463,0
3434,-0.07198813278163844,0
3435,-0.08171604815692607,0
3436,-0.08288151601667387,0
3437,-0.0235782743859152,0
3438,-0.01986397073147659,0
3439,-0.11507217591334082,0
3440,0.34345139698171745,0
3441,4.027704579805584,0
3442,6.549133515424257,0
3443,-1.2094611295557087,0
3444,-1.3640441490421968,0
3445,1.3630470845645537,0
3446,-0.7786862205971673,0
3447,0.1781291974101565,0
3448,-0.04028713295245211,0
3449,-0.1137288967243337,0
3450,-0.06644808158165647,0
3451,-0.1264726636400061,0
3452,-0.07964046925519833,0
3453,-0.06794940465183212,0
3454,0.004616521656677142,0
3455,-0.07316928608089088,0
3456,-0.10797592435193427,0
3457,-0.049164828995354244,0
3458,-0.07601251486793427,0
3459,-0.10984593435913947,0
3460,0.3767875984740698,0
3461,4.083325367869339,0
3462,6.501093715894384,0
3463,-1.2975028536047537,0
3464,-1.5070468598241098,0
3465,1.3009036855838028,0
3466,-0.8196029697318626,0
3467,0.22849523604542013,0
3468,-0.08526908255267181,0
3469,-0.06585475379927297,0
3470,-0.05217439806266933,0
3471,-0.020033567776133555,0
3472,-0.062010393436728,0
3473,0.07928839987218245,0
3474,-0.03672415744957701,0
3475,0.07155897126292501,0
3476,-0.03199627289983785,0
3477,-0.06636500175681231,0
3478,-0.025801561175671246,0
3479,-0.05528435752296157,0
3480,0.41236102536853614,0
3481,4.115136310593483,0
3482,6.548376414632675,0
3483,-1.1447112781834585,0
3484,-1.4614402314459978,0
3485,1.4183622895685342,0
3486,-0.7331193638377757,0
3487,0.20989802834175827,0
3488,-0.08908512172988531,0
3489,-0.07081964727352154,0
3490,-0.07683866093458526,0
3491,0.038519531246109254,0
3492,-0.06290153623206686,0
3493,-0.03887318609763975,0
3494,-0.008322197981707254,0
3495,-0.11676013150676726,0
3496,-0.04090310079798425,0
3497,-0.011170929325585596,0
3498,-0.04306316728794171,0
3499,-0.014320355909161463,0
3500,0.43283206749490943,0
3501,4.108695527988807,0
3502,6.560296688183672,0
3503,-1.2956260451163832,0
3504,-1.406610021143622,0
3505,1.4347113830324405,0
3506,-0.7491365892804445,0
3507,0.2799406874648478,0
3508,0.048241103781810894,0
3509,-0.019285013149584803,0
3510,-0.017362518419358063,0
3511,0.006177746039656182,0
3512,0.060217927618622935,0
3513,0.09884577132790676,0
3514,-0.014796394196388151,0
3515,-0.035848259263869475,0
3516,-0.07832350699258575,0
3517,-0.021564305242400633,0
3518,0.0066001353487824335,0
3519,-0.04849812233852088,0
3520,0.503256543894431,0
3521,4.049092687171882,0
3522,6.520606078703621,0
3523,-1.1910804479601798,0
3524,-1.423554600665252,0
3525,1.4247629188709832,0
3526,-0.7846122856118168,0
3527,0.19883262870087834,0
3528,-0.03020311901807144,0
3529,-0.01172659930804153,0
3530,0.026949160195915915,0
3531,0.0439306745363975,0
3532,0.08169551519312289,0
3533,0.06583130049678394,0
3534,-0.05694638776726947,0
3535,0.011444059492771871,0
3536,0.028576120223559355,0
3537,-0.0895690120415734,0
3538,0.03786710041478909,0
3539,-0.023959792671520038,0
3540,0.386457503911221,0
3541,4.1151952024360545,0
3542,6.591420203551166,0
3543,-1.230924997398961,0
3544,-1.3766198983823428,0
3545,1.5054345998396423,0
3546,-0.8101189533596562,0
3547,0.2827145354209975,0
3548,0.017961020443947914,0
3549,0.01936502929261206,0
3550,-0.06127443579731543,0
3551,-0.015625483239015196,0
3552,0.0006001450329772683,0
3553,0.09232424481578627,0
3554,0.025070679884751403,0
3555,0.025692259214962144,0
3556,0.007103289365587144,0
3557,0.04617127670336089,0
3558,-0.007814531563678449,0
3559,-0.006374461484363285,0
3560,0.4419843877488896,0
3561,4.103950050747545,0
3562,6.494305630242513,0
3563,-1.2420765257495072,0
3564,-1.4060265884445493,0
3565,1.3654290467618928,0
3566,-0.8889798422358721,0
3567,0.2735068240637759,0
3568,-0.05223363657787765,0
3569,0.000866503531962895,0
3570,0.07698662803724633,0
3571,0.0647676740154399,0
3572,0.024161877791944536,0
3573,-0.10306137466891187,0
3574,0.04401944930819716,0
3575,0.03754918811980976,0
3576,0.04760581477560122,0
3577,-0.0909390745201223,0
3578,-0.03472351536894208,0
3579,0.016033687772446018,0
3580,0.4240899428939428,0
3581,4.073873589222746,0
3582,6.433792871445433,0
3583,-1.2464769237086646,0
3584,-1.3873223781230304,0
3585,1.3328122294213363,0
3586,-0.8414507406447163,0
3587,0.1827964119581067,0
3588,0.010559153797493843,0
3589,0.0003442969579619398,0
3590,-0.056441891927336216,0
3591,-0.048249717751388616,0
3592,-0.030519092317956537,0
3593,-0.060334308074199296,0
3594,-0.07161183487963237,0
3595,0.012603724134657893,0
3596,0.08486466531464926,0
3597,0.08630477100729385,0
3598,-0.06784155354673849,0
3599,-0.07797696771099934,0
3600,0.5061651107780518,0
3601,4.160824146383834,0
3602,6.542756478190783,0
3603,-1.2840110741965771,0
3604,-1.4024382235390749,0
3605,1.416871497322276,0
3606,-0.7860115552620016,0
3607,0.27580263834268526,0
3608,-0.040768013343817196,0
3609,-0.013723367945708796,0
3610,0.023847182932874283,0
3611,-0.13339521485525563,0
3612,-0.07085739640126634,0
3613,-0.08880351311229977,0
3614,0.0645802509308239,0
3615,-0.043777918968001005,0
3616,-0.012474461906570374,0
3617,-0.12419923210997169,0
3618,-0.12086268309594377,0
3619,-0.07827770539569393,0
3620,0.38657508192387546,0
3621,4.133010649051019,0
3622,6.589692849042488,0
3623,-1.2779579638675462,0
3624,-1.3686040332259586,0
3625,1.3514714149532567,0
3626,-0.7859855347923488,0
3627,0.3300677125702194,0
3628,-0.03371241314250219,0
3629,0.031081040940503724,0
3630,-0.05150003382473235,0
3631,-0.015735848392350205,0
3632,-0.013623694359240355,0
3633,0.018055582244940208,0
3634,0.08397705865928465,0
3635,0.004307643397886152,0
3636,0.1405231347754021,0
3637,-0.001301588153061993,0
3638,-0.0981980453049717,0
3639,-0.12209120850199137,0
3640,0.4232034217053185,0
3641,4.150323355345806,0
3642,6.464364960667222,0
3643,-1.303879850487663,0
3644,-1.3546463901829526,0
3645,1.3649556412932602,0
3646,-0.8656246783062963,0
3647,0.15705604255720831,0
3648,-0.0094549925164462,0
3649,-0.04384440838741022,0
3650,-0.124272093933347,0
3651,-0.08136636058286476,0
3652,-0.0071923581502355075,0
3653,-0.019221444008045305,0
3654,-0.03240407130268133,0
3655,-0.0023787216808704263,0
3656,-0.015606585910061116,0
3657,0.0061297920419550594,0
3658,0.011180314740164517,0
3659,0.06413426356725685,0
3660,0.33518105738759874,0
3661,4.109579422564889,0
3662,6.597744766731874,0
3663,-1.2127934462310073,0
3664,-1.3550660750556291,0
3665,1.331097873939634,0
3666,-0.8242800522309237,0
3667,0.21478530350432196,0
3668,-0.005681194802611485,0
3669,-0.05781461542060595,0
3670,0.008000480455201403,0
3671,0.0036632516800077196,0
3672,-0.03651954938108545,0
3673,0.06044677831880541,0
3674,-0.0018090520867651615,0
3675,0.03786010169781027,0
3676,-0.04061440613345833,0
3677,0.06856295377967851,0
3678,0.004513949365955906,0
3679,-0.0590749842882989,0
3680,0.39296447664832745,0
3681,4.108153216391355,0
3682,6.4946157587487106,0
3683,-1.2567920924444176,0
3684,-1.34260086675035,0
3685,1.3761994640226167,0
3686,-0.6906371871321283,0
3687,0.2737769297291974,0
3688,-0.010964273265067756,0
3689,-0.06721449301558162,0
3690,0.04015150808846837,0
3691,-0.04353921800308078,0
3692,-0.0717250194345169,0
3693,-0.04472214518767355,0
3694,-0.10274945167465888,0
3695,-0.04341057528843853,0
3696,0.005983203641234558,0
3697,0.014140169765328718,0
3698,0.006070252631240225,0
3699,0.014770582104684064,0
3700,0.45361769675601493,0
3701,4.221244035889239,0
3702,6.569711270921297,0
3703,-1.1714679682024585,0
3704,-1.3274720861629956,0
3705,1.3992641202926328,0
3706,-0.7345737626541047,0
3707,0.26080896999194053,0
3708,-0.0011744840134685543,0
3709,0.018335064484766146,0
3710,0.10018184903695937,0
3711,0.004435995492032831,0
3712,0.016010988144627522,0
3713,-0.032313228552566534,0
3714,-0.02227395721246124,0
3715,0.033281630663040906,0
3716,-0.04919464369402376,0
3717,0.0005674190979023525,0
3718,0.013191976742299806,0
3719,0.003219465942032252,0
3720,0.4049068430288762,0
3721,4.246830711914191,0
3722,6.629776369186984,0
3723,-1.1430607178251806,0
3724,-1.2940527431175628,0
3725,1.4409158030143019,0
3726,-0.7416331247981717,0
3727,0.3162696674894993,0
3728,-0.1605885961392178,0
3729,-0.0040414726879852295,0
3730,0.056157159461403525,0
3731,0.02798047248898016,0
3732,-0.0585799394043546,0
3733,0.042447189188139695,0
3734,-0.045575741566232314,0
3735,4.2701151486107536e-05,0
3736,-0.0036687409665997622,0
3737,-0.040092053542641684,0
3738,0.06254700157756723,0
3739,0.033723080847059696,0
3740,0.31536926995329395,0
3741,4.265615532960917,0
3742,6.630069576317229,0
3743,-1.1100620863991533,0
3744,-1.3038726111267418,0
3745,1.3202187647771904,0
3746,-0.7484995899007769,0
3747,0.3538252055927602,0
3748,0.010096471526365745,0
3749,0.05859629658987564,0
3750,-0.03755059940307143,0
3751,0.0018024374225778794,0
3752,-0.018167123410853626,0
3753,-0.11321413519988649,0
3754,0.025296524451925213,0
3755,-0.008554246553291263,0
3756,-0.07216330015517723,0
3757,-0.05675197308592154,0
3758,0.024846865737340504,0
3759,-0.0009718760223381018,0
3760,0.4120938553239334,0
3761,4.255738650395705,0
3762,6.626773260295275,0
3763,-1.3198686799556658,0
3764,-1.3344659266606063,0
3765,1.4530793067129042,0
3766,-0.7104529687780254,0
3767,0.285058305463386,0
3768,-0.0686889119097443,0
3769,-0.00736546547322949,0
3770,-0.0440251790389574,0
3771,0.050868852737521834,0
3772,0.07486746289081633,0
3773,0.03285313894349525,0
3774,0.06446722409724545,0
3775,0.08204920013421682,0
3776,-0.00216684823145972,0
3777,-0.03134091756604123,0
3778,0.047199591859143485,0
3779,0.013327448364850121,0
3780,0.5602558953831751,0
3781,4.191522804806069,0
3782,6.585256887001959,0
3783,-1.161038883900129,0
3784,-1.3055449538316592,0
3785,1.3228385590241576,0
3786,-0.778378476760119,0
3787,0.27693719591814064,0
3788,-0.0016375788694093993,0
3789,-0.025588350037922827,0
3790,-0.033344340919730486,0
3791,0.08023730850139454,0
3792,0.13136033192345692,0
3793,-0.023464489381818505,0
3794,0.035868040495933694,0
3795,0.013122456336439324,0
3796,0.10457373881832387,0
3797,0.06279077386955681,0
3798,0.13731884989059465,0
3799,-0.005991895002701484,0
3800,0.4120298368039967,0
3801,4.2117624510265035,0
3802,6.5545138450026235,0
3803,-1.2154845888929118,0
3804,-1.3053671460887988,0
3805,1.387335078948543,0
3806,-0.8153651914211033,0
3807,0.29336255279823586,0
3808,-0.16270055830234117,0
3809,0.009587920838006823,0
3810,-0.029866360343214524,0
3811,-0.018232902219095855,0
3812,0.010236858836017621,0
3813,-0.03258690983457259,0
3814,-0.015405087416846704,0
3815,0.05317891193162577,0
3816,0.03977412389934483,0
3817,0.003212761346653041,0
3818,0.09299051299993136,0
3819,0.042769254361418235,0
3820,0.49326536481477373,0
3821,4.22780106211188,0
3822,6.537836276111106,0
3823,-1.1345862613190705,0
3824,-1.2626105232539186,0
3825,1.4448749391382851,0
3826,-0.7748205521280829,0
3827,0.23418943416761295,0
3828,0.009079433351136111,0
3829,0.09898325839825875,0
3830,0.10092468987063256,0
3831,0.04155662539419726,0
3832,-0.023721985175140792,0
3833,0.11458220831292959,0
3834,0.04599424855589352,0
3835,0.05353132923528364,0
3836,0.082984423058413,0
3837,0.06885137364068865,0
3838,0.0007909052600238303,0
3839,-0.03389143725735658,0
3840,0.3892625203891766,0
3841,4.160093017651239,0
3842,6.6012089133602085,0
3843,-1.3308410720783275,0
3844,-1.3739222254247236,0
3845,1.4336990007143082,0
3846,-0.8121652496215344,0
3847,0.22327365350469355,0
3848,-0.012725462071048941,0
3849,0.03367653621300844,0
3850,-0.027370212222775008,0
3851,-0.014020991301418009,0
3852,0.044458756678860574,0
3853,-0.07537783997802493,0
3854,0.012349706359745567,0
3855,0.04721463136074115,0
3856,0.03518473966832994,0
3857,0.029526738842604844,0
3858,0.03979225143482527,0
3859,0.1338984830916892,0
3860,0.4664883747104888,0
3861,4.308270606322554,0
3862,6.611925228642543,0
3863,-1.2792760807280672,0
3864,-1.2690242593654315,0
3865,1.4643257417861462,0
3866,-0.701577995258218,0
3867,0.34706547011244093,0
3868,-0.04760045965026909,0
3869,0.06739091471004392,0
3870,0.011945347351334477,0
3871,-0.06881744528928735,0
3872,0.019568080994554364,0
3873,0.03425993650564176,0
3874,-0.013951536802755533,0
3875,0.021096622140495618,0
3876,-0.06740071758784616,0
3877,0.061199780470477694,0
3878,0.039389048924622784,0
3879,0.07258765870582976,0
3880,0.5260929082283391,0
3881,4.2456818922631046,0
3882,6.6350432553968,0
3883,-1.2124647649570897,0
3884,-1.278203779535864,0
3885,1.4241765005554055,0
3886,-0.6786391397687123,0
3887,0.3171289861961036,0
3888,0.031602977292727874,0
3889,0.09384931342267441,0
3890,0.004230192442138923,0
3891,0.13669302338898548,0
3892,0.05946432025010606,0
3893,0.05710033333092937,0
3894,0.02975929471246148,0
3895,0.03740860214193967,0
3896,-0.028189542124806583,0
3897,0.012179680727493154,0
3898,0.03763775096982052,0
3899,-0.023654297114345368,0
3900,0.3964325160954346,0
3901,4.236807840308255,0
3902,6.548531949468541,0
3903,-1.2339379061138718,0
3904,-1.260530172272514,0
3905,1.3923515458806655,0
3906,-0.725627207659443,0
3907,0.2091086287250811,0
3908,-0.009553949169802373,0
3909,-0.016166550140851457,0
3910,0.08092868179260532,0
3911,0.10211808900900599,0
3912,0.02527069856734144,0
3913,0.17243382202773222,0
3914,0.15110608763263492,0
3915,0.026857392197454893,0
3916,0.059704306256267076,0
3917,0.05100479531606446,0
3918,0.08472491541111062,0
3919,0.07511647899138586,0
3920,0.43711884990992605,0
3921,4.234659985453117,0
3922,6.542016393747407,0
3923,-1.2865269138580833,0
3924,-1.2455278438955797,0
3925,1.4284538571487502,0
3926,-0.8885434339036283,0
3927,0.28639507973066486,0
3928,-0.05479773243879361,0
3929,0.09918782768156356,0
3930,0.13442055852240503,0
3931,0.10673503863763154,0
3932,0.08873407684455133,0
3933,0.039489478231930344,0
3934,0.142680918280559,0
3935,0.03962020646007726,0
3936,0.18677268611026454,0
3937,0.10925635486166167,0
3938,0.11063745447358252,0
3939,0.13202410890209093,0
3940,0.5227595128650667,0
3941,4.22129962058475,0
3942,6.6386598208618155,0
3943,-1.3243819756121982,0
3944,-1.2344170121464788,0
3945,1.467291642686082,0
3946,-0.698893067164374,0
3947,0.2739429294012681,0
3948,-0.023736719837772816,0
3949,0.0630330142874103,0
3950,0.031339732664664804,0
3951,0.12620820871986893,0
3952,0.0028384814451682533,0
3953,0.07604201088731394,0
3954,-0.00595275861102746,0
3955,-0.02419280327097504,0
3956,-0.03465531735031608,0
3957,-0.02901412056954225,0
3958,0.04689201381767086,0
3959,0.08417169354825528,0
3960,0.36376976073751605,0
3961,4.166444934767108,0
3962,6.498116791631961,0
3963,-1.3306816893314766,0
3964,-1.267157967070259,0
3965,1.3615043006716956,0
3966,-0.8549197879642281,0
3967,0.2930710644050093,0
3968,-0.09581867261650828,0
3969,-0.029496198738946808,0
3970,0.02914124502801614,0
3971,0.10846834270658268,0
3972,0.030119034931498475,0
3973,-0.003110803787517491,0
3974,0.015040416144996707,0
3975,-0.012392466924645906,0
3976,0.05358627593166717,0
3977,-0.011301266957231978,0
3978,0.06564268560969189,0
3979,0.022253530478120766,0
3980,0.5031009765786668,0
3981,4.239587745246863,0
3982,6.6063556363064695,0
3983,-1.2560859257310684,0
3984,-1.3146391922915242,0
3985,1.3470741417596572,0
3986,-0.8006779321007623,0
3987,0.16273688263029878,0
3988,0.10793212784774195,0
3989,-0.006963243917604157,0
3990,0.029768302564675695,0
3991,0.027215984274429984,0
3992,0.0169448965202645,0
3993,0.011408748861372327,0
3994,0.07257163706342083,0
3995,0.0978269438507855,0
3996,-0.017262469152888073,0
3997,0.0074991554332182585,0
3998,-0.08056838188285385,0
3999,0.0315730337828845,0
4000,0.4099042134035143,0
4001,4.240511715663149,0
4002,6.526823732434742,0
4003,-1.3330988219970468,0
4004,-1.3270272337327527,0
4005,1.392924851741798,0
4006,-0.7703879017642046,0
4007,0.26406951099536397,0
4008,-0.037822657517198474,0
4009,-0.001343511897292253,0
4010,0.032990238647344114,0
4011,-0.0311708344086314,0
4012,9.888935514791586e-05,0
4013,0.11731442636469984,0
4014,0.03451002740362984,0
4015,0.017157304837494974,0
4016,0.037167554444358146,0
4017,0.11914657575652358,0
4018,0.008403769864578907,0
4019,0.03835295257565582,0
4020,0.4730357126101793,0
4021,4.202047885536712,0
4022,6.5219229418127025,0
4023,-1.2974146060808578,0
4024,-1.2664560719611944,0
4025,1.468271734087558,0
4026,-0.7537295777263614,0
4027,0.248111916159974,0
4028,-0.07035637194399005,0
4029,-0.09493097327289504,0
4030,0.06610555732432204,0
4031,-0.056767838940164426,0
4032,0.026821474433465824,0
4033,-0.04100305577964106,0
4034,0.08483178189033835,0
4035,0.01932853946693723,0
4036,-0.05655157131320328,0
4037,-0.01658339086877636,0
4038,0.010692580066417335,0
4039,0.007972118772059389,0
4040,0.4110601337930283,0
4041,4.210010355175934,0
4042,6.533225109168465,0
4043,-1.3860612515052013,0
4044,-1.2742368741689245,0
4045,1.3514477390915478,0
4046,-0.8540032096707838,0
4047,0.2625412198351103,0
4048,-0.06536923888292462,0
4049,-0.0005256740495815284,0
4050,0.09239760608127384,0
4051,-0.021383167515275667,0
4052,0.016177689119080196,0
4053,-0.044156760243514344,0
4054,0.03122402463693349,0
4055,-0.025324512191661753,0
4056,0.031044488111536213,0
4057,0.028335830443928095,0
4058,0.07384989892893443,0
4059,0.040289832460029526,0
4060,0.48900454563801454,0
4061,4.2366453632561605,0
4062,6.504260844399119,0
4063,-1.3007409737961693,0
4064,-1.2854651451837809,0
4065,1.3508929231949312,0
4066,-0.8425894976904509,0
4067,0.10492832735742308,0
4068,-0.083081669695874,0
4069,-0.030411130130105164,0
4070,-0.006466675060774462,0
4071,-0.027292503798710913,0
4072,-0.052925172532738624,0
4073,0.050868451457955294,0
4074,-0.027111988930317278,0
4075,-0.019455651119654138,0
4076,0.009605184198168838,0
4077,0.036636120063234856,0
4078,0.04866028872116757,0
4079,0.01152466512251351,0
4080,0.3988879050663828,0
4081,4.322777249170217,0
4082,6.485300363870426,0
4083,-1.2722193079169903,0
4084,-1.24282344243736,0
4085,1.4436084644815632,0
4086,-0.7458216889024583,0
4087,0.31522768368611015,0
4088,-0.05150124426434954,0
4089,0.040737462165706145,0
4090,0.09744343470241322,0
4091,0.020630891258284094,0
4092,0.04827328694072029,0
4093,-0.06777410807626981,0
4094,-0.014664952216750488,0
4095,-0.039020586804575035,0
4096,0.0007830439516512428,0
4097,0.026169043184827517,0
4098,0.007396965530973711,0
4099,-0.12097472287011116,0
4100,0.2631885743854875,0
4101,4.276407231414194,0
4102,6.487532101657736,0
4103,-1.3789988185245252,0
4104,-1.3208292367654133,0
4105,1.2851567294380133,0
4106,-0.8893188479403601,0
4107,0.16956837417570936,0
4108,-0.01956479184394007,0
4109,-0.06189721497288732,0
4110,0.03561828007113324,0
4111,-0.06819583863642376,0
4112,-0.017321070482340207,0
4113,-0.06455534205127968,0
4114,0.008899282748822776,0
4115,-0.006204064524707235,0
4116,-0.028191281314619673,0
4117,0.015419535892762952,0
4118,0.021495382506020892,0
4119,-0.06484078561015706,0
4120,0.45241427334090367,0
4121,4.193825649544071,0
4122,6.464489506138203,0
4123,-1.4057163435242281,0
4124,-1.2769720946988976,0
4125,1.375058887439825,0
4126,-0.765751406848618,0
4127,0.3266711919669264,0
4128,-0.04819664618181388,0
4129,-0.0746816635635634,0
4130,0.025451651599113608,0
4131,-0.028167890457982642,0
4132,0.0003522948411151111,0
4133,-0.02227271418410289,0
4134,-0.024354502638080033,0
4135,0.025076219856269143,0
4136,0.07347616708619276,0
4137,-0.058072451593407126,0
4138,0.07204341736133688,0
4139,0.006620427673657638,0
4140,0.44100971506723236,0
4141,4.236307423858696,0
4142,6.440967190708559,0
4143,-1.36003961575363,0
4144,-1.255734362733097,0
4145,1.440692177390933,0
4146,-0.7818825953595733,0
4147,0.206712835571623,0
4148,-0.05003246659246302,0
4149,-0.006989521354805588,0
4150,-0.03800949710028739,0
4151,-0.007942343433955765,0
4152,0.011859871888274236,0
4153,-0.05048168814349407,0
4154,0.02714630354374023,0
4155,-0.016029455359101198,0
4156,0.018396319011723075,0
4157,-0.020621352690944054,0
4158,0.026376492409086627,0
4159,0.050569654802055525,0
4160,0.4243101427757022,0
4161,4.229459243795243,0
4162,6.420490844885843,0
4163,-1.3110862599909863,0
4164,-1.2443796436203785,0
4165,1.3745255434457808,0
4166,-0.6995334408009544,0
4167,0.24529136600218715,0
4168,-0.05863831565814255,0
4169,0.013243664446147614,0
4170,-0.019185086536682154,0
4171,-0.02996616098317703,0
4172,0.06436439915195148,0
4173,0.002183058291176306,0
4174,-0.06592023956157997,0
4175,-0.1151776843437916,0
4176,-0.0359737058469987,0
4177,0.09408187267253912,0
4178,0.046506873337459224,0
4179,-0.02246112885470127,0
4180,0.3815760155303546,0
4181,4.180863181566296,0
4182,6.492714076845443,0
4183,-1.29956797985543,0
4184,-1.2130588423010074,0
4185,1.4386642724158414,0
4186,-0.7809361283498046,0
4187,0.2337467098364624,0
4188,-0.17706940815696534,0
4189,-0.08072426520697376,0
4190,-0.04416110427287387,0
4191,-0.06347214224871212,0
4192,0.0031971523322148372,0
4193,-0.03185200564748144,0
4194,0.07092218272788185,0
4195,0.09527696101911169,0
4196,-0.0001578037997108095,0
4197,-0.010207864249540049,0
4198,0.014692642348566763,0
4199,-0.006860623108666919,0
4200,0.5183262274979781,0
4201,4.228508871545346,0
4202,6.512083924057514,0
4203,-1.3204011130780666,0
4204,-1.2456009521495632,0
4205,1.3377850215299325,0
4206,-0.8117014953380024,0
4207,0.24644008519236082,0
4208,-0.007392569109523385,0
4209,-0.014000831239666747,0
4210,0.12575220115196367,0
4211,0.010916326233707106,0
4212,-0.03961357943265034,0
4213,-0.027426901348234008,0
4214,-0.000626090025419971,0
4215,0.06841288625977397,0
4216,0.021738784663682065,0
4217,0.07551351028831856,0
4218,-0.07091265646314612,0
4219,0.04304833179405069,0
4220,0.4722867784331638,0
4221,4.264543043585466,0
4222,6.490257512935871,0
4223,-1.3150528803375687,0
4224,-1.1897371786773652,0
4225,1.45371064364296,0
4226,-0.8002317305542714,0
4227,0.24022546494412467,0
4228,0.02859557009794338,0
4229,-0.020829821762846295,0
4230,0.0060737311921373015,0
4231,0.01636795061691613,0
4232,-0.0068700228970252145,0
4233,0.027088226828910475,0
4234,-0.09677413076357552,0
4235,0.05185744682032042,0
4236,0.0801621494045009,0
4237,0.052355836413255974,0
4238,0.014009893520532769,0
4239,0.05507415667302494,0
4240,0.5068006460184445,0
4241,4.186484181865639,0
4242,6.551971993033795,0
4243,-1.3830655627871737,0
4244,-1.1770841742197007,0
4245,1.393147877258574,0
4246,-0.6667475025684457,0
4247,0.18744772468421328,0
4248,0.05500932562009366,0
4249,-0.051614352337346764,0
4250,-0.030490612881924624,0
4251,-0.06340860194268379,0
4252,0.009839122097854192,0
4253,0.04150217885201632,0
4254,0.0072355416267601246,0
4255,-0.000985919921825805,0
4256,-0.021171349771952973,0
4257,-0.02776781880728247,0
4258,-0.04341735934061629,0
4259,0.00018208292874731177,0
4260,0.45818210736646553,0
4261,4.200925850025733,0
4262,6.463767957793606,0
4263,-1.3523938273500873,0
4264,-1.2054444649882525,0
4265,1.404088267176678,0
4266,-0.807643615323139,0
4267,0.3334402707032409,0
4268,-0.025100836696184747,0
4269,-0.003306658247658129,0
4270,0.04600630839096474,0
4271,-0.034312848680294494,0
4272,0.11981300901391931,0
4273,0.028957864432914614,0
4274,0.023457141098840832,0
4275,-0.023428970799277832,0
4276,0.01655341808245723,0
4277,0.04503531675231474,0
4278,0.12829258438102883,0
4279,-0.0020009123394087486,0
4280,0.4441744531272581,0
4281,4.212833578421782,0
4282,6.484237893017369,0
4283,-1.3580582331904472,0
4284,-1.1142579239974253,0
4285,1.3424449135697365,0
4286,-0.8590855109281117,0
4287,0.23456775877413596,0
4288,-0.14634117879163455,0
4289,0.01241537788203044,0
4290,-0.008338884028872028,0
4291,0.017391019995801324,0
4292,-0.0449861869119186,0
4293,0.06508426819512098,0
4294,0.07612284902614123,0
4295,0.06639323899117755,0
4296,0.0512915974664665,0
4297,-0.01942066464565398,0
4298,0.04119265020980817,0
4299,0.07082343052087706,0
4300,0.431076996498791,0
4301,4.239357072181349,0
4302,6.517539255911442,0
4303,-1.3242154660784309,0
4304,-1.242797516917896,0
4305,1.3599050192522524,0
4306,-0.7706151507926118,0
4307,0.19997976047560412,0
4308,-0.0004396782711253433,0
4309,1.8545358010246468e-05,0
4310,-0.04473749847135434,0
4311,0.03656473342911778,0
4312,-0.022918599485277406,0
4313,-0.03009501412620523,0
4314,-0.057678723409761434,0
4315,0.004471361300830515,0
4316,0.06144661950493914,0
4317,-0.1229126063056673,0
4318,-0.047514632007081524,0
4319,-0.06968879730613278,0
4320,0.5009490379317975,0
4321,4.17539338526773,0
4322,6.353299787208813,0
4323,-1.4203574143866764,0
4324,-1.2739362780794337,0
4325,1.3721871996649457,0
4326,-0.8750115141997469,0
4327,0.14290078592749578,0
4328,-0.0657063289057005,0
4329,-0.05514933520239826,0
4330,-0.11384916357717789,0
4331,-0.04015482233212403,0
4332,0.023225187354114902,0
4333,-0.03934138412917708,0
4334,-0.06716110681226384,0
4335,-0.08557637872825552,0
4336,-0.04936120757981865,0
4337,-0.03858173765041205,0
4338,0.08563125791664944,0
4339,0.0582583495802395,0
4340,0.34941132783942247,0
4341,4.2783122417213155,0
4342,6.462019177670281,0
4343,-1.3760159992000058,0
4344,-1.2071170013155736,0
4345,1.378548619057444,0
4346,-0.7752028826488503,0
4347,0.2396354535491703,0
4348,-0.0581360608848905,0
4349,0.008669584444087552,0
4350,-0.02336404296521384,0
4351,0.017354678575671717,0
4352,-0.02879428032947924,0
4353,0.002310489954675207,0
4354,0.01400638157760698,0
4355,-0.0504349823621614,0
4356,0.0859218789673088,0
4357,-0.05031633373383845,0
4358,-0.0032975236014945275,0
4359,0.015458760873780826,0
4360,0.4234029658066507,0
4361,4.241061942631213,0
4362,6.475234861953228,0
4363,-1.4227623457146712,0
4364,-1.273439744663039,0
4365,1.27727121820317,0
4366,-0.8000840315359629,0
4367,0.2474270487397523,0
4368,-0.00027190740662348667,0
4369,-0.04739448958548049,0
4370,0.12545561319129575,0
4371,0.06094415338116135,0
4372,0.06774257469230029,0
4373,-0.03473997453309964,0
4374,0.04353424067945078,0
4375,-0.004005937131108768,0
4376,-0.1604246532090271,0
4377,-0.042049268125656916,0
4378,-0.001141902130017346,0
4379,-0.039788934052492356,0
4380,0.4107780571843014,0
4381,4.168551027079781,0
4382,6.396048471380659,0
4383,-1.459863992592711,0
4384,-1.2654824467175019,0
4385,1.3530201825818642,0
4386,-0.8679510384800423,0
4387,0.22407640194636738,0
4388,-0.18513933217478235,0
4389,0.03590970673319392,0
4390,-0.06044230848018652,0
4391,-0.032417842935057374,0
4392,-0.05081601835539586,0
4393,-0.08790833592692772,0
4394,-0.05629946190836849,0
4395,-0.05726134015798389,0
4396,0.052697225948068166,0
4397,0.03086503103174343,0
4398,0.012529054503572428,0
4399,-0.03734615851432528,0
4400,0.4321545246187784,0
4401,4.298601845614926,0
4402,6.34605134327744,0
4403,-1.4536607926421068,0
4404,-1.2133647077698213,0
4405,1.388826991052716,0
4406,-0.8383853172090814,0
4407,0.28534251930486826,0
4408,-0.014805779346911331,0
4409,-0.06376353144738711,0
4410,0.03899123199986493,0
4411,-0.06983275894264891,0
4412,0.011103115211055534,0
4413,-0.11764034650604702,0
4414,0.09313014617727049,0
4415,-0.05085400115245653,0
4416,0.002568745222989423,0
4417,0.02078859462998579,0
4418,-0.06215552773643231,0
4419,0.025335039450280924,0
4420,0.36846317364664927,0
4421,4.249382817798497,0
4422,6.40388403397107,0
4423,-1.402762289116892,0
4424,-1.1556570465089129,0
4425,1.3537767052600793,0
4426,-0.7698361620691172,0
4427,0.18955146207703288,0
4428,-0.01592290718095482,0
4429,-0.050011463411228224,0
4430,0.01952465030791879,0
4431,-0.10769742843263722,0
4432,-0.054257885147631385,0
4433,-0.010656314574486809,0
4434,-0.039052728529874924,0
4435,-0.033651210242964545,0
4436,0.010050636202207947,0
4437,-0.06828545182686199,0
4438,0.0037435524720832777,0
4439,-0.003796105600132513,0
4440,0.4407120643823955,0
4441,4.365473046386834,0
4442,6.444797628290689,0
4443,-1.3796662415762186,0
4444,-1.164267223319222,0
4445,1.4299736278289237,0
4446,-0.756621421027383,0
4447,0.24609561248789058,0
4448,-0.030245304747719574,0
4449,-0.07617273298104178,0
4450,0.013923321778574173,0
4451,0.059311929854212034,0
4452,0.0894508337674769,0
4453,0.07161540975474844,0
4454,-0.07451963805983834,0
4455,-0.012065527518084075,0
4456,-0.055289931923537775,0
4457,0.02436952576298752,0
