timestamp,value-0,is_anomaly
0,0.34804952473909423,0
1,3.482070022132786,0
2,6.959550486672048,0
3,-0.2521470640127326,0
4,-1.9992479793927034,0
5,1.4979435410947999,0
6,-0.7627631183250375,0
7,0.0981125514276841,0
8,0.06890205195864699,0
9,-0.1313352594881608,0
10,-0.060940662826151314,0
11,-0.049736967924333256,0
12,-0.01084084060589455,0
13,-0.08392627061510276,0
14,0.035626016772793645,0
15,-0.0003184594258318456,0
16,-0.03914349745258384,0
17,-0.02081582937344442,0
18,0.06625790202225897,0
19,-0.01583868509326001,0
20,0.28125320599647335,0
21,3.4381013831202187,0
22,6.94098324704262,0
23,-0.3078105665479075,0
24,-2.024050250780788,0
25,1.5651678237398443,0
26,-0.7024220598564338,0
27,0.21345318335693264,0
28,0.053393465428922975,0
29,0.028275444602557875,0
30,0.02665918742134247,0
31,0.03887503208863974,0
32,-0.029683217774004962,0
33,0.020642337738688718,0
34,-0.0033377764444780626,0
35,0.015608928079073799,0
36,-0.013964603942877366,0
37,-0.029195746564840742,0
38,-0.018922806484058575,0
39,-0.017493121379884957,0
40,0.263848920775482,0
41,3.536142249448454,0
42,6.8990048865786004,0
43,-0.3203399050749382,0
44,-1.9115173097587999,0
45,1.525045712065494,0
46,-0.716376346760264,0
47,0.13879796946116657,0
48,0.03156607479953558,0
49,-0.04744919085997797,0
50,-0.04645552737778949,0
51,0.03139373612886468,0
52,-0.031038411608170825,0
53,0.14024243330790997,0
54,-0.032266551870931144,0
55,-0.03852909599157676,0
56,0.05377190145211615,0
57,-0.06833137164503697,0
58,-0.03285683001139106,0
59,0.11102544813214268,0
60,0.18132594024623755,0
61,3.5163820235302254,0
62,6.800700465413137,0
63,-0.25365146003699196,0
64,-2.006540654237368,0
65,1.43223326862347,0
66,-0.7628367516736357,0
67,0.1329718396593843,0
68,-0.12232224381994847,0
69,-0.06953213230755151,0
70,-0.006590004506385885,0
71,-0.13422927365640627,0
72,-0.10857839931061594,0
73,0.021057661920201802,0
74,-0.03208805134924177,0
75,-0.04389738326500715,0
76,-0.0965606154014546,0
77,-0.04665274336729237,0
78,0.08931985248860498,0
79,-0.059720000513419046,0
80,0.2250478458286001,0
81,3.5314202936075416,0
82,6.88169642017379,0
83,-0.2555885705771906,0
84,-1.921618725720847,0
85,1.594051731767684,0
86,-0.6881929026332813,0
87,0.191109368726601,0
88,0.05979507934479379,0
89,-0.009607594744384114,0
90,-0.05176550633227414,0
91,0.0025671262353885137,0
92,0.005028189928918608,0
93,0.023861933816209727,0
94,-0.08885673617935419,0
95,0.09066364857626952,0
96,0.10719363225272308,0
97,0.0018747093121822787,0
98,0.012550512841709917,0
99,-0.056438349739252006,0
100,0.32700379238905364,0
101,3.5193978470704357,0
102,6.935401413242057,0
103,-0.1546330858638746,0
104,-1.9251649829121273,0
105,1.543495694755216,0
106,-0.6611194579507378,0
107,0.09897736214700942,0
108,-0.0388136499855772,0
109,-0.07270150361446674,0
110,0.06953225475578886,0
111,-0.04046412468121149,0
112,0.027760378557425802,0
113,0.0844730748541836,0
114,-0.011130597590397258,0
115,0.026017670704324335,0
116,0.026058899340350463,0
117,0.01052110935925871,0
118,0.061866839879195,0
119,0.016832300780464497,0
120,0.3081898233767454,0
121,3.462376223241781,0
122,6.880641142605841,0
123,-0.20146505389494213,0
124,-1.949185318585358,0
125,1.5496985274528559,0
126,-0.7476900381698968,0
127,0.09666575208151021,0
128,0.02259338952369399,0
129,-0.03879713598099284,0
130,-0.07204312210059283,0
131,-0.07093085039144376,0
132,0.08476638017654081,0
133,-0.04642467491819258,0
134,0.011809888043654388,0
135,0.09202244934784631,0
136,-0.036684168113310205,0
137,-0.08792928306446443,0
138,0.027734337514655656,0
139,-0.032365622521980206,0
140,0.1817237641840913,0
141,3.510357379583114,0
142,6.840000395961176,0
143,-0.27732596757710615,0
144,-1.9989855321865306,0
145,1.4807651736190284,0
146,-0.7212665350220595,0
147,0.061897579180274186,0
148,0.027004846679570434,0
149,-0.07668385497333677,0
150,-0.06664774844293311,0
151,-0.05293225676232953,0
152,-0.011257346592256638,0
153,-0.06288372806565222,0
154,0.011699832171678276,0
155,-0.15498024066793334,0
156,-0.06644446046758141,0
157,-0.05014598587575565,0
158,-0.049913835269001366,0
159,0.07932466255280637,0
160,0.1886046478814987,0
161,3.445494968990347,0
162,6.838355285765676,0
163,-0.32120637747544817,0
164,-2.0559374947620435,0
165,1.4313327929025013,0
166,-0.8481003011156626,0
167,0.0911255647239829,0
168,-0.0691118449345013,0
169,-0.15766873437884144,0
170,-0.056629617097962326,0
171,-0.08785989692888413,0
172,-0.09533952763136741,0
173,-0.0854184559859267,0
174,-0.13078713304685957,0
175,-0.012798670493551358,0
176,-0.037757495625660144,0
177,-0.029627082126089298,0
178,-0.07684601995728516,0
179,-0.0029853283512235353,0
180,0.2300736800887405,0
181,3.621770159889078,0
182,7.007847800840331,0
183,-0.31513372158776787,0
184,-1.9911251921843078,0
185,1.5232390488235252,0
186,-0.7957347996880753,0
187,0.19727392273662514,0
188,0.009520321304125268,0
189,-0.01314822189624254,0
190,0.005500627607955874,0
191,-0.0012725735014737435,0
192,-0.04267152357917847,0
193,0.014272291773383652,0
194,-0.0687832522413772,0
195,-0.034080662469473916,0
196,0.012370569291879269,0
197,-0.021386351145443877,0
198,-0.04725096203952363,0
199,-0.003051676900947464,0
200,0.2543127153877428,0
201,3.4958331108527743,0
202,6.8307465324038965,0
203,-0.33705158587890777,0
204,-1.887165556444663,0
205,1.481385440019489,0
206,-0.8209598812661241,0
207,0.14027052229360598,0
208,0.07592569989310674,0
209,-0.0689452357886303,0
210,-0.12131071523589702,0
211,-0.037949182578002054,0
212,-0.049070895210917925,0
213,-0.08530747632769907,0
214,-0.05584796822011498,0
215,-0.06891456710416209,0
216,-0.03653427475643012,0
217,-0.13129612974374905,0
218,-0.14144966690961427,0
219,-0.03581389275598108,0
220,0.2663025283467073,0
221,3.490560351300419,0
222,6.787752494745022,0
223,-0.3447431124150112,0
224,-1.9179510722805333,0
225,1.572681079446615,0
226,-0.6912392489207686,0
227,0.2179469354303058,0
228,0.0045137265675536595,0
229,-0.061931745019416576,0
230,0.03744801432812027,0
231,0.010793177173407092,0
232,-0.03313581394523928,0
233,0.07373687292207098,0
234,-0.009382338356279316,0
235,-0.06158564303547546,0
236,-0.04975689943468166,0
237,0.03789177979370687,0
238,-0.05566067471687387,0
239,-0.03620241345911213,0
240,0.19770686759625403,0
241,3.5285694996936474,0
242,6.842535616115677,0
243,-0.3366292764597322,0
244,-1.9624132546128183,0
245,1.4929413515799161,0
246,-0.7399086879947787,0
247,0.21829152916646752,0
248,-0.02905912628848971,0
249,-0.03144189545759951,0
250,0.08210707192275954,0
251,-0.06208811401205612,0
252,-0.04670392040209556,0
253,0.034545117915961744,0
254,0.033777841249094526,0
255,-0.06852728865221389,0
256,0.07404339117061254,0
257,-0.015564850803936572,0
258,-0.10155869409455533,0
259,-0.022815334393013226,0
260,0.31032218456644345,0
261,3.574433803283893,0
262,6.943939073282696,0
263,-0.2739715433463885,0
264,-1.9227716431277206,0
265,1.6188546906829329,0
266,-0.6830789131206398,0
267,0.0528632155899911,0
268,0.061680515366170904,0
269,-0.11783339283541464,0
270,0.030546295547007773,0
271,0.02003710250999212,0
272,-0.10475545606744915,0
273,0.03299851486038914,0
274,-0.01883202740830233,0
275,-0.05139528013361764,0
276,-0.023304686929487953,0
277,0.04357550650739317,0
278,0.03875203120203012,0
279,-0.06670990650923073,0
280,0.23376850375722993,0
281,3.5140929112750103,0
282,6.893291018522555,0
283,-0.3055846963473587,0
284,-1.9443835092845687,0
285,1.6271427911907188,0
286,-0.7029513964601642,0
287,0.20234253049612325,0
288,0.05325050074972279,0
289,-0.06224204270375615,0
290,0.015864054653398182,0
291,0.021430558366760763,0
292,0.006789760620197692,0
293,0.032730824607854994,0
294,-0.0074183815648047186,0
295,0.04643077321907458,0
296,0.05968670401018863,0
297,-0.020626988993091722,0
298,0.041332663536677985,0
299,0.06147744676743216,0
300,0.35896155550091924,0
301,3.5886316905200997,0
302,6.855496298523111,0
303,-0.33908060304545773,0
304,-1.8336414796049219,0
305,1.588750025927788,0
306,-0.7214301055191275,0
307,0.22469537910506926,0
308,-0.014734947411308319,0
309,-0.07361815679242498,0
310,0.03646379122744707,0
311,0.0525591266957,0
312,0.0025571163814495854,0
313,0.011561353461752806,0
314,0.07508639847813768,0
315,-0.013221509549185509,0
316,0.022805095396131434,0
317,-0.004133238462855994,0
318,-0.004050461873574499,0
319,0.053826184273566446,0
320,0.2889392932411914,0
321,3.583811695072973,0
322,6.8989349569477145,0
323,-0.28283297013553393,0
324,-1.8244262703323506,0
325,1.5501243132046985,0
326,-0.673405558420241,0
327,0.14212011631716065,0
328,0.09408691350688109,0
329,0.017465214611518638,0
330,-0.006755613536735788,0
331,0.048350982441544066,0
332,0.01774878982230957,0
333,-0.02135131125556537,0
334,0.15456755329779578,0
335,0.05784696382732073,0
336,0.040524714896676174,0
337,-0.019617857269954533,0
338,0.05582038299089213,0
339,-0.13743733937174002,0
340,0.3346446055878597,0
341,3.452304467048043,0
342,6.846550568984596,0
343,-0.34299895283538817,0
344,-1.993221324187522,0
345,1.5646512353658464,0
346,-0.7024963365376091,0
347,0.21383043595215875,0
348,0.0036662689065694795,0
349,-0.09996639315349079,0
350,0.003031531492729906,0
351,-0.07585965597249839,0
352,-0.005158205472648414,0
353,-0.006878105369630579,0
354,-0.09753799146564297,0
355,0.03698867983349525,0
356,-0.032732821997388424,0
357,0.019024652067523982,0
358,0.007498640516166723,0
359,-0.05789728833325801,0
360,0.3226936633210141,0
361,3.4935340056267035,0
362,6.890779047789112,0
363,-0.33227252981020206,0
364,-1.8441440919260486,0
365,1.599140089364995,0
366,-0.8067044549155383,0
367,0.14348406722349757,0
368,-0.0561288938743767,0
369,-0.03644131271253312,0
370,0.02662191461033494,0
371,0.03737453981783104,0
372,-0.03801295749156062,0
373,0.031187377873549086,0
374,0.09698278469760913,0
375,0.011097851007953963,0
376,0.14649489241754687,0
377,0.08193731236967655,0
378,0.05675187364078656,0
379,0.05524985144696029,0
380,0.4079844885386513,0
381,3.6693074222026594,0
382,6.828276106599709,0
383,-0.24192357465897246,0
384,-1.9051970649152015,0
385,1.599676183187621,0
386,-0.7439572133102141,0
387,0.08989633124368694,0
388,0.07308066896432691,0
389,-0.0818913121654278,0
390,-0.04200779090754351,0
391,0.005552291251080749,0
392,0.06098490196481581,0
393,0.08025287432691895,0
394,-0.008896386330323268,0
395,0.008756811807906162,0
396,0.1087479684048148,0
397,0.03928974373875771,0
398,0.06746558947806158,0
399,0.004575907620485219,0
400,0.2771867205373573,0
401,3.6015754016467456,0
402,6.904103636862571,0
403,-0.24382748249497177,0
404,-1.820680074935556,0
405,1.5907818286823314,0
406,-0.7413293981311536,0
407,0.14886004739681763,0
408,-0.005113956032466345,0
409,-0.09547136122627045,0
410,0.03188189517416369,0
411,-0.057490862193892094,0
412,0.002348631584796725,0
413,-0.003997240728235808,0
414,0.014897032870774537,0
415,0.0614535284509921,0
416,-0.04817249893884787,0
417,-0.03339536554527148,0
418,0.08299424707335595,0
419,0.05238737391665714,0
420,0.2059839368192231,0
421,3.5827242127636643,0
422,6.895392130022873,0
423,-0.3662458227061773,0
424,-1.9561119562365952,0
425,1.5187191603394004,0
426,-0.7830116009725357,0
427,0.15622883844207255,0
428,0.013828036084016799,0
429,-0.11203909466758818,0
430,-0.10546600176285634,0
431,-0.0986524453323224,0
432,-0.09058213124316776,0
433,-0.06695431268385817,0
434,-0.05374840640380553,0
435,-0.11591632489790349,0
436,-0.031162720074479684,0
437,-0.15305305779628026,0
438,0.014086037087198466,0
439,-0.0513192603995092,0
440,0.2250360044541626,0
441,3.6733934245618767,0
442,6.860944772747396,0
443,-0.44084354885909605,0
444,-1.858362267572831,0
445,1.4598789534456933,0
446,-0.7465339213617799,0
447,0.0792179908543826,0
448,0.022225621181737727,0
449,-0.023373561233482575,0
450,-0.05387937024624992,0
451,-0.009724190839658347,0
452,-0.0960692916497884,0
453,-0.05422614795387421,0
454,0.016934626698934908,0
455,0.06627690517162046,0
456,-0.035701678136642497,0
457,0.05778948114833789,0
458,0.04393618672703643,0
459,0.046726600253042073,0
460,0.31829806255054127,0
461,3.4957962358056456,0
462,6.77780166059578,0
463,-0.3898179571315751,0
464,-1.8661330302184125,0
465,1.4789384196106852,0
466,-0.7537144621552435,0
467,0.187847941906438,0
468,-0.054892654270112015,0
469,-0.09819418064033408,0
470,-0.10092599718555878,0
471,-0.044982494479479204,0
472,-0.0577370821862836,0
473,-0.0283662723840623,0
474,-0.05470339854832372,0
475,0.06813502817579437,0
476,-0.11125989722267396,0
477,0.04002405623150713,0
478,0.04402361039649986,0
479,0.03207759325221152,0
480,0.25287285224449046,0
481,3.6143069008529265,0
482,6.777990171280988,0
483,-0.491329087460313,0
484,-1.8390994008289894,0
485,1.4942743773354346,0
486,-0.7842921267388768,0
487,0.13868097394785006,0
488,-0.021284048184506812,0
489,-0.03980019403549552,0
490,0.003403837841652397,0
491,0.015800555725700317,0
492,0.10318674615782582,0
493,-0.07195752561415487,0
494,0.05618021458218267,0
495,0.033889337704274936,0
496,-0.03480478823643445,0
497,0.005542127878108997,0
498,0.005849495314046682,0
499,-0.030970119752122455,0
500,0.3297619104010093,0
501,3.580397675701716,0
502,6.857225864020688,0
503,-0.433286298766866,0
504,-1.8536394214970553,0
505,1.5869430903593662,0
506,-0.7203018768577905,0
507,0.2314424550012854,0
508,0.13029937181650542,0
509,-0.06260884767227665,0
510,0.031063148773069277,0
511,0.035793673950170524,0
512,-0.0028409355325198504,0
513,0.0005274225068838054,0
514,0.07458724661166383,0
515,0.010467520268667704,0
516,0.04120751223439227,0
517,0.11150974291263148,0
518,-0.042688162250930896,0
519,0.02257790379198027,0
520,0.19932318191838178,0
521,3.619925460971514,0
522,6.92988791473981,0
523,-0.346761657329839,0
524,-1.9520764582270957,0
525,1.5491159704927722,0
526,-0.7293090051975291,0
527,0.1062745538218163,0
528,0.04851049712048133,0
529,-0.05121101516488383,0
530,0.06190255295886657,0
531,-0.07231505350469894,0
532,-0.045171170721224174,0
533,-0.05080610332714471,0
534,0.06210879648036427,0
535,-0.049434050694225726,0
536,0.04448620641101952,0
537,-0.030158980213978073,0
538,-0.09153101932419455,0
539,-0.09716031386896462,0
540,0.3191717929764616,0
541,3.545264310316571,0
542,6.806591347837069,0
543,-0.422419491647272,0
544,-1.8839254016508649,0
545,1.5421616602618342,0
546,-0.7628473628351733,0
547,0.1078858221328806,0
548,0.015759933479259722,0
549,-0.14874753551107012,0
550,0.061304685301999166,0
551,-0.02722328009124684,0
552,0.029199302159954758,0
553,0.07745519908900829,0
554,-0.0342652814585563,0
555,0.1563249442483007,0
556,0.04834972456297032,0
557,0.04710525907114032,0
558,0.11809291465930977,0
559,0.05479570158691727,0
560,0.31637427150255626,0
561,3.611221276981034,0
562,6.842963464280868,0
563,-0.452664845855462,0
564,-1.8274362976448768,0
565,1.5343577335738239,0
566,-0.838253212010249,0
567,0.09902262087734684,0
568,-0.03689442831144947,0
569,-0.15457110362521703,0
570,0.06913419875435788,0
571,-0.091923462347386,0
572,0.04845865045247071,0
573,-0.09275472088318663,0
574,-0.006634536523949713,0
575,-0.009822309883139414,0
576,-0.003577057181487195,0
577,-0.0718652797363468,0
578,-0.0011477758744992482,0
579,-0.0020330056959788063,0
580,0.27117085556280096,0
581,3.62971157535964,0
582,6.945315016181567,0
583,-0.4424396845355228,0
584,-1.8638760253529054,0
585,1.5455292926709165,0
586,-0.7823854472691449,0
587,0.1611924708370915,0
588,-0.002681900457605713,0
589,-0.12867248873346035,0
590,-0.032181947140487256,0
591,-0.09505577814404305,0
592,-0.007098478198668032,0
593,-0.05172396036510158,0
594,-0.06773069747408668,0
595,-0.1041602428964166,0
596,-0.0027238065007917853,0
597,0.048745187145053645,0
598,0.01770030685894485,0
599,-0.13176802484248784,0
600,0.18905662430306097,0
601,3.6761144340813616,0
602,6.903728104963011,0
603,-0.3979428394724247,0
604,-1.894087278858992,0
605,1.4780067598869069,0
606,-0.733361645707924,0
607,0.14411478181268533,0
608,0.05625326953812605,0
609,-0.1209728382346398,0
610,-0.03584023023305344,0
611,-0.07772293338463851,0
612,-0.10110038439619101,0
613,-0.08316892514478831,0
614,0.039009586836068026,0
615,-0.039480676703079434,0
616,-0.09728396633832369,0
617,-0.004843934676178906,0
618,0.012181071356921199,0
619,-0.09116298569604131,0
620,0.2047038195067717,0
621,3.6256953139147106,0
622,6.819185419498652,0
623,-0.401010007370188,0
624,-1.8688691470866043,0
625,1.5857519227280419,0
626,-0.7715678270469846,0
627,0.1794581636377159,0
628,-0.006403441159598899,0
629,-0.11883386286422364,0
630,-0.05116506651607643,0
631,0.02811212943380767,0
632,-0.05316361364244519,0
633,-0.034228981788538566,0
634,-0.022626012097345806,0
635,-0.10337676070124081,0
636,0.0191941684490956,0
637,-0.022007429313499575,0
638,-0.027362061216965338,0
639,-0.05655694560830248,0
640,0.19799247032525785,0
641,3.6669052759729386,0
642,6.826236179675763,0
643,-0.457650598634527,0
644,-1.904432837568781,0
645,1.5760486055610612,0
646,-0.7276695787762589,0
647,0.2540631354407957,0
648,0.003733373761260296,0
649,-0.03501718782663361,0
650,0.09819808267068941,0
651,0.0016670958036803726,0
652,0.027141023931152166,0
653,0.04657313050080486,0
654,-0.024588061211460545,0
655,0.030667484519534566,0
656,0.07367407761686506,0
657,-0.005085105203532891,0
658,0.06897796170600178,0
659,0.09048228951013171,0
660,0.28591565467299346,0
661,3.693857452206011,0
662,6.916920012399239,0
663,-0.42564126133105684,0
664,-1.796447739924139,0
665,1.5751635216365916,0
666,-0.7324905757916477,0
667,0.1758743160530092,0
668,0.07780728905930692,0
669,-0.007299276442834979,0
670,0.012474882711177665,0
671,0.03604352801174607,0
672,-0.0641699473179666,0
673,0.08748942963026923,0
674,0.031233983613312758,0
675,0.0417988458182552,0
676,0.13728035023896856,0
677,-0.025128471836003134,0
678,0.07748073145692462,0
679,0.041757946533345205,0
680,0.3612321743245557,0
681,3.663101001886532,0
682,6.867280910874555,0
683,-0.3069157496479117,0
684,-1.8617855330726034,0
685,1.5102310275155457,0
686,-0.736981558566334,0
687,0.24770820883399575,0
688,0.018657637143912442,0
689,0.02002427973654673,0
690,-0.01860245576587928,0
691,0.006839627416459937,0
692,0.040957045577820615,0
693,0.1375382853947853,0
694,0.10143893627431816,0
695,0.035050364435541735,0
696,0.057811910064799056,0
697,0.02709436585343772,0
698,0.014264528572109095,0
699,0.07111812707661148,0
700,0.3971968255681965,0
701,3.617067736603461,0
702,6.789882440480889,0
703,-0.3496074036831151,0
704,-1.8259707727728929,0
705,1.5317109430037767,0
706,-0.6544895165789562,0
707,0.23597517039673588,0
708,0.11252363886937546,0
709,-0.023137985235563912,0
710,-0.020549684673407273,0
711,-0.0018609150867246876,0
712,0.09651445627226396,0
713,0.04249366094085491,0
714,0.1109971332552364,0
715,0.10615422355648664,0
716,0.06763027418200693,0
717,0.15795620743958233,0
718,0.14744063996614226,0
719,-0.010696844281763762,0
720,0.2760748668106838,0
721,3.6382072526782467,0
722,6.891703482509356,0
723,-0.3202737743297644,0
724,-1.7192303879727135,0
725,1.6152788469797157,0
726,-0.5893206377866835,0
727,0.2027804376956134,0
728,0.08413671810183604,0
729,-0.027814802981941195,0
730,0.09364999715319441,0
731,0.17279422170126857,0
732,0.11398321379874118,0
733,0.17919942393601004,0
734,0.09435963742427086,0
735,0.061130910094040154,0
736,-0.003445570996321125,0
737,0.011056297096253317,0
738,-0.015968722603842925,0
739,0.018762939873424502,0
740,0.3066116593535,0
741,3.7401114993282385,0
742,6.842763253494592,0
743,-0.424017572257784,0
744,-1.7644630539182002,0
745,1.5722638121442472,0
746,-0.7415424367522799,0
747,0.17862339475872038,0
748,0.05250323323684709,0
749,-0.022952610973279122,0
750,0.08378732559538854,0
751,-0.005603727341531861,0
752,0.04097870307005891,0
753,0.0004943387283104679,0
754,0.10690966785328729,0
755,0.000605786976689407,0
756,0.05323607453571087,0
757,-0.008154724141848181,0
758,-0.11767438179540038,0
759,0.11329164461062911,0
760,0.3336170242201187,0
761,3.5550734786092346,0
762,6.867850472810132,0
763,-0.3879830000088085,0
764,-1.7334675460702083,0
765,1.5141958272509968,0
766,-0.79577063232115,0
767,0.21404114401196722,0
768,0.03667916180168855,0
769,-0.002146114224341463,0
770,0.07563557789031573,0
771,-0.06997079021503523,0
772,0.025274856058953035,0
773,0.09873994448225566,0
774,0.01722221334519342,0
775,0.07212442546800059,0
776,0.07272293099753535,0
777,-0.034601772415638006,0
778,0.07833009510299771,0
779,-0.011564277263569865,0
780,0.35678318028315714,0
781,3.662464109447909,0
782,6.906410740802752,0
783,-0.4025474490961152,0
784,-1.777484879231851,0
785,1.7116494246170317,0
786,-0.7806951598439573,0
787,0.09962525725377129,0
788,0.044726483305264415,0
789,-0.04882662576820227,0
790,-0.07340781065029188,0
791,-0.018385345590495296,0
792,0.0780990075880256,0
793,0.04296071604558155,0
794,0.03441944599561721,0
795,0.0634071795449692,0
796,0.03750988001746431,0
797,-0.08230796086746253,0
798,-0.05365860064331722,0
799,0.005236155234807159,0
800,0.32774135491015327,0
801,3.5937653848580626,0
802,6.81857530745914,0
803,-0.46894573770526266,0
804,-1.7611313698559183,0
805,1.538087769739217,0
806,-0.634309705880706,0
807,0.22821590023456367,0
808,0.04087533118325093,0
809,0.029429792945135817,0
810,0.02882142691931195,0
811,-0.03235549388713295,0
812,0.03601284388816354,0
813,0.007805364837678404,0
814,-0.014574878025507198,0
815,0.03648890103075207,0
816,0.02057881407820811,0
817,0.029885024775477234,0
818,-0.07139292330155783,0
819,-0.005491435511168624,0
820,0.2855701014877334,0
821,3.696901065082303,0
822,6.895579078477372,0
823,-0.4252600305839679,0
824,-1.8570025301509108,0
825,1.58583500604676,0
826,-0.6392043867590717,0
827,0.13676806163225924,0
828,0.006022344343855367,0
829,-0.0741987812927078,0
830,0.0970794600593293,0
831,0.018760354211617612,0
832,0.03948226979099562,0
833,0.01661166990790782,0
834,-0.006281723889409306,0
835,0.039128150143038234,0
836,0.04244618528710169,0
837,-0.008002190631116617,0
838,0.04307901991143219,0
839,-0.00229275469551851,0
840,0.33857099911229277,0
841,3.6413008162556983,0
842,6.783408031200826,0
843,-0.4640497926141141,0
844,-1.7959805782281117,0
845,1.5583356523516751,0
846,-0.7801228398369453,0
847,0.08061559770832354,0
848,0.04865225060970839,0
849,-0.06674845969009294,0
850,-0.020584135838497747,0
851,-0.0658805436033457,0
852,-0.0017481572821726285,0
853,0.06425011459094007,0
854,-0.014736866210994072,0
855,0.03363502647207524,0
856,-0.002663484824952253,0
857,-0.02275924467178802,0
858,-0.1325888690787983,0
859,0.03842567105468448,0
860,0.2225986806752114,0
861,3.5786086868398796,0
862,6.700681084784294,0
863,-0.5321260770354793,0
864,-1.8350134547199826,0
865,1.5661210482423915,0
866,-0.79948177642194,0
867,0.07370375515465748,0
868,-0.025966801678908538,0
869,-0.057945525413676036,0
870,-0.02948902038171359,0
871,-0.026311441908469086,0
872,-0.05233878327409871,0
873,-0.06053265719858847,0
874,-0.03562471123614292,0
875,0.059882824557370776,0
876,-0.02418237376737296,0
877,0.025467795589651166,0
878,-0.09146742271885354,0
879,-0.033592252234368396,0
880,0.3496719820316826,0
881,3.6869134923350817,0
882,6.882252615556457,0
883,-0.5802891107417638,0
884,-1.864920451484627,0
885,1.6115612451227763,0
886,-0.7141276409449153,0
887,0.22322011076245854,0
888,0.035981228149238376,0
889,-0.026533871785123814,0
890,-0.04803841128711102,0
891,-0.008427131668432435,0
892,-0.04944400190068043,0
893,-0.0706300001549443,0
894,0.04888972776925643,0
895,0.018805617941104073,0
896,-0.013993109105227176,0
897,-0.07037712573380635,0
898,0.027458775405149474,0
899,-0.04118418759802296,0
900,0.3220424259057251,0
901,3.649322552272934,0
902,6.824948628964134,0
903,-0.46034320455717054,0
904,-1.8188253358609279,0
905,1.4473757752736627,0
906,-0.6743567991845202,0
907,0.05269584063304879,0
908,-0.04241430754134684,0
909,-0.1281967652330484,0
910,0.001326776816531896,0
911,-0.12432465867719147,0
912,-0.0705160798785569,0
913,0.0012183479872943659,0
914,-0.04325231870740756,0
915,0.06449699946545644,0
916,-0.06532982661895896,0
917,-0.00662524602945933,0
918,0.07874873604268298,0
919,0.029278063440588135,0
920,0.28313864092050134,0
921,3.6177803671069273,0
922,6.782264105891704,0
923,-0.5099710146648762,0
924,-1.848414709822525,0
925,1.510836801486568,0
926,-0.7774321813694943,0
927,0.07496958214583291,0
928,-0.03062061462077058,0
929,-0.10677121666877432,0
930,0.04200751026274292,0
931,-0.015371529295170532,0
932,-0.07879510518224693,0
933,-0.00012471457129985958,0
934,-0.01846298501528463,0
935,-0.10731428667611978,0
936,-0.0027834836844750563,0
937,-0.022329524343171227,0
938,-0.03615192992635213,0
939,-0.057683328292754604,0
940,0.07705285041108129,0
941,3.5764686649163258,0
942,6.7039616546954885,0
943,-0.5631211984325082,0
944,-1.8474837906465502,0
945,1.4375129367827302,0
946,-0.8158817958791895,0
947,0.14608247045647735,0
948,-0.013174607715969065,0
949,-0.11637609594450653,0
950,-0.003694523215936038,0
951,-0.06196732597797564,0
952,0.06693211223169945,0
953,-0.11865980014135238,0
954,-0.0141062124651073,0
955,-0.11146316649414587,0
956,-0.05464213608105317,0
957,-0.10546338719520897,0
958,0.008687758429682918,0
959,-0.0008020648126867702,0
960,0.25732203310152896,0
961,3.646021887400338,0
962,6.744731136608662,0
963,-0.4023870441423243,0
964,-1.84205984183327,0
965,1.470685054858758,0
966,-0.8512140258780777,0
967,0.17958149165476947,0
968,-0.003825847281198656,0
969,-0.01273129266232427,0
970,-0.001913000579052157,0
971,-0.05134163981016843,0
972,-0.02343539616608227,0
973,0.0028449092947578636,0
974,-0.06628987080073914,0
975,-0.05511050471885991,0
976,0.005877559320166474,0
977,0.0042903757043670915,0
978,0.00688599636963097,0
979,-0.05052171124506309,0
980,0.20591391435300546,0
981,3.6936102933163246,0
982,6.790956262445699,0
983,-0.5460777783225913,0
984,-1.849185803102336,0
985,1.4333352611009287,0
986,-0.7723901523430508,0
987,0.06242010635853698,0
988,-0.03753592386605485,0
989,-0.12858702424625357,0
990,0.0693209136264084,0
991,-0.014465320629686345,0
992,0.020980180260187158,0
993,0.018655032328427898,0
994,-0.03964537322706575,0
995,-0.021118409348581453,0
996,-0.02776381183559567,0
997,-0.14602839188836597,0
998,0.02681169486344129,0
999,-0.0002516014314362866,0
1000,0.2601236485235377,0
1001,3.716557172031443,0
1002,6.771010098642438,0
1003,-0.5970123719087547,0
1004,-1.8958595870969994,0
1005,1.495637367586667,0
1006,-0.77513730977473,0
1007,0.057791710273222906,0
1008,-0.03837488208734409,0
1009,-0.11703564277787462,0
1010,-0.00817145993312049,0
1011,-0.1113866043345373,0
1012,-0.10699951000659888,0
1013,-0.14515905108291455,0
1014,-0.04482556869600316,0
1015,-0.06013159059724758,0
1016,-0.07552494830464822,0
1017,-0.015496872873598723,0
1018,-0.10572949005128673,0
1019,-0.11025598956182793,0
1020,0.19936096036517006,0
1021,3.6674612720894215,0
1022,6.730700578089717,0
1023,-0.5611637930686033,0
1024,-1.8536271333302432,0
1025,1.5247503159384161,0
1026,-0.8402115456690051,0
1027,0.06799726750661536,0
1028,-0.04708368837116554,0
1029,-0.1452607091835379,0
1030,-0.08781820478517295,0
1031,-0.13013605186439703,0
1032,-0.015836266768014542,0
1033,0.009228326801807074,0
1034,-0.07279965756967152,0
1035,-0.10600626658528732,0
1036,-0.06942917757254968,0
1037,-0.03658467737055119,0
1038,-0.07890483032068094,0
1039,-0.052399423455675595,0
1040,0.33757413662178626,0
1041,3.646435582360979,0
1042,6.730825130955575,0
1043,-0.5258886625620918,0
1044,-1.8751308089028003,0
1045,1.4506931270384598,0
1046,-0.7225171062589406,0
1047,0.06345985516286616,0
1048,-0.04380589345966644,0
1049,-0.0391024794884,0
1050,-0.10162666914520999,0
1051,-0.11923044987401084,0
1052,0.024157527737620907,0
1053,-0.08418324072448308,0
1054,-0.06856945422217964,0
1055,-0.10658913246720375,0
1056,-0.07880949619420113,0
1057,-0.0537824951105347,0
1058,-0.12394556984968971,0
1059,-0.05067396370663559,0
1060,0.36837119571208143,0
1061,3.6043145489156925,0
1062,6.767356097914297,0
1063,-0.5607305668813184,0
1064,-1.8272907378844048,0
1065,1.5144261254991402,0
1066,-0.8152617297306826,0
1067,0.10596963843853303,0
1068,0.017765149436625886,0
1069,-0.13819828685269875,0
1070,-0.12423799797732621,0
1071,-0.1292008429938176,0
1072,-0.03763127687209297,0
1073,-0.10168393302446747,0
1074,-0.06477650074866032,0
1075,-0.07535293178950331,0
1076,-0.00766471419007414,0
1077,-0.07733506023695975,0
1078,-0.041988499995467804,0
1079,-0.12420737898677188,0
1080,0.24651713027451697,0
1081,3.5238556531882503,0
1082,6.743398894177961,0
1083,-0.6780719216816147,0
1084,-1.853977047823543,0
1085,1.421844258428421,0
1086,-0.7685280732179117,0
1087,0.039416192413775725,0
1088,-0.03454097819337727,0
1089,-0.09018800956165968,0
1090,-0.010220237450930134,0
1091,-0.05768121453235696,0
1092,-0.04338530843964571,0
1093,-0.08594983824593283,0
1094,-0.05334960038217747,0
1095,-0.045561689179784044,0
1096,-0.06209806740358002,0
1097,0.014894935761011044,0
1098,-0.059202528392242215,0
1099,-0.0870742917036222,0
1100,0.21781101760206129,0
1101,3.5778673509737007,0
1102,6.668008144469925,0
1103,-0.650408043854644,0
1104,-1.8475845597762357,0
1105,1.394604914214595,0
1106,-0.7858348665724006,0
1107,0.03779546916958425,0
1108,-0.03481299067256413,0
1109,-0.11068469127101788,0
1110,-0.0013396366883581673,0
1111,-0.1224453604683872,0
1112,-0.11010620801794842,0
1113,-0.06445962068869568,0
1114,-0.03233023590459365,0
1115,-0.16616182338009705,0
1116,-0.11849537805844983,0
1117,-0.20876468622656041,0
1118,-0.14723003937702228,0
1119,-0.13264249813955045,0
1120,0.20813448096633858,0
1121,3.4406879620049793,0
1122,6.732816399135282,0
1123,-0.7903261876920991,0
1124,-1.9901279005883654,0
1125,1.3953921020312967,0
1126,-0.8849777313929896,0
1127,-0.10382023756316353,0
1128,-0.08507781484300529,0
1129,-0.2179825313382603,0
1130,-0.24613168170782024,0
1131,-0.18193442100993878,0
1132,-0.12999016970835361,0
1133,-0.16589417775424842,0
1134,-0.1250353023342207,0
1135,-0.19975363456874975,0
1136,-0.2352881804810399,0
1137,-0.0915939998681822,0
1138,-0.0020471099454950764,0
1139,-0.14315110731413677,0
1140,0.21881736742772046,0
1141,3.5208576750622553,0
1142,6.7511755207485455,0
1143,-0.6532104486876208,0
1144,-1.8217517008952078,0
1145,1.3008596483875703,0
1146,-0.8987786770487101,0
1147,0.11632966870773717,0
1148,-0.15658979489482008,0
1149,-0.21356357792695052,0
1150,-0.1484470834775321,0
1151,-0.27712869872523394,0
1152,-0.24998876670753528,0
1153,-0.050800522026028944,0
1154,-0.06243086415695306,0
1155,-0.07037470972009635,0
1156,-0.10304773012485387,0
1157,0.010243332622942622,0
1158,-0.09961770016647331,0
1159,-0.07892701628642679,0
1160,0.18479850450302854,0
1161,3.586584325469157,0
1162,6.719248539644355,0
1163,-0.5396274612153321,0
1164,-1.9245537010639864,0
1165,1.4589859045159286,0
1166,-0.8993644460826519,0
1167,0.10885780242356588,0
1168,-0.059368245895200344,0
1169,-0.07408958624732076,0
1170,-0.12133430900548038,0
1171,-0.15673145729274102,0
1172,-0.1350750870441428,0
1173,-0.12125352284679539,0
1174,-0.1321168499722171,0
1175,-0.1597678415134987,0
1176,-0.10472860249425171,0
1177,-0.12281824348363801,0
1178,-0.11811859615065926,0
1179,-0.16114050215600273,0
1180,0.1885265176561336,0
1181,3.580979991160083,0
1182,6.812844255567745,0
1183,-0.7297879521565409,0
1184,-1.9044927524105795,0
1185,1.4165228976382653,0
1186,-0.7719545304905279,0
1187,0.03293685092147212,0
1188,-0.03917351058992495,0
1189,-0.1509125406866867,0
1190,-0.11274379271189668,0
1191,-0.09975386826254731,0
1192,-0.15604179502567367,0
1193,-0.15431584480944624,0
1194,-0.07826031842918127,0
1195,-0.11610058158468653,0
1196,-0.10317813575389828,0
1197,-0.11747046276736921,0
1198,-0.13536638724460356,0
1199,-0.13591086824509233,0
1200,0.28958395273441373,0
1201,3.5528932296868603,0
1202,6.6118244605752245,0
1203,-0.7873305240151423,0
1204,-1.8503788645448596,0
1205,1.420807707918427,0
1206,-0.8868186161658982,0
1207,0.08841619160766778,0
1208,-0.11597738670609314,0
1209,-0.0824293036694905,0
1210,-0.09879602559420446,0
1211,-0.1229404220852213,0
1212,-0.10198001844789917,0
1213,-0.1595023188869432,0
1214,-0.08952353904508034,0
1215,-0.06437095824202849,0
1216,-0.05956581813616006,0
1217,-0.06667342052627512,0
1218,-0.09107483969926758,0
1219,-0.08753879045666084,0
1220,0.26079443614788755,0
1221,3.6866455454133122,0
1222,6.710913194107105,0
1223,-0.6497787843014892,0
1224,-1.8530226658814983,0
1225,1.5130336298686073,0
1226,-0.7951150814490722,0
1227,0.09709881797117052,0
1228,-0.01659833687792383,0
1229,-0.07267214991893897,0
1230,-0.04466411692180337,0
1231,-0.0248461968311513,0
1232,-0.0391352001150951,0
1233,-0.10382442352592379,0
1234,-0.03181929483226552,0
1235,-0.1259138534052193,0
1236,-0.1024103871475846,0
1237,-0.12665985212670958,0
1238,-0.1049356082773713,0
1239,-0.11840846783219823,0
1240,0.1877251766306969,0
1241,3.575330570228123,0
1242,6.714755750464665,0
1243,-0.6675747880452482,0
1244,-1.8114988979939937,0
1245,1.386655646266234,0
1246,-0.788599727138288,0
1247,0.18613764600731464,0
1248,-0.04480540613259244,0
1249,-0.07076716320018539,0
1250,-0.039000355911434366,0
1251,0.025183468727406216,0
1252,0.038680157538533835,0
1253,-0.008453092754145412,0
1254,0.06567923361327091,0
1255,-0.07729039380721,0
1256,-0.11147436560637698,0
1257,-0.06641826550880425,0
1258,-0.01678140397954058,0
1259,-0.11676367185083587,0
1260,0.2464726178898708,0
1261,3.687441287240751,0
1262,6.657773487315446,0
1263,-0.6908824082082673,0
1264,-1.9048347422810998,0
1265,1.3786578926656279,0
1266,-0.746621467830226,0
1267,0.035001074346715594,0
1268,-0.10976025898818562,0
1269,-0.08479011995467443,0
1270,-0.05529721322109616,0
1271,-0.1720677626111453,0
1272,-0.027850877846885922,0
1273,0.0018004993088389931,0
1274,-0.03849101407891027,0
1275,-0.028483024480050283,0
1276,-0.007299387284397496,0
1277,-0.028385299283010985,0
1278,-0.04924961396069939,0
1279,-0.0076717532694749735,0
1280,0.16100532683770846,0
1281,3.7002009171583485,0
1282,6.810355430721131,0
1283,-0.6949648677807406,0
1284,-1.8359975819446581,0
1285,1.437666612896145,0
1286,-0.8109372806037339,0
1287,0.1215536628256641,0
1288,-0.08227260121885778,0
1289,-0.008480361009186643,0
1290,0.03390708319417762,0
1291,-0.09974165601918882,0
1292,-0.018503828400004616,0
1293,-0.10012898814223639,0
1294,-0.07831841334106801,0
1295,-0.044925396374730885,0
1296,0.05554124646713313,0
1297,-0.12226021649308766,0
1298,0.04265441497749799,0
1299,-0.1465555993743515,0
1300,0.25886435785938794,0
1301,3.775763252747196,0
1302,6.701503068250525,0
1303,-0.6342551958798036,0
1304,-1.7400139976252662,0
1305,1.4685338337060942,0
1306,-0.8846300436170161,0
1307,0.22305731499518244,0
1308,0.09969398023849248,0
1309,-0.08681595415214105,0
1310,-0.004348460129877191,0
1311,0.05274061706281847,0
1312,-0.033166465904365616,0
1313,0.009158372907980213,0
1314,0.11377582409201514,0
1315,0.03888822318903014,0
1316,0.046140192427132076,0
1317,-0.03993757244071887,0
1318,0.05539009173790465,0
1319,0.05148298967810304,0
1320,0.3310963247823545,0
1321,3.627563939347454,0
1322,6.799318645004096,0
1323,-0.5840515562076598,0
1324,-1.8090867571733502,0
1325,1.5351886039224494,0
1326,-0.8208705309536273,0
1327,0.12862208511240258,0
1328,-0.05359115212886302,0
1329,-0.1148129452019558,0
1330,0.15380209212482193,0
1331,0.07715040857647296,0
1332,0.025721447663304167,0
1333,0.04490263888526211,0
1334,0.08116825569548095,0
1335,0.02329635780554823,0
1336,0.06724668997612487,0
1337,-0.02549448207452944,0
1338,0.09546774112239476,0
1339,-0.012894439072861596,0
1340,0.28639674575698615,0
1341,3.747608519307705,0
1342,6.837249595893205,0
1343,-0.7344901278142856,0
1344,-1.6644826389064553,0
1345,1.5995440062571344,0
1346,-0.859435638045432,0
1347,0.161760447068602,0
1348,0.00928207259526226,0
1349,-0.016719022388378503,0
1350,-0.0412766426621666,0
1351,-0.004412464362657541,0
1352,0.05507198592201158,0
1353,-0.03622080509804142,0
1354,0.048349480507774954,0
1355,0.044891190579761674,0
1356,-0.04002477613468325,0
1357,-0.017901849173336523,0
1358,0.03109055816944356,0
1359,0.06732366295516705,0
1360,0.27695705028417283,0
1361,3.796921810336491,0
1362,6.836160782626229,0
1363,-0.5890119806879335,0
1364,-1.6958044045664769,0
1365,1.4955382267619988,0
1366,-0.6194546246940459,0
1367,0.198277489171676,0
1368,-0.040212295841094564,0
1369,-0.1336507140107328,0
1370,-0.09153143927583987,0
1371,0.021947791371422824,0
1372,-0.06518193476967121,0
1373,0.030694780594310373,0
1374,-0.02196918072234899,0
1375,-0.07976616009771709,0
1376,0.017792526772324152,0
1377,0.008681444464359984,0
1378,0.0021445171636710475,0
1379,-0.07539606429307814,0
1380,0.3423967120272722,0
1381,3.7954210377349886,0
1382,6.757982675388617,0
1383,-0.6122193845141721,0
1384,-1.649132316531984,0
1385,1.4878209991362625,0
1386,-0.7804382648204857,0
1387,0.016925493914421386,0
1388,-0.10597955795475311,0
1389,-0.04433957441081057,0
1390,0.017017507550284482,0
1391,-0.0754808047039576,0
1392,0.08646197424351286,0
1393,-0.06188910522886169,0
1394,-0.050235123330304804,0
1395,-0.07433164862237246,0
1396,-0.016281777856787555,0
1397,0.0003285791675928483,0
1398,-0.031132870053250095,0
1399,0.05330125265658447,0
1400,0.3170008437779694,0
1401,3.7208710826019256,0
1402,6.737651330874636,0
1403,-0.6816657328660187,0
1404,-1.786612268766469,0
1405,1.4309427940304456,0
1406,-0.735887693038866,0
1407,0.1606731011810648,0
1408,0.07496236923995343,0
1409,-0.14858691992200024,0
1410,-0.07526742631469091,0
1411,0.036147990037472454,0
1412,0.04344921967618974,0
1413,0.036747966634636406,0
1414,0.06346304355598856,0
1415,0.05296986804482763,0
1416,0.024163820963127122,0
1417,-0.023704739509139094,0
1418,-0.08510459644493285,0
1419,-0.02325145355714632,0
1420,0.3925863689780237,0
1421,3.718472239820685,0
1422,6.8823309161796535,0
1423,-0.6424796839879332,0
1424,-1.7568501576351396,0
1425,1.4523807823627028,0
1426,-0.7141744692851082,0
1427,0.18033337545461842,0
1428,0.011271032547331073,0
1429,-0.17572968138759734,0
1430,0.07047779420046034,0
1431,0.005670295403069434,0
1432,-0.001007379266660162,0
1433,0.05864074614797232,0
1434,-0.012859506497406118,0
1435,-0.03579345816756595,0
1436,-0.05734490070386333,0
1437,-0.031300915864787865,0
1438,-0.07751266688221425,0
1439,-0.0199405557605872,0
1440,0.3252002519559555,0
1441,3.674492090769521,0
1442,6.741054530097967,0
1443,-0.7472409382809257,0
1444,-1.8102563644981433,0
1445,1.4821707156393742,0
1446,-0.7616299692979,0
1447,0.18761144109653805,0
1448,-0.029166164085851407,0
1449,-0.014873181914186986,0
1450,0.06207042593603039,0
1451,0.025282703689525787,0
1452,0.03401839643915418,0
1453,0.06060780753777545,0
1454,-0.02306179803521892,0
1455,0.03657572886468643,0
1456,0.011533166527991015,0
1457,-0.10132326346927731,0
1458,-0.039379069236675085,0
1459,-0.008145342552809099,0
1460,0.29341739090242297,0
1461,3.733819055310438,0
1462,6.7798769971731465,0
1463,-0.625399264550747,0
1464,-1.7680791685879833,0
1465,1.440301696371445,0
1466,-0.708014142368563,0
1467,0.21757631465541735,0
1468,-0.030865969016921888,0
1469,-0.030905473233498952,0
1470,0.06625501895064477,0
1471,0.04868181027890557,0
1472,0.021279010682428934,0
1473,-0.03716303369951902,0
1474,0.033957463224385386,0
1475,0.02719652761255799,0
1476,0.029625503415404656,0
1477,-0.05979755487777531,0
1478,0.007807053708765992,0
1479,0.051423984037213405,0
1480,0.4351880442866898,0
1481,3.7695189123920847,0
1482,6.838705489501116,0
1483,-0.632926747716704,0
1484,-1.7433296874196127,0
1485,1.5930138417832909,0
1486,-0.8403073243680184,0
1487,0.17998570217055618,0
1488,-0.06721546868673538,0
1489,-0.024586677178030283,0
1490,0.09903442662392535,0
1491,0.006321285406854041,0
1492,-0.01096546895034654,0
1493,-0.0061261973518817615,0
1494,0.05733096277340155,0
1495,0.044930409760984044,0
1496,0.03317375087233855,0
1497,0.051989766237667406,0
1498,0.08488103707691723,0
1499,0.05383007388444651,0
1500,0.43050193820873434,0
1501,3.759686504071685,0
1502,6.882881224841698,0
1503,-0.5603556734655263,0
1504,-1.6258800433660514,0
1505,1.6367529638241616,0
1506,-0.6568581104285213,0
1507,0.11734879376666782,0
1508,0.09554803079932353,0
1509,-0.010051447410569105,0
1510,0.023396593038628677,0
1511,0.0738075152637236,0
1512,0.005750893150110806,0
1513,0.028338095257752695,0
1514,0.14896754244842178,0
1515,-0.055145775623141643,0
1516,0.10043954092035232,0
1517,0.06942486934149834,0
1518,0.09147198736102127,0
1519,0.02231857592407839,0
1520,0.4136957819635613,0
1521,3.7839203665436627,0
1522,6.805880157595402,0
1523,-0.6075550938867107,0
1524,-1.6712156298493812,0
1525,1.6126104441409805,0
1526,-0.6884757408647892,0
1527,0.23813940877435547,0
1528,0.17021568445601673,0
1529,0.04358052531328613,0
1530,0.03779132339522703,0
1531,0.16598642597169028,0
1532,0.08038229158798782,0
1533,0.03739739560531737,0
1534,0.06647099057118377,0
1535,0.0163542792554783,0
1536,0.003247323836080833,0
1537,0.022662385924823142,0
1538,0.03835612051853329,0
1539,-0.05969606803083924,0
1540,0.36119850755786675,0
1541,3.8741847973667163,0
1542,6.776986812794689,0
1543,-0.6952261729198155,0
1544,-1.7123593432991038,0
1545,1.5864636801520047,0
1546,-0.7761551756779775,0
1547,0.21400263386058924,0
1548,0.05555970657763236,0
1549,0.04373484754764418,0
1550,0.14041017165397773,0
1551,0.0012955557976852133,0
1552,0.08580507506626461,0
1553,0.2284787909944938,0
1554,0.07655783833364893,0
1555,-0.01496362309361253,0
1556,0.019142102766429164,0
1557,0.09030105521735207,0
1558,0.030767643112597207,0
1559,-0.01067847543223057,0
1560,0.400901932971025,0
1561,3.8513873995973347,0
1562,6.771413404769064,0
1563,-0.6197745193188005,0
1564,-1.7316774909013095,0
1565,1.6159333873971413,0
1566,-0.7237022829261839,0
1567,0.210678962057836,0
1568,-0.03858510139454723,0
1569,0.013468377129328885,0
1570,-0.1618076211619882,0
1571,0.02097251576390818,0
1572,-0.006615348645115503,0
1573,0.014539429681178856,0
1574,0.003635496914318181,0
1575,-0.018491963020065255,0
1576,0.009956947532930454,0
1577,-0.05544492426137097,0
1578,0.06898561417260879,0
1579,0.03667294779235233,0
1580,0.2400291981429919,0
1581,3.846210864799659,0
1582,6.702328461175945,0
1583,-0.6709799350849112,0
1584,-1.6133887158855023,0
1585,1.5712176346116884,0
1586,-0.6260055680889223,0
1587,0.30675826102252524,0
1588,0.16527093310445046,0
1589,0.10465845248102601,0
1590,0.06415558878360596,0
1591,0.015621745651807156,0
1592,0.08988513670995683,0
1593,0.008521901829511097,0
1594,0.09676061089798076,0
1595,0.07724075040596629,0
1596,0.02248654921083007,0
1597,-0.013839564813646121,0
1598,0.08265123741709589,0
1599,-0.006358858564363894,0
1600,0.3119508893793378,0
1601,3.836342160407597,0
1602,6.793659511057409,0
1603,-0.724485463325344,0
1604,-1.6758411508248598,0
1605,1.6002048133876197,0
1606,-0.6966435963040802,0
1607,0.1671025148647502,0
1608,0.09868676006058241,0
1609,-0.0831213808962977,0
1610,0.12853283398958476,0
1611,0.10835288533969042,0
1612,0.0607551961223132,0
1613,0.04429494889631835,0
1614,0.0698072690346453,0
1615,0.04125938589901386,0
1616,0.04778588954895188,0
1617,0.05631619936516753,0
1618,0.018728907857688784,0
1619,0.07633509708573341,0
1620,0.43267356945595725,0
1621,3.9042582691009304,0
1622,6.727436098343778,0
1623,-0.6823317794420138,0
1624,-1.7119851372888926,0
1625,1.5725009998125072,0
1626,-0.8214883367406238,0
1627,0.1489292615855557,0
1628,-0.06119459518915356,0
1629,0.007111876094304581,0
1630,0.0451188865994979,0
1631,-0.03962547434362522,0
1632,-0.0027928707615002043,0
1633,0.04587454338784595,0
1634,0.0008810784810860863,0
1635,0.0007451795708192863,0
1636,-0.004466176605552312,0
1637,-0.023275494682126186,0
1638,-0.05480999889926687,0
1639,0.05918061850486007,0
1640,0.33182800354612163,0
1641,3.8218731372025974,0
1642,6.840965222494086,0
1643,-0.7534498717134402,0
1644,-1.6710848039208865,0
1645,1.5361725554908197,0
1646,-0.6304062091605944,0
1647,0.2680657481705545,0
1648,0.038747505581490295,0
1649,-0.01043925255124806,0
1650,0.07293860667221855,0
1651,0.05636311910770218,0
1652,0.00737630413439181,0
1653,0.035411922834342205,0
1654,0.04838254029024347,0
1655,0.024806343204351017,0
1656,0.03826935802611737,0
1657,0.00938733034958869,0
1658,-0.02121200619756941,0
1659,-0.0027540682457416615,0
1660,0.3455746315393966,0
1661,3.836282989913507,0
1662,6.7361768419092725,0
1663,-0.6629587021205591,0
1664,-1.6125623707625696,0
1665,1.5204581206293304,0
1666,-0.6728455604997523,0
1667,0.15844105177881584,0
1668,0.0579330992234009,0
1669,-0.019650085711315234,0
1670,0.07247380498807268,0
1671,0.022237628250925436,0
1672,0.016730630601175835,0
1673,0.04372501833679797,0
1674,0.022976692026936918,0
1675,-0.07493261789336145,0
1676,0.07710363941929328,0
1677,0.041863483620059504,0
1678,-0.003705598841140436,0
1679,-0.02589670986861667,0
1680,0.16831816293998045,0
1681,3.7329156849178724,0
1682,6.77975093889847,0
1683,-0.7105184824919671,0
1684,-1.7865856437590166,0
1685,1.5006052578804456,0
1686,-0.7582602617894291,0
1687,0.24026208116636183,0
1688,0.0019611484459418974,0
1689,0.06307435755119262,0
1690,0.03488194206645162,0
1691,0.04692897169468986,0
1692,0.030729269146420914,0
1693,0.08202990445511225,0
1694,-0.03148841368597907,0
1695,0.0678707962093968,0
1696,0.0486313707921812,0
1697,0.0405841310236168,0
1698,0.07986531434602584,0
1699,-0.024123498740823895,0
1700,0.31866925377710953,0
1701,3.85632282390442,0
1702,6.752592124330656,0
1703,-0.6469695787789734,0
1704,-1.675667906907358,0
1705,1.5156027761147757,0
1706,-0.7290934355944757,0
1707,0.262568868771219,0
1708,0.07996968272084158,0
1709,-0.03026074989329222,0
1710,0.08456312472819766,0
1711,-0.06932602512926683,0
1712,-0.02687009556157737,0
1713,0.004294673975199122,0
1714,0.06846904335342165,0
1715,0.04454148367520476,0
1716,0.015904537708062643,0
1717,0.07488306380612567,0
1718,0.03882367686209366,0
1719,0.017557721739023216,0
1720,0.3311099456988169,0
1721,3.885981052980083,0
1722,6.768640833271679,0
1723,-0.655559259683883,0
1724,-1.661370168829563,0
1725,1.5401329331290714,0
1726,-0.8066580601928164,0
1727,0.1398392554831042,0
1728,-0.027251484441581396,0
1729,0.051825841582190085,0
1730,-0.019594948992107952,0
1731,0.09985361319679001,0
1732,0.0646505212935942,0
1733,-0.006402603637273581,0
1734,0.028484238917218144,0
1735,-0.03888199936400535,0
1736,0.12372008868576244,0
1737,-0.012855694063746304,0
1738,0.017350448304066658,0
1739,0.019478154841753356,0
1740,0.30518770076869134,0
1741,3.826624535859829,0
1742,6.791463204281403,0
1743,-0.7387668891502411,0
1744,-1.6649279342949277,0
1745,1.4252623449373008,0
1746,-0.7045410712911511,0
1747,0.20512326635131609,0
1748,0.07599547377812901,0
1749,-0.043642147189860314,0
1750,-0.022906354174514705,0
1751,-0.025398041416882264,0
1752,-0.02521523630756257,0
1753,-0.030801979352589718,0
1754,-0.04366065054057391,0
1755,0.03290613377699824,0
1756,-0.010891057426840177,0
1757,0.030241897996509608,0
1758,-0.036428309926116065,0
1759,-0.05700675296150914,0
1760,0.41753465512006405,0
1761,3.7823645183631855,0
1762,6.717909092945866,0
1763,-0.7780936273503672,0
1764,-1.6904345477307183,0
1765,1.4825996116139777,0
1766,-0.8063977139848069,0
1767,0.2523167617196098,0
1768,-0.03724660616265147,0
1769,-0.009471822172340213,0
1770,-0.032911847395980465,0
1771,-0.0996051298457123,0
1772,0.031041118239818866,0
1773,-0.04872098402244222,0
1774,-0.03344229618773317,0
1775,0.11526075860523338,0
1776,-0.006349185491441207,0
1777,0.04209062441862461,0
1778,0.018236971550062937,0
1779,-0.0028347046141798185,0
1780,0.4287988705459065,0
1781,3.743614527904435,0
1782,6.642865784099337,0
1783,-0.7912531983590531,0
1784,-1.677669560274263,0
1785,1.4849675532934483,0
1786,-0.8293789817696889,0
1787,0.2264622030909653,0
1788,0.022229156608568407,0
1789,0.0015403942457792585,0
1790,-0.05786473710118559,0
1791,0.011573574153941182,0
1792,0.07198888789183877,0
1793,-0.019997687956047925,0
1794,0.004289704564966841,0
1795,-0.1393208369918179,0
1796,0.08185412585005154,0
1797,0.04584580421033561,0
1798,0.019012429826173002,0
1799,0.03951466208258768,0
1800,0.3175925665414371,0
1801,3.7965109268140385,0
1802,6.613176601567708,0
1803,-0.7456497074686254,0
1804,-1.6180074709385757,0
1805,1.4034381054435496,0
1806,-0.8400723899658197,0
1807,0.22055263103201858,0
1808,-0.12699344358498077,0
1809,-0.033441139585399404,0
1810,0.030480940412531705,0
1811,0.05587071453487669,0
1812,-0.05042510770900559,0
1813,-0.005986214479588171,0
1814,-0.06372996031529099,0
1815,-0.03024392704489754,0
1816,0.03369393849738234,0
1817,-0.10116806615758023,0
1818,-0.02232522896320104,0
1819,-0.041957405421308616,0
1820,0.2683067046148323,0
1821,3.7578704787963084,0
1822,6.706297035545276,0
1823,-0.8701571627478496,0
1824,-1.6894655868182085,0
1825,1.4292446516629107,0
1826,-0.7828236767155237,0
1827,0.111017112409878,0
1828,-0.002770532386443543,0
1829,-0.09126583532446711,0
1830,-0.010192280122165547,0
1831,0.005657535291925343,0
1832,-0.08251342520188973,0
1833,-0.024573056757784966,0
1834,-0.006118844105644124,0
1835,0.04413019247673172,0
1836,-0.05901715291225382,0
1837,-0.05160454722239195,0
1838,-0.10542648885559441,0
1839,0.008105630788621525,0
1840,0.25891817326432376,0
1841,3.8717935399742878,0
1842,6.796225680960143,0
1843,-0.7654824809269228,0
1844,-1.5898228185446013,0
1845,1.4880253827674912,0
1846,-0.7434998504506226,0
1847,0.1737065706839148,0
1848,-0.13355230894347453,0
1849,-0.05121327469643167,0
1850,-0.022437306734942458,0
1851,-0.06278078322547428,0
1852,-0.10054699880959744,0
1853,0.0054083246158039555,0
1854,0.06377058513863532,0
1855,-0.06355316698881708,0
1856,0.0040871777055452654,0
1857,-0.04421074507284067,0
1858,-0.014740539038166082,0
1859,-0.04615934771155372,0
1860,0.3577360790827228,0
1861,3.8077340742059356,0
1862,6.767995984193159,0
1863,-0.7913273230497581,0
1864,-1.7175686297430683,0
1865,1.5340498073231155,0
1866,-0.9283087615118277,0
1867,0.16593364291311888,0
1868,-0.0425757736563362,0
1869,-0.007339856488645893,0
1870,0.006067944082454518,0
1871,0.042076124972313424,0
1872,-0.08690329735948155,0
1873,-0.0021341615170610527,0
1874,-0.07749327652866736,0
1875,0.024034452415287434,0
1876,-0.08385682773880432,0
1877,-0.003001397312991951,0
1878,0.018057572893023607,0
1879,0.024929037516489057,0
1880,0.36956438723868634,0
1881,3.78338046746137,0
1882,6.821741061360481,0
1883,-0.7616957463305891,0
1884,-1.6541397343486157,0
1885,1.4904120627596196,0
1886,-0.8154169134651292,0
1887,0.20257420537001994,0
1888,0.09301541694845228,0
1889,-0.03264607600933628,0
1890,0.052109514464362475,0
1891,-0.06222918262723946,0
1892,0.016256697010788548,0
1893,-0.013905408900346096,0
1894,-0.028769246762945205,0
1895,-0.01041789968473946,0
1896,0.06324805049618541,0
1897,-0.016970744956192094,0
1898,-0.011311190618082565,0
1899,0.03740183077261633,0
1900,0.31766842687191804,0
1901,3.8345348164506325,0
1902,6.72873625845869,0
1903,-0.7221958749553117,0
1904,-1.565911900824407,0
1905,1.514083261296311,0
1906,-0.7216651132477123,0
1907,0.21571541460921284,0
1908,-0.06106507814713838,0
1909,-0.018305846325538243,0
1910,0.03505819364827742,0
1911,0.043403627301500394,0
1912,-0.006319996871507746,0
1913,-0.011664849716963424,0
1914,0.10019824510803935,0
1915,0.025409574213387513,0
1916,0.014252941564099102,0
1917,0.031200571829686673,0
1918,0.07009870079835914,0
1919,0.0033855798183715646,0
1920,0.3275231462098408,0
1921,3.9417217050484306,0
1922,6.7998545868054965,0
1923,-0.7275593829892157,0
1924,-1.692455829008345,0
1925,1.502585182111153,0
1926,-0.7222147948405753,0
1927,0.08483421145010264,0
1928,0.05580312109521918,0
1929,-0.04588889242652163,0
1930,0.00048412834221055884,0
1931,-0.045834457853929235,0
1932,0.08735317800749466,0
1933,0.07357405322783817,0
1934,-0.07609079715456406,0
1935,0.03554970512410489,0
1936,-0.007252248089140897,0
1937,0.08470976903270985,0
1938,-0.006015378508290615,0
1939,0.19156094614244956,0
1940,0.3449229471990293,0
1941,3.8599402332096027,0
1942,6.760823531454048,0
1943,-0.7830133933440593,0
1944,-1.6215007181354584,0
1945,1.5810713801557796,0
1946,-0.7757848708821563,0
1947,0.24068095113341945,0
1948,0.007451311017583177,0
1949,-0.1060546225594742,0
1950,0.13950568293747634,0
1951,0.11698236346994452,0
1952,0.05183510990410974,0
1953,0.06708534278620418,0
1954,0.016842757252404507,0
1955,0.08821531178742999,0
1956,0.08076592341674026,0
1957,0.06781581905665594,0
1958,-0.03073133458434954,0
1959,0.08584856487245773,0
1960,0.372506515840136,0
1961,3.8567463670918714,0
1962,6.665561353548443,0
1963,-0.7716740259333575,0
1964,-1.747738846537948,0
1965,1.508962772285122,0
1966,-0.7932581631838193,0
1967,0.1358746368373258,0
1968,0.08460923810868319,0
1969,-0.19351604475414313,0
1970,0.04412827308353522,0
1971,0.024314643923944,0
1972,0.08959498446095708,0
1973,-0.03502851186060103,0
1974,0.019720949526287165,0
1975,0.042080181302516756,0
1976,0.0702250355752772,0
1977,-0.017395901316591883,0
1978,-0.059802911792814425,0
1979,0.03338023125807994,0
1980,0.2926665295224405,0
1981,3.7967430274782843,0
1982,6.704032468886449,0
1983,-0.8603588208673273,0
1984,-1.6162055484515043,0
1985,1.4345385474245145,0
1986,-0.8204072998774407,0
1987,0.16926094813155024,0
1988,0.031784200309998796,0
1989,-0.009576765824940586,0
1990,0.10339177202778477,0
1991,0.0002006532709653971,0
1992,-0.013187185350156377,0
1993,0.019335281557493197,0
1994,0.06485143368457619,0
1995,0.013364521121140956,0
1996,0.0014628575684814196,0
1997,0.04250354023527568,0
1998,0.028141398577174674,0
1999,-0.05102588529473387,0
2000,0.29865802521007906,0
2001,3.8941147120859645,0
2002,6.698393909793392,0
2003,-0.8355039750799363,0
2004,-1.486052629622333,0
2005,1.5422697028552192,0
2006,-0.8461667899559674,0
2007,0.11392364809923808,0
2008,-0.037835898316119616,0
2009,-0.0666663410320175,0
2010,-0.028819098676231596,0
2011,-0.057205278096672224,0
2012,0.02030894539254708,0
2013,-0.05250062324738777,0
2014,0.1270387864832433,0
2015,-0.04882600032878018,0
2016,0.009757830604439468,0
2017,-0.07918552061626484,0
2018,0.021171088786987924,0
2019,0.034503398292049306,0
2020,0.3186215252971875,0
2021,3.841968741843999,0
2022,6.7180429964264174,0
2023,-0.823259895559468,0
2024,-1.7169901150959432,0
2025,1.500863175129067,0
2026,-0.7166270797743095,0
2027,0.10978815832647577,0
2028,0.03757865116989639,0
2029,0.03106144282902882,0
2030,0.08989367962472516,0
2031,-0.030703987441631234,0
2032,0.02770468688497741,0
2033,0.0177429418601286,0
2034,0.05824210512697741,0
2035,0.10488768495706689,0
2036,0.022053878676211447,0
2037,0.026617335185560163,0
2038,0.05194673749704117,0
2039,0.041508272380630824,0
2040,0.34688874350704657,0
2041,3.8818897763606355,0
2042,6.653808767985189,0
2043,-0.7503845208425955,0
2044,-1.6292678395695634,0
2045,1.542780120411051,0
2046,-0.6940659594567393,0
2047,0.17777378683772482,0
2048,0.0053679177217497605,0
2049,-0.09643544262502213,0
2050,-0.015754936794184004,0
2051,-0.04382917891510574,0
2052,-0.10011938076018749,0
2053,0.0692391573914318,0
2054,-0.011416062014889383,0
2055,0.059120630650600754,0
2056,-0.02168946416965714,0
2057,0.03860102432961871,0
2058,-0.03396917505827495,0
2059,0.01391521703290052,0
2060,0.383047644812652,0
2061,3.8766891824492595,0
2062,6.701897637582846,0
2063,-0.8132120726768528,0
2064,-1.610209579137706,0
2065,1.6099635343499124,0
2066,-0.7896351840453302,0
2067,0.2326951245927871,0
2068,0.030746690452296804,0
2069,-0.09580551118364762,0
2070,-0.043227800241397135,0
2071,0.06148022844581996,0
2072,0.07755986791537116,0
2073,0.025562566834095107,0
2074,-0.008570496493491741,0
2075,-0.006698141243805942,0
2076,0.03791198774006981,0
2077,-0.023431947864433766,0
2078,-0.04319427583825216,0
2079,-0.04628165152078614,0
2080,0.44311849633204237,0
2081,3.921905868348637,0
2082,6.65977993117763,0
2083,-0.8079504861523952,0
2084,-1.6113579702752232,0
2085,1.4570086554119865,0
2086,-0.7515637493981807,0
2087,0.2837770198674274,0
2088,-0.0032749198646068317,0
2089,-0.06599265700834184,0
2090,-0.027159191949802222,0
2091,0.08545811064299152,0
2092,-0.05030791028815813,0
2093,0.05012598781332475,0
2094,0.09448719450897876,0
2095,0.16092055856277335,0
2096,0.04089028090392511,0
2097,0.10041017516032583,0
2098,-0.019194837808066627,0
2099,0.047150793337420435,0
2100,0.3086349602657751,0
2101,3.8552414046660495,0
2102,6.763123486086478,0
2103,-0.8392388517000916,0
2104,-1.4956429164189602,0
2105,1.5245206048390247,0
2106,-0.7263909050514262,0
2107,0.2981910327493703,0
2108,-0.03929691935463732,0
2109,0.004562340152006281,0
2110,0.10780534514918175,0
2111,-0.031209229095892882,0
2112,0.037936430875006116,0
2113,-0.04025052397817029,0
2114,-0.007735817141040657,0
2115,-0.011929014801032452,0
2116,0.02238530675997151,0
2117,-0.032249071648576155,0
2118,0.04864834241129959,0
2119,-0.10869635910167746,0
2120,0.3416093267887404,0
2121,3.8819060007090442,0
2122,6.632948661979009,0
2123,-0.8702876824782,0
2124,-1.631195557247088,0
2125,1.491033309394773,0
2126,-0.714776978386281,0
2127,0.1857289011685745,0
2128,0.12226086193568114,0
2129,0.005568531795754811,0
2130,0.009361393757929007,0
2131,-0.02317002475663264,0
2132,-0.05150447908493823,0
2133,0.09875167656611876,0
2134,0.031198541029124227,0
2135,0.0392100106125069,0
2136,-0.07538381838633906,0
2137,-0.053736979701875326,0
2138,-0.02545443079357191,0
2139,-0.03346478563114335,0
2140,0.38493669229654104,0
2141,3.864827162017319,0
2142,6.700586573863812,0
2143,-0.875135879872083,0
2144,-1.580602897672921,0
2145,1.5238835413594207,0
2146,-0.6962349507561245,0
2147,0.2684336153493895,0
2148,0.02589587906980555,0
2149,-0.003928508339863969,0
2150,0.08413324264585847,0
2151,0.013894740919809303,0
2152,0.005664998170096618,0
2153,0.02226587208390957,0
2154,-0.022901874444728573,0
2155,-0.016454670625864913,0
2156,0.04173526341564915,0
2157,-0.10465664498986173,0
2158,0.030433283261944562,0
2159,-0.00320176066204082,0
2160,0.364484662869553,0
2161,3.912114559138259,0
2162,6.897064113747946,0
2163,-0.815665530846668,0
2164,-1.570413970226504,0
2165,1.4922509529695278,0
2166,-0.7989556849316435,0
2167,0.13498116583053235,0
2168,-0.07670203774341541,0
2169,-0.08214830479835203,0
2170,0.09192892790385146,0
2171,-0.04253823954981822,0
2172,0.041301801492625835,0
2173,-0.015128899342045685,0
2174,-0.007458918316018282,0
2175,-0.051530683169067656,0
2176,-0.06351403024370521,0
2177,-0.02104681837383501,0
2178,0.05288236539913482,0
2179,0.0030153441187577602,0
2180,0.36647130136413264,0
2181,3.9267428763717955,0
2182,6.731828824654998,0
2183,-0.8739239585843173,0
2184,-1.6112748660335028,0
2185,1.4725253945134127,0
2186,-0.7957438798836428,0
2187,0.147568592770429,0
2188,0.021935300547417828,0
2189,0.014662026897346213,0
2190,-0.03031619629685245,0
2191,-0.041460120797080335,0
2192,0.07306742085210859,0
2193,-0.020349432383652825,0
2194,-0.033527028273776543,0
2195,-0.022111182512273894,0
2196,-0.0484214303941706,0
2197,-0.013341418148553386,0
2198,-0.05557356042232942,0
2199,-0.07434335022054542,0
2200,0.33939472397768106,0
2201,3.8526518706857154,0
2202,6.732249206456385,0
2203,-0.9128271783867964,0
2204,-1.6744486777108305,0
2205,1.5036378116367362,0
2206,-0.8735185341643754,0
2207,0.14568460482791964,0
2208,0.05936453563932079,0
2209,-0.017282754268569997,0
2210,0.012881839434735021,0
2211,0.022669177050281295,0
2212,-0.01656475566664392,0
2213,-0.013201138477581604,0
2214,-0.03411251131032555,0
2215,0.08439705398279769,0
2216,0.0032765130533352676,0
2217,-0.0011508464213027501,0
2218,0.04748101891253271,0
2219,0.040155582050476465,0
2220,0.34530817239365025,0
2221,3.8429324638232063,0
2222,6.793153340122359,0
2223,-0.8514795207202542,0
2224,-1.6463750922004488,0
2225,1.495415908767776,0
2226,-0.8760327092278241,0
2227,0.2004783507542407,0
2228,0.07839254256430957,0
2229,-0.04688644354415855,0
2230,-0.04984951717133457,0
2231,-0.018223997839491336,0
2232,0.02474833045451316,0
2233,0.014935690073843629,0
2234,-0.0029320293403103147,0
2235,0.03476587529486107,0
2236,0.08130181368461697,0
2237,-0.06167358033410038,0
2238,-0.10563834774536748,0
2239,-0.050392064802731014,0
2240,0.4077584152682828,0
2241,3.9333810775282902,0
2242,6.715723770785342,0
2243,-0.8790289307998319,0
2244,-1.6514483195610112,0
2245,1.4141983030770109,0
2246,-0.8615021031758958,0
2247,0.22003634885288076,0
2248,0.005639556248924657,0
2249,-0.031161035794302357,0
2250,-0.049710209842538704,0
2251,0.028408803092019257,0
2252,0.033673935660615925,0
2253,0.0008830038503300213,0
2254,0.014930735542524116,0
2255,0.012672040489605386,0
2256,-0.09010227826962608,0
2257,-0.05373187978960398,0
2258,0.031006770254222778,0
2259,-0.06539326309292846,0
2260,0.40809548313398863,0
2261,3.9278242938364776,0
2262,6.787224375347441,0
2263,-0.8901774833799682,0
2264,-1.6209555609745403,0
2265,1.4635849036645938,0
2266,-0.7686421082080376,0
2267,0.15280032688825215,0
2268,-0.04235688991423954,0
2269,-0.11767037142982092,0
2270,0.020530719947311232,0
2271,0.11051204042317148,0
2272,0.06235520118367276,0
2273,0.017834513258664256,0
2274,0.07288488780148686,0
2275,-0.022060442005524067,0
2276,-0.025958541437536363,0
2277,0.040566650902166594,0
2278,-0.050221747954564404,0
2279,0.0259621777715379,0
2280,0.3855098165254355,0
2281,3.8662802926745923,0
2282,6.6832830072825695,0
2283,-0.9729549940662576,0
2284,-1.5994019670645823,0
2285,1.4588011255236866,0
2286,-0.7098305816748102,0
2287,0.19389892462191663,0
2288,-0.015490739984497296,0
2289,-0.13585186954158665,0
2290,-0.014988632134348999,0
2291,0.014858880806084607,0
2292,-0.029234307343911105,0
2293,-0.012944757855553997,0
2294,0.05538047830165649,0
2295,0.07948096870129202,0
2296,-0.015391711148870522,0
2297,0.07291578790254022,0
2298,0.07724250597631348,0
2299,0.035624950433711694,0
2300,0.37442342052954863,0
2301,3.982227726495312,0
2302,6.682544740038312,0
2303,-0.8700386940160486,0
2304,-1.554484749730573,0
2305,1.4809898169212243,0
2306,-0.7420297956331741,0
2307,0.22975925847258097,0
2308,0.09214792771586194,0
2309,-0.023003089623795346,0
2310,0.07114260468856612,0
2311,0.13494965432479808,0
2312,0.030414943195054917,0
2313,-0.06342966129145818,0
2314,-0.03164288950742121,0
2315,0.04997709948179142,0
2316,0.0348346196280088,0
2317,0.024331421559478338,0
2318,-0.07132188112463848,0
2319,0.0044906213031741,0
2320,0.35848258416697687,0
2321,3.8808443282478495,0
2322,6.65927983834372,0
2323,-0.8415637859043628,0
2324,-1.5810926825393392,0
2325,1.5350735204528607,0
2326,-0.8235406976785857,0
2327,0.17333102540009168,0
2328,-0.0076589978300702875,0
2329,-0.011147178322490537,0
2330,0.0507213162396266,0
2331,-0.03774917343233695,0
2332,0.03170800256353306,0
2333,-0.01265598707991121,0
2334,0.06502382778511671,0
2335,0.024875670801162104,0
2336,0.1332057079906457,0
2337,0.09537045056262056,0
2338,-0.02591691580133422,0
2339,0.05651833671696482,0
2340,0.41674838262930725,0
2341,3.956946340133018,0
2342,6.74200618011033,0
2343,-0.9467305448812396,0
2344,-1.5399907012293323,0
2345,1.498915477705374,0
2346,-0.7752326796085585,0
2347,0.226613049856058,0
2348,0.043376050342119395,0
2349,-0.06574675160904134,0
2350,0.005660950126837054,0
2351,-0.1371290650872682,0
2352,0.05671651789623565,0
2353,-0.032963979289238096,0
2354,-0.02037966403767607,0
2355,-0.020921710119563616,0
2356,0.029468711737501194,0
2357,-0.017691882200709504,0
2358,0.11842269021839802,0
2359,0.05777935639957198,0
2360,0.36816193613362275,0
2361,4.01382358476482,0
2362,6.713945158222821,0
2363,-0.818787554907105,0
2364,-1.5178642891177818,0
2365,1.5708077271790282,0
2366,-0.7876561776141767,0
2367,0.20806593477284024,0
2368,0.16312417976741914,0
2369,-0.054651632960437825,0
2370,-0.04107805861551672,0
2371,0.002122859560627414,0
2372,-0.010368677470045547,0
2373,-0.017246778040497762,0
2374,-0.023296473178815016,0
2375,-0.033882870849743514,0
2376,-0.0618369646162809,0
2377,-0.013986598728417558,0
2378,0.09232768740243374,0
2379,0.05800238886177659,0
2380,0.33405851800710423,0
2381,3.9986691363772335,0
2382,6.71171546873868,0
2383,-0.9039365071806682,0
2384,-1.4865230128998346,0
2385,1.5056489518405036,0
2386,-0.7810485679040371,0
2387,0.21166349496407386,0
2388,-0.0019008310525697944,0
2389,-0.0517270494233122,0
2390,-0.017207592838785216,0
2391,-0.08261432738389135,0
2392,0.059239324469863394,0
2393,0.03744573461572358,0
2394,0.07365156629584765,0
2395,-0.0007357843894211617,0
2396,0.00484968812732889,0
2397,-0.027090093125635612,0
2398,-0.024777008327566512,0
2399,-0.09117569016825552,0
2400,0.40344355148194283,0
2401,3.86294423460556,0
2402,6.5420195640194585,0
2403,-0.885474115919833,0
2404,-1.5122512926275662,0
2405,1.2999397949330447,0
2406,-0.913007523454523,0
2407,0.21354285578415985,0
2408,-0.063045355333422,0
2409,-0.07322269095930481,0
2410,0.056391566402981694,0
2411,0.03333394295421928,0
2412,-0.0157862409704455,0
2413,-0.014560954210742463,0
2414,0.09264134415227163,0
2415,0.019534372861297153,0
2416,0.07621026867360767,0
2417,0.107834984013546,0
2418,0.07728992199621273,0
2419,-0.016500079721114336,0
2420,0.489674715072599,0
2421,4.029258746770552,0
2422,6.746930820156085,0
2423,-0.8614763629151654,0
2424,-1.5475819742091166,0
2425,1.5538926473435855,0
2426,-0.7199928601046731,0
2427,0.12568009316258844,0
2428,0.007213914289772795,0
2429,-0.008429058415541743,0
2430,0.029124575067206986,0
2431,-0.05550633322941293,0
2432,0.045618576405872524,0
2433,-0.03638660579107585,0
2434,-0.1203445777963783,0
2435,-0.09630236787229812,0
2436,-0.08461832003393492,0
2437,-0.022936645545529384,0
2438,-0.023933201666796532,0
2439,-0.06983915725429139,0
2440,0.18763960778274819,0
2441,3.8614602099816873,0
2442,6.65781629859407,0
2443,-0.962776497484719,0
2444,-1.5531475770893803,0
2445,1.5200254500632584,0
2446,-0.7246544779040253,0
2447,0.24611891186014154,0
2448,0.011721132281582457,0
2449,-0.11823105174068341,0
2450,0.04255900881278394,0
2451,0.021330696869003768,0
2452,0.07272931444592368,0
2453,0.05972097756372437,0
2454,0.040407493373728724,0
2455,0.04536787539390702,0
2456,0.03117730026341142,0
2457,0.040604211656402496,0
2458,-0.09294971641270015,0
2459,-0.0029369024087761847,0
2460,0.39666581835094394,0
2461,4.08391212079325,0
2462,6.79265717838762,0
2463,-0.8901676281621755,0
2464,-1.6191530152591003,0
2465,1.4765418084554678,0
2466,-0.7925126884422978,0
2467,0.2012383465505525,0
2468,0.03946512437992534,0
2469,-0.042527747518193784,0
2470,-0.0040878162292677135,0
2471,0.015747551961976962,0
2472,0.03403496012996627,0
2473,0.0012517109526766189,0
2474,-0.034040191577405746,0
2475,0.1002068848620652,0
2476,-0.041841353657193506,0
2477,0.012628576037825178,0
2478,-0.025792809428537785,0
2479,0.05013461059878454,0
2480,0.34797513121363594,0
2481,3.9916222578942295,0
2482,6.753314881876594,0
2483,-0.802856216340583,0
2484,-1.552740457042431,0
2485,1.4485015663906726,0
2486,-0.756250131263863,0
2487,0.1557285223390513,0
2488,0.015993614306199326,0
2489,0.054819090912844745,0
2490,0.10723177738884841,0
2491,-0.05927262418778327,0
2492,0.015068821081078262,0
2493,0.029375435851795695,0
2494,-0.03445466325467479,0
2495,-0.027346606825346485,0
2496,0.05534656557272945,0
2497,-0.05045799353839676,0
2498,0.09022778601570403,0
2499,0.08394332536147311,0
2500,0.42515674676921184,0
2501,3.9222891158396918,0
2502,6.74349388840077,0
2503,-0.9216682304916293,0
2504,-1.5559746725924697,0
2505,1.4415454342778153,0
2506,-0.7772020273490355,0
2507,0.20138421532749137,0
2508,-0.07288840280910928,0
2509,-0.10188346822099495,0
2510,0.0491610451940316,0
2511,0.05734645236751455,0
2512,0.014336602106318368,0
2513,0.048807096716926034,0
2514,-0.1233331172833166,0
2515,-0.025522801645389427,0
2516,0.03301392108078415,0
2517,0.021098156533941825,0
2518,0.08445782911196992,0
2519,0.08951040477115534,0
2520,0.4156593183062266,0
2521,3.962724950586499,0
2522,6.644000549233654,0
2523,-0.9011604740550002,0
2524,-1.5464618509675223,0
2525,1.5348293094377012,0
2526,-0.8121823464912495,0
2527,0.26554689158408895,0
2528,0.054141413391994325,0
2529,0.03092219290106712,0
2530,0.11155868709946093,0
2531,0.0488141598276261,0
2532,-0.016453047565748682,0
2533,-0.02164834711905334,0
2534,0.10934969971051818,0
2535,0.03946413467965531,0
2536,-0.017585341537637633,0
2537,-0.07731971053009774,0
2538,-0.017817850081023483,0
2539,0.025154894668549622,0
2540,0.37291433352566555,0
2541,4.003286847917152,0
2542,6.702149642944217,0
2543,-0.9610673305023114,0
2544,-1.5207460537732254,0
2545,1.5867565387395994,0
2546,-0.7523264783265418,0
2547,0.1567370741294754,0
2548,0.026600412671449983,0
2549,-0.11492267234407914,0
2550,0.010801626917013273,0
2551,-0.010104032889607824,0
2552,0.0214940376458816,0
2553,-0.036604515162244854,0
2554,-0.012821322095733532,0
2555,-0.01918836669537758,0
2556,0.07009161211939649,0
2557,-0.03885218355833743,0
2558,0.06283301369212786,0
2559,0.012519048067934746,0
2560,0.35360904827291134,0
2561,3.9758968498225977,0
2562,6.670881005316052,0
2563,-0.9019174615034988,0
2564,-1.4689708515052637,0
2565,1.455607862475756,0
2566,-0.7348060610998484,0
2567,0.2942973743719622,0
2568,0.10963490987258923,0
2569,0.025976837888773106,0
2570,0.12497045988740374,0
2571,0.0008581555349789355,0
2572,0.05323753429690766,0
2573,0.13778025067812572,0
2574,0.06874181113795164,0
2575,0.12333533979782262,0
2576,0.0461486954146879,0
2577,0.049935585282661434,0
2578,0.061998679547469446,0
2579,0.10027864044535376,0
2580,0.4452165063934311,0
2581,3.994099232581876,0
2582,6.594479535629674,0
2583,-1.0003644954965638,0
2584,-1.5549717624801018,0
2585,1.453967684536534,0
2586,-0.678034418770091,0
2587,0.18007298571924615,0
2588,-0.009147740486009099,0
2589,0.03420722960440503,0
2590,0.013797580675257548,0
2591,-0.0398263498165405,0
2592,-0.0454434573361755,0
2593,0.007561227052235629,0
2594,-0.022018252606856924,0
2595,-0.02359209794382872,0
2596,-0.044979282294093655,0
2597,0.01108386754475332,0
2598,-0.04356525568314537,0
2599,0.006263021946897018,0
2600,0.35745861473768753,0
2601,4.096215287008299,0
2602,6.593768191584783,0
2603,-0.9444502907167951,0
2604,-1.5335835254441126,0
2605,1.463397122980002,0
2606,-0.8190442673342767,0
2607,0.1795680085768433,0
2608,0.013167397911349667,0
2609,-0.06889670619381343,0
2610,0.03392591906456206,0
2611,-0.06247635125098229,0
2612,-0.04962629983078449,0
2613,-0.04831143108540316,0
2614,0.05730619137999708,0
2615,0.029271898185413904,0
2616,-0.11215415152961952,0
2617,0.0008434102327566423,0
2618,0.049124434672373984,0
2619,-0.0651315559159844,0
2620,0.3818079231341176,0
2621,3.9902810764211227,0
2622,6.6171761505574676,0
2623,-0.9320561386218404,0
2624,-1.5350557002730005,0
2625,1.5116631561264706,0
2626,-0.8008054929004429,0
2627,0.29906676518564224,0
2628,-0.01115080150124251,0
2629,-0.03864464159363763,0
2630,0.03576641502952192,0
2631,0.019822831472114985,0
2632,0.001994836096183566,0
2633,0.09106926558638845,0
2634,0.014206842104102583,0
2635,-0.09211374226865443,0
2636,-0.08749798604829187,0
2637,0.004126507603742866,0
2638,0.04486587837881914,0
2639,0.03558692472982891,0
2640,0.4350131386655818,0
2641,3.9115180714742652,0
2642,6.727962665999106,0
2643,-1.0637889626208583,0
2644,-1.485908673223523,0
2645,1.49722545014042,0
2646,-0.848788074680353,0
2647,0.14709891529689073,0
2648,0.009076863057882772,0
2649,-0.03361160594903273,0
2650,0.070571909569215,0
2651,-0.04608739406350673,0
2652,0.0770820599677788,0
2653,-0.10124374428421791,0
2654,0.03977707755420529,0
2655,-0.03946581595873403,0
2656,-0.010403772154740488,0
2657,0.06372772964781438,0
2658,-0.03632539464450668,0
2659,-0.032726971014865706,0
2660,0.35323494074911754,0
2661,3.984325509621021,0
2662,6.647347482924464,0
2663,-1.0383640478135538,0
2664,-1.5392891488140645,0
2665,1.4859322732001967,0
2666,-0.9209205006734988,0
2667,0.16080528585870604,0
2668,-0.0343958266888265,0
2669,0.00835394895282493,0
2670,0.04993997315089212,0
2671,-0.06777645364543858,0
2672,-0.013654577790972938,0
2673,-0.06912152445316186,0
2674,0.004788658976984078,0
2675,-0.05999529727254785,0
2676,-0.08335081472549369,0
2677,-0.04205715040691605,0
2678,-0.028617243828339696,0
2679,-0.05042375433968274,0
2680,0.2916518641802185,0
2681,3.8804211835140547,0
2682,6.567632434666147,0
2683,-0.9851202047010027,0
2684,-1.5876880500086308,0
2685,1.419750059651884,0
2686,-0.8688445140792258,0
2687,0.20024939396087663,0
2688,-0.09585858657143856,0
2689,-0.11301916744865848,0
2690,0.03538673042618084,0
2691,-0.032503587255747736,0
2692,0.03996434366977087,0
2693,-0.10762669840350397,0
2694,-0.0372964735511212,0
2695,-0.03130211138502482,0
2696,-0.024951729930687085,0
2697,-0.022265812614524032,0
2698,-0.07245388682866026,0
2699,-0.08355217046932963,0
2700,0.34657702475812924,0
2701,3.9145979705616347,0
2702,6.6269084242855625,0
2703,-1.049046191317241,0
2704,-1.5918479717731286,0
2705,1.2918390934785742,0
2706,-0.9023749343167267,0
2707,0.07655332834270259,0
2708,-0.03195565297628396,0
2709,-0.175006660156079,0
2710,-0.1196516395885754,0
2711,-0.13187531018208282,0
2712,-0.11249957149886457,0
2713,-0.04374558339029654,0
2714,-0.018139806475653504,0
2715,-0.11615310084079039,0
2716,-0.05998350393018632,0
2717,-0.01833999174217573,0
2718,-0.032478549362995594,0
2719,-0.06326615964586536,0
2720,0.3250427606801288,0
2721,3.851185811387872,0
2722,6.529859881123392,0
2723,-1.0558538878506343,0
2724,-1.6034570816457774,0
2725,1.4290001179082006,0
2726,-0.8336944734574346,0
2727,0.04604141516918275,0
2728,-0.10942823609518831,0
2729,-0.05412472405668223,0
2730,-0.09152831490880439,0
2731,-0.06125557354009359,0
2732,0.010553841075141103,0
2733,-0.04351179961503091,0
2734,-0.03339873439719883,0
2735,-0.10510302508123642,0
2736,-0.03367845330689763,0
2737,-0.041121561760693724,0
2738,-0.05759259599158965,0
2739,-0.12350771582436784,0
2740,0.39391681830215775,0
2741,4.01056723957376,0
2742,6.587498649585254,0
2743,-1.0696768260598712,0
2744,-1.54402074560276,0
2745,1.388174862519072,0
2746,-0.8253608426596111,0
2747,0.20252078960690792,0
2748,-0.056665113659200156,0
2749,-0.09471143932555035,0
2750,0.03381139954783373,0
2751,-0.061133290260830614,0
2752,-0.0033915829221068255,0
2753,-0.08328227992288283,0
2754,-0.011535023697783997,0
2755,-0.06448798417260183,0
2756,0.017420799851904676,0
2757,-0.010946192891506928,0
2758,-0.01650525309033486,0
2759,-0.03347202331730404,0
2760,0.3467409106815894,0
2761,4.014399439768932,0
2762,6.556763516246559,0
2763,-1.0269566468158238,0
2764,-1.4512524876594135,0
2765,1.370302051897847,0
2766,-0.7243281194709962,0
2767,0.1776616411764403,0
2768,-0.0615690018659166,0
2769,-0.09310481351681128,0
2770,-0.021951089746190318,0
2771,-0.04434757393169957,0
2772,0.0054793407324725575,0
2773,-0.028623416274981082,0
2774,-0.03521161917214812,0
2775,-0.0904705170049716,0
2776,-0.0613382906646385,0
2777,-0.04877271046662066,0
2778,-0.005714410910828832,0
2779,-0.04941144388630179,0
2780,0.27713611765909446,0
2781,4.003225228959285,0
2782,6.487289889627627,0
2783,-1.0927943894356178,0
2784,-1.4998021074650267,0
2785,1.4418501023103296,0
2786,-0.770710283104047,0
2787,0.21854943488312414,0
2788,-0.10733472005506874,0
2789,-0.05783810855489937,0
2790,0.045836617838514795,0
2791,-0.03824017120885966,0
2792,-0.007211634645311385,0
2793,0.015462743432378225,0
2794,-0.012398681855583807,0
2795,0.05763789800997938,0
2796,0.04332973355375263,0
2797,-0.05048473137451721,0
2798,0.060080701567479175,0
2799,-0.007463838628065397,0
2800,0.40108231119199556,0
2801,4.1017490567347,0
2802,6.731580803848965,0
2803,-1.0376720873180156,0
2804,-1.5775911171652182,0
2805,1.4304405496000818,0
2806,-0.7582910172693542,0
2807,0.16283132793837166,0
2808,0.03693545291259254,0
2809,-0.08247508736168996,0
2810,-0.02145403011429517,0
2811,-0.07768877290534751,0
2812,0.017348058246589675,0
2813,-0.04029490509325089,0
2814,-0.06692262824977778,0
2815,-0.09715971634400605,0
2816,-0.05899743794708596,0
2817,-0.05642220080966732,0
2818,0.015948490765256076,0
2819,-0.05479115504667416,0
2820,0.44036438570281017,0
2821,3.994841898243869,0
2822,6.623177328537951,0
2823,-1.0597571609768326,0
2824,-1.5111040888796128,0
2825,1.3854469536041283,0
2826,-0.8467719628725496,0
2827,0.159253508488611,0
2828,-0.04921792503981327,0
2829,-0.08063130708324667,0
2830,-0.10221272795226624,0
2831,0.02200165822962076,0
2832,0.03472657930938759,0
2833,-0.0022402373606046355,0
2834,0.07413528471861301,0
2835,0.054383753085628414,0
2836,0.060859155996381586,0
2837,0.06290198131612475,0
2838,-0.007290841664818717,0
2839,0.05096837285841954,0
2840,0.48703319699983405,0
2841,3.974939896614548,0
2842,6.6877715372883815,0
2843,-0.9970722693049872,0
2844,-1.4401623580410938,0
2845,1.522792578085964,0
2846,-0.7571709574564022,0
2847,0.16764576000085316,0
2848,-0.13551940381255773,0
2849,0.019856985796989732,0
2850,0.022442736523038097,0
2851,0.07843768779426166,0
2852,-0.06933082736384097,0
2853,0.0200990461250857,0
2854,-0.07954441011353075,0
2855,-0.031886175528638344,0
2856,-0.05452666097825915,0
2857,-0.04502611288729135,0
2858,0.005184044646353348,0
2859,-0.03570927625208163,0
2860,0.4013896298751903,0
2861,4.000305490131569,0
2862,6.712976497290707,0
2863,-1.0056904575710874,0
2864,-1.5118466588991437,0
2865,1.4253066578430464,0
2866,-0.7671102319790342,0
2867,0.24602877565427955,0
2868,0.0017197028265226468,0
2869,0.0001930120507934313,0
2870,0.0489119888724795,0
2871,-0.02792634590840527,0
2872,0.03662914054177756,0
2873,0.015325593117461043,0
2874,0.009112289603231884,0
2875,0.051131329459628366,0
2876,0.039335173320541116,0
2877,-0.02735118373722748,0
2878,-0.014675516347116634,0
2879,-0.011992891942955494,0
2880,0.3539392004911958,0
2881,3.9894427181625782,0
2882,6.633361490938517,0
2883,-0.9417600569131805,0
2884,-1.4506841865223716,0
2885,1.3246455947740758,0
2886,-0.7926152746011361,0
2887,0.32909501256482354,0
2888,0.030382578533612238,0
2889,0.06155618616260443,0
2890,-0.014428289067341456,0
2891,0.006514888389285838,0
2892,-0.03952404068325957,0
2893,0.09005007627749734,0
2894,0.01369457975755596,0
2895,-0.06716274414974749,0
2896,0.04248852699515944,0
2897,0.003619801983374289,0
2898,-0.05520579243271078,0
2899,-0.01833264498197114,0
2900,0.3480042720579564,0
2901,4.0854031452120205,0
2902,6.619827696500824,0
2903,-1.030585064452816,0
2904,-1.480452937664963,0
2905,1.3987511338062244,0
2906,-0.7679562647982288,0
2907,0.076660087297933,0
2908,-0.01760865056376297,0
2909,-0.058004070017039985,0
2910,0.006465155060333495,0
2911,-0.06891850423973976,0
2912,-0.0018428452510743506,0
2913,-0.09216724549037192,0
2914,-0.07146664323611132,0
2915,0.03082677008274034,0
2916,0.03981765887752377,0
2917,-0.031879400168485714,0
2918,-0.057735560841897814,0
2919,-0.09815788226582002,0
2920,0.3493713351765049,0
2921,3.966655597630356,0
2922,6.549890781524816,0
2923,-0.9336821149871645,0
2924,-1.5946938392356356,0
2925,1.3915676895664308,0
2926,-0.8563821639435192,0
2927,0.1997371306325687,0
2928,0.06203564824241503,0
2929,0.06934892272095719,0
2930,0.05042539427784741,0
2931,0.059444134728829985,0
2932,0.12063134226589092,0
2933,0.07863771087593271,0
2934,-0.010116147398967407,0
2935,-0.017380370896299797,0
2936,0.033491415078710715,0
2937,0.06300952761145137,0
2938,0.05477984699106516,0
2939,0.03801167034611369,0
2940,0.41561123833325425,0
2941,4.065546655999052,0
2942,6.698507642397776,0
2943,-1.0641318366148471,0
2944,-1.5052899346852662,0
2945,1.4466993301713853,0
2946,-0.8279673401964779,0
2947,0.11856757691380847,0
2948,-0.005556663874597658,0
2949,-0.02449564527575755,0
2950,0.06283944338403022,0
2951,0.01830840718137249,0
2952,-0.050737427126547066,0
2953,0.0035846791296258486,0
2954,-0.06695054939790335,0
2955,-0.027912956944833076,0
2956,0.024821337446168986,0
2957,-0.018178807644378805,0
2958,-0.06042858348435838,0
2959,-0.07151202664007766,0
2960,0.3904902966967891,0
2961,3.9922725699227475,0
2962,6.613936331554799,0
2963,-1.1008014166915914,0
2964,-1.4882071413314468,0
2965,1.4087041380374645,0
2966,-0.7967528227748831,0
2967,0.2240621702077754,0
2968,0.024631441912645862,0
2969,-0.05147670854257026,0
2970,-0.022157189757663176,0
2971,0.11035576467011442,0
2972,-0.006176621273813472,0
2973,-0.022754802829917816,0
2974,-0.05525569071944507,0
2975,0.016908159358567276,0
2976,0.04117643486694881,0
2977,0.03474488255609577,0
2978,0.02554591167308072,0
2979,-0.049353991488890955,0
2980,0.344844941588904,0
2981,4.010482990246299,0
2982,6.563639381631983,0
2983,-1.0662063892886433,0
2984,-1.604848917784973,0
2985,1.3336447220558827,0
2986,-0.7217850828732447,0
2987,0.17566548083310807,0
2988,0.011170741787749856,0
2989,-0.0507174977123721,0
2990,0.043002055396798175,0
2991,-7.48192769256589e-05,0
2992,-0.04387814327597725,0
2993,-0.021075147788296795,0
2994,-0.005329694831513729,0
2995,-0.13133614104189906,0
2996,-0.08945046220517988,0
2997,-0.09464723091329134,0
2998,-0.11604686175142959,0
2999,-0.10761670577775055,0
3000,0.232898791747622,0
3001,3.860800919911213,0
3002,6.48180074345815,0
3003,-1.3092471534206782,0
3004,-1.600318841550076,0
3005,1.2971997340708301,0
3006,-0.9169512527016048,0
3007,0.021440154107220034,0
3008,-0.11276960604512712,0
3009,-0.09440035738873331,0
3010,0.02898620564981963,0
3011,-0.18536985112038074,0
3012,0.014856402129241116,0
3013,-0.045325727066168386,0
3014,-0.03367848638535942,0
3015,-0.10121786341497493,0
3016,0.07754984432121861,0
3017,-0.060792829702728785,0
3018,-0.02559682609250102,0
3019,-0.08135019459222889,0
3020,0.3142248198462238,0
3021,3.9635824519545713,0
3022,6.604981037661557,0
3023,-1.1416486208125456,0
3024,-1.5695929177491177,0
3025,1.3498100102168757,0
3026,-0.8348001475096191,0
3027,0.13588460412281422,0
3028,-0.09347162759785001,0
3029,-0.08099025816101849,0
3030,-0.14750066793465005,0
3031,-0.06136264613587544,0
3032,-0.036890881556957036,0
3033,-0.06389503398012512,0
3034,-0.04795933220931719,0
3035,-0.045387936722988825,0
3036,-0.10377554720342778,0
3037,0.022431170692627997,0
3038,-0.038853374402195634,0
3039,-0.09756910144892475,0
3040,0.410835224544472,0
3041,4.037640376084074,0
3042,6.574263715521804,0
3043,-1.1125519810834694,0
3044,-1.5186312979631191,0
3045,1.3811569342977867,0
3046,-0.7553950702051322,0
3047,0.11815135933518897,0
3048,-0.02910884606552836,0
3049,-0.008881048160733776,0
3050,-0.08034434597255005,0
3051,-0.06961126998373707,0
3052,-0.02043394445363437,0
3053,-0.06918597868836453,0
3054,-0.018483087690570228,0
3055,-0.1816987267676643,0
3056,-0.02184446104625854,0
3057,-0.055196303702753254,0
3058,0.06285233878223873,0
3059,-0.09284368812036664,0
3060,0.2569309283103233,0
3061,3.999883064516527,0
3062,6.550329572765031,0
3063,-1.1455394459244563,0
3064,-1.412916572138046,0
3065,1.338010356408165,0
3066,-0.8181757019153539,0
3067,0.12173154208991781,0
3068,-0.03479919117771321,0
3069,0.07082027010960308,0
3070,0.02584281051668565,0
3071,0.06391810480522532,0
3072,0.03609457406195367,0
3073,0.026120951645908982,0
3074,0.10103263682633444,0
3075,0.040592800246105815,0
3076,-0.046569652289549915,0
3077,-0.019703181059978724,0
3078,-0.03584363273822647,0
3079,-0.07827922409853129,0
3080,0.4226606740492779,0
3081,4.028057008806025,0
3082,6.642916992632451,0
3083,-1.084690915742168,0
3084,-1.4678758795040603,0
3085,1.3546706893698492,0
3086,-0.8331463980946107,0
3087,0.12206484914392234,0
3088,-0.030906551254695165,0
3089,-0.12525428032331373,0
3090,-0.011894031930666904,0
3091,0.05800631816699725,0
3092,-0.024782257543363353,0
3093,0.012836815288509058,0
3094,0.025199433557183522,0
3095,-0.006430313336367602,0
3096,-0.005180485241716208,0
3097,0.0008626876905872584,0
3098,-0.01722312527377416,0
3099,-0.02408331004248967,0
3100,0.3534247171000735,0
3101,3.9531292356100174,0
3102,6.4956428013859195,0
3103,-1.2390206811812798,0
3104,-1.6309635357999868,0
3105,1.3658284733680033,0
3106,-0.8317835932275027,0
3107,0.1459831426061232,0
3108,-0.08467201640004762,0
3109,-0.034331998102957145,0
3110,0.06057293282937832,0
3111,0.006530510207041016,0
3112,0.052942055316122866,0
3113,-0.05653648275766979,0
3114,0.08364421453669767,0
3115,-0.02579786599145152,0
3116,0.030044748886102444,0
3117,-0.050128353397238055,0
3118,-0.03130438419056525,0
3119,-0.017514579859336486,0
3120,0.32882654432915714,0
3121,4.122982677858942,0
3122,6.648753412127891,0
3123,-1.2054345856193096,0
3124,-1.4312233612926466,0
3125,1.4155601701244627,0
3126,-0.8581711272261516,0
3127,0.14564383334360753,0
3128,-0.014435993425212122,0
3129,-0.033140440409596246,0
3130,0.051601441998926204,0
3131,0.0061796520263356775,0
3132,0.03828841242096771,0
3133,0.03944797856613677,0
3134,-0.04306606675140931,0
3135,0.008948804556891177,0
3136,0.06812902993372548,0
3137,0.0024664271657240926,0
3138,-0.028143935681972362,0
3139,0.008890506432835723,0
3140,0.48143496020903703,0
3141,4.045251315807606,0
3142,6.545395495884826,0
3143,-1.1779766784448804,0
3144,-1.3632873206253193,0
3145,1.5113786450916133,0
3146,-0.7868579482676193,0
3147,0.20836727145776202,0
3148,0.052240748909554324,0
3149,-0.012190720518273067,0
3150,0.017134222964970292,0
3151,0.020767310993277416,0
3152,-0.001996916902527738,0
3153,0.05728869259317103,0
3154,0.04893596683348855,0
3155,0.0363929879879864,0
3156,0.057586335554457656,0
3157,0.024631774723647325,0
3158,-0.012929047351186544,0
3159,0.04592959421782163,0
3160,0.3716066268646569,0
3161,4.110896745821098,0
3162,6.708744299367497,0
3163,-1.0018085275654103,0
3164,-1.3920857111489595,0
3165,1.4686108281843309,0
3166,-0.7750557721641039,0
3167,0.2680978863680464,0
3168,-0.02798888511442039,0
3169,0.05343650190453157,0
3170,0.030294771314529612,0
3171,0.00796720506882127,0
3172,0.0695374996611935,0
3173,-0.04010542275103714,0
3174,0.020787825014925695,0
3175,-0.11663644706460129,0
3176,0.015569451446325728,0
3177,-0.0272110676180651,0
3178,0.1263241375064827,0
3179,-0.06315534960508373,0
3180,0.37814289136058504,0
3181,4.176890566190381,0
3182,6.651133362921825,0
3183,-1.1760167425028205,0
3184,-1.4572668854729085,0
3185,1.5072314401240545,0
3186,-0.8100748204153204,0
3187,0.1900701620933402,0
3188,-0.08607421744168078,0
3189,-0.05377992592273279,0
3190,0.029157847913307285,0
3191,0.09788466465327478,0
3192,0.045314434805979416,0
3193,0.029295404814067928,0
3194,-0.07605105847939161,0
3195,0.02866116583762811,0
3196,-0.015415619514578012,0
3197,-0.01260493647420535,0
3198,-0.09175393637878207,0
3199,-0.04652957457952909,0
3200,0.3716621501289317,0
3201,3.9836657075551294,0
3202,6.524947698033982,0
3203,-1.2309407417026033,0
3204,-1.43053987835527,0
3205,1.34428059249282,0
3206,-0.8102858766416575,0
3207,0.19190310654896572,0
3208,-0.10626112050488722,0
3209,-0.10337742068570047,0
3210,-0.013949769445262189,0
3211,-0.1677183284363128,0
3212,-0.17269454657499042,0
3213,-0.060478204567634794,0
3214,-0.02511269665393221,0
3215,-0.013795962705260564,0
3216,-0.0759942381585531,0
3217,-0.05137092799944652,0
3218,-0.02198082282314362,0
3219,-0.07458557031630471,0
3220,0.3995761382916622,0
3221,4.055439258550908,0
3222,6.617033513416521,0
3223,-1.1669749934535236,0
3224,-1.4490249542453104,0
3225,1.4300297607131374,0
3226,-0.750025184103731,0
3227,0.251230587193554,0
3228,-0.018923575961754223,0
3229,0.026197370267911392,0
3230,-0.010111759369489173,0
3231,-0.05246263116032571,0
3232,-0.010192593104538046,0
3233,-0.07323801628156834,0
3234,-0.05467772040303527,0
3235,0.001922634076860167,0
3236,-0.0035347085987979844,0
3237,0.003751167378934342,0
3238,0.03566111022654491,0
3239,-0.13328036993220063,0
3240,0.3690474763325516,0
3241,4.083459077804728,0
3242,6.559826304236977,0
3243,-1.1014109647516261,0
3244,-1.3645101587031956,0
3245,1.4227355483219024,0
3246,-0.8730053118375564,0
3247,0.2131975489273531,0
3248,-0.08971601761543899,0
3249,-0.04008322909246615,0
3250,0.002701388121726698,0
3251,-0.06206076158794088,0
3252,-0.04971076967013005,0
3253,-0.09852672852162848,0
3254,-0.05375165529164611,0
3255,-0.027015121476015175,0
3256,-0.06045246926476312,0
3257,-0.060070980303250136,0
3258,-0.04889250599386373,0
3259,-0.01851967189661715,0
3260,0.4086018486809779,0
3261,3.9977550965680053,0
3262,6.549939848161842,0
3263,-1.218783728338832,0
3264,-1.4892164159438062,0
3265,1.3188305022485989,0
3266,-0.8761432129678141,0
3267,0.1498414798383173,0
3268,-0.06728687909994818,0
3269,-0.028760934285904566,0
3270,-0.06927417015151237,0
3271,-0.057419209654434616,0
3272,-0.10683479202251064,0
3273,-0.07592744447686625,0
3274,-0.06637881393083522,0
3275,-0.1577667707361498,0
3276,-0.09846898001891977,0
3277,0.020261498515394605,0
3278,-0.088559817963159,0
3279,-0.12641815435780915,0
3280,0.38731770541377225,0
3281,4.043856540550389,0
3282,6.551857148548771,0
3283,-1.2188702628320573,0
3284,-1.468984228088441,0
3285,1.3637917286644947,0
3286,-0.7861607339406562,0
3287,0.22411295944616028,0
3288,-0.10702421334681465,0
3289,-0.04449675709145466,0
3290,-0.033259388534552375,0
3291,-0.058459596889354266,0
3292,-0.0011651982048694574,0
3293,0.034033177995134695,0
3294,-0.017913403535821035,0
3295,-0.0172533407500085,0
3296,-0.07615100945159417,0
3297,-0.059481839936194825,0
3298,0.010168211922119846,0
3299,-0.10011407074366153,0
3300,0.37971089526432633,0
3301,4.010939232789195,0
3302,6.632797853206945,0
3303,-1.0688319842304908,0
3304,-1.500038487406128,0
3305,1.3840268420661237,0
3306,-0.87534217766838,0
3307,0.19435039721400282,0
3308,-0.08096508017199991,0
3309,-0.1017293802560125,0
3310,0.07740663372496312,0
3311,-0.04271531948651908,0
3312,-0.09994220979436974,0
3313,-0.05285921066720975,0
3314,-0.06996874612306782,0
3315,-0.03520465271657361,0
3316,0.056937717488480706,0
3317,0.02084467488780306,0
3318,0.008213433605952648,0
3319,0.0458768513128661,0
3320,0.3633171030663418,0
3321,4.134276620793796,0
3322,6.6193800341518205,0
3323,-1.1200181851926079,0
3324,-1.4521442030541598,0
3325,1.4266931674386827,0
3326,-0.8088381106659284,0
3327,0.254068308287305,0
3328,0.04078927959156961,0
3329,-0.00849662110234034,0
3330,0.06129722005736957,0
3331,0.023032634014812814,0
3332,0.021058510840020236,0
3333,-0.01091283543530989,0
3334,-0.029105667428237343,0
3335,0.03744561950288898,0
3336,-0.1136352622826931,0
3337,-0.059177553166814424,0
3338,0.08664529283696752,0
3339,0.10790028837422154,0
3340,0.41993337495077704,0
3341,4.222885065645169,0
3342,6.525945791397699,0
3343,-1.1203313786912517,0
3344,-1.4261727486712563,0
3345,1.3852895591049434,0
3346,-0.8472210155461295,0
3347,0.1811710760952101,0
3348,-0.032610801464638725,0
3349,-0.1590413459569685,0
3350,-0.06197226500040812,0
3351,-0.18807299728970023,0
3352,-0.13616936239420988,0
3353,-0.08542282321660537,0
3354,-0.09511550721136991,0
3355,-0.07476278480989969,0
3356,-0.043118087528837085,0
3357,-0.07011062263510863,0
3358,-0.05736455008268546,0
3359,-0.0016275447509857405,0
3360,0.28804427064090415,0
3361,4.082036884375139,0
3362,6.576450493871416,0
3363,-1.1460264623780223,0
3364,-1.4210561911210111,0
3365,1.3992656443308054,0
3366,-0.7309577672083032,0
3367,0.21864084494073854,0
3368,-0.10233858851969364,0
3369,0.0816005354400995,0
3370,0.11685066041391527,0
3371,0.01378860805408693,0
3372,0.03676216455277981,0
3373,0.07943112258749323,0
3374,0.0170805706060111,0
3375,0.02425862585839914,0
3376,0.03871979214314707,0
3377,0.12590370297430345,0
3378,0.01446538293944472,0
3379,0.03981495456371578,0
3380,0.30589815126259823,0
3381,4.1428606525119385,0
3382,6.639615320708333,0
3383,-1.2130652694353985,0
3384,-1.3538639922214708,0
3385,1.4324764282184332,0
3386,-0.682085592879049,0
3387,0.2433643609452584,0
3388,0.007671199288115219,0
3389,0.05942810689744857,0
3390,0.06120204941434453,0
3391,0.10423480402112092,0
3392,0.017634327342961473,0
3393,0.07947042335957549,0
3394,0.009491906188547443,0
3395,0.09139952704303293,0
3396,-0.006101096053886541,0
3397,-0.07421725266111044,0
3398,0.021049528461007664,0
3399,0.010203220913621828,0
3400,0.44351502588057967,0
3401,4.074317747780268,0
3402,6.609662023285781,0
3403,-1.094422261248632,0
3404,-1.3352026505153691,0
3405,1.4117908958578997,0
3406,-0.7289983582307757,0
3407,0.22027237719980333,0
3408,-0.02900312366976416,0
3409,-0.05498259568331411,0
3410,0.0048721250222307395,0
3411,0.03317265285167948,0
3412,0.07393749031135624,0
3413,0.12575351788251313,0
3414,0.012037149474448674,0
3415,0.0554703388127053,0
3416,-0.009286127885451405,0
3417,0.021252056175117027,0
3418,0.029135490860695952,0
3419,0.027849668821433124,0
3420,0.39738872631337796,0
3421,4.185721587856406,0
3422,6.632531835025623,0
3423,-1.1526979699268165,0
3424,-1.448587563212802,0
3425,1.4690600460836292,0
3426,-0.7245480505245093,0
3427,0.33253960932369464,0
3428,-0.0033978038990247713,0
3429,-0.0984084494371442,0
3430,0.04324453833121811,0
3431,0.11798372637607643,0
3432,-0.11002167850738381,0
3433,-0.07658129559483202,0
3434,0.06408568396626749,0
3435,0.005182018074315073,0
3436,-0.033884185667877556,0
3437,0.014806092083570165,0
3438,0.019066192170482006,0
3439,0.059425645033257986,0
3440,0.5111016266835791,0
3441,4.109159853061825,0
3442,6.574308680364047,0
3443,-1.1467488046584224,0
3444,-1.4033545014642357,0
3445,1.3972011621306584,0
3446,-0.7220250692310114,0
3447,0.13903259459652853,0
3448,-0.009793320272670082,0
3449,-0.002260108052410708,0
3450,0.10666459606612144,0
3451,0.05615734042373182,0
3452,-0.023841661902905063,0
3453,0.0006618232020494507,0
3454,-0.0028080905863046915,0
3455,0.07182993245098102,0
3456,0.07758571763743953,0
3457,0.06590932957073782,0
3458,0.07069050937429369,0
3459,0.09366990335195124,0
3460,0.44636247238375815,0
3461,4.192179275109462,0
3462,6.589030139963255,0
3463,-1.1330000047349624,0
3464,-1.3719320694769332,0
3465,1.4114651896465997,0
3466,-0.807784031265278,0
3467,0.23680372973136432,0
3468,0.08130411660950052,0
3469,0.0012083483096537008,0
3470,0.03256342205860648,0
3471,-0.001741329408292018,0
3472,-0.0700490489038395,0
3473,-0.021762101662234655,0
3474,0.07275567905564163,0
3475,0.087163551480579,0
3476,-0.06864515847098732,0
3477,0.06553382153517259,0
3478,0.010926227093981777,0
3479,0.002992995175580125,0
3480,0.382592106465235,0
3481,4.152403753884534,0
3482,6.541770129732567,0
3483,-1.2605461550087562,0
3484,-1.4113424259218403,0
3485,1.4812300646555554,0
3486,-0.9134909462301666,0
3487,0.20237057711174444,0
3488,0.04461192404324109,0
3489,-0.05514132394853581,0
3490,0.00985848658663991,0
3491,-0.022261854694605544,0
3492,-0.06070775397949242,0
3493,0.005504515700373195,0
3494,-0.029302427144655266,0
3495,-0.03585750732146275,0
3496,0.07774458359279449,0
3497,-0.012307496966584886,0
3498,0.0465306050155365,0
3499,-0.05156996756941535,0
3500,0.40719320668609654,0
3501,4.164500274851012,0
3502,6.608211450493301,0
3503,-1.2018230220740085,0
3504,-1.4132548582724018,0
3505,1.3492775492072628,0
3506,-0.8855101552035745,0
3507,0.24553893946187944,0
3508,0.03998087367706424,0
3509,-0.01812165648066641,0
3510,-0.016062738079548063,0
3511,-0.025185146000305164,0
3512,-0.045269728638385964,0
3513,-0.038760585432603,0
3514,-0.012106153004796956,0
3515,0.012799621881407118,0
3516,-0.04657624277140124,0
3517,-0.08115167692652053,0
3518,-0.06967382729341935,0
3519,-0.0632571003450681,0
3520,0.4146912306987315,0
3521,4.008769721919781,0
3522,6.529161563117048,0
3523,-1.2417627331916576,0
3524,-1.3833087901477052,0
3525,1.3660626314684867,0
3526,-0.7880391130340985,0
3527,0.20325198221589005,0
3528,-0.0702267434069458,0
3529,-0.020647388646677534,0
3530,-0.032711104438437104,0
3531,-0.011865789665214822,0
3532,0.08150414408252035,0
3533,-0.03157859107458187,0
3534,0.015433713834269742,0
3535,-0.0047894742670035705,0
3536,-0.028697469784086216,0
3537,0.0077071873824891245,0
3538,-0.09458432856820016,0
3539,-0.06690996945623762,0
3540,0.385731016145317,0
3541,4.128224674288531,0
3542,6.577065703652438,0
3543,-1.2730979402765668,0
3544,-1.4308626353183198,0
3545,1.3911023251859003,0
3546,-0.7563735098985666,0
3547,0.23014126234817664,0
3548,-0.043814822882500104,0
3549,-0.04083191541628961,0
3550,-0.02809727684807807,0
3551,-0.001803059845570932,0
3552,-0.07893623471656655,0
3553,-0.0588208204329409,0
3554,0.007111210694086663,0
3555,-0.031105820692710746,0
3556,0.022945592593942646,0
3557,-0.019897122389954953,0
3558,-0.032318963615752795,0
3559,-0.01835435246156904,0
3560,0.34386910443656576,0
3561,4.06580883544689,0
3562,6.4786314651923815,0
3563,-1.2725028097344646,0
3564,-1.4222611792894524,0
3565,1.3587858256913508,0
3566,-0.9340653772640976,0
3567,0.07946873377680731,0
3568,-0.07146791677092797,0
3569,-0.12873084906989393,0
3570,0.004088047535163404,0
3571,0.0034499680299391183,0
3572,0.05599994121288676,0
3573,-0.10714918642419151,0
3574,-0.021618235501706266,0
3575,-0.07597877441024413,0
3576,-0.10391480180783846,0
3577,-0.029979840593685036,0
3578,-0.06832007909527554,0
3579,0.02542809913890722,0
3580,0.400352448340462,0
3581,4.1753803896801545,0
3582,6.544382427474366,0
3583,-1.186183378049954,0
3584,-1.4846177716204614,0
3585,1.2866510154422015,0
3586,-0.7752767879221455,0
3587,0.10691389062589153,0
3588,-0.09688144689174877,0
3589,-0.03461351898067341,0
3590,-0.06032836544317498,0
3591,-0.11980233387635521,0
3592,-0.06812159886934858,0
3593,-0.08381966039657682,0
3594,-0.07868833014901203,0
3595,-0.03802257674153822,0
3596,0.05480664105727723,0
3597,-0.02675273960590474,0
3598,-0.08467831282673179,0
3599,-0.07667928195300537,0
3600,0.4160967009453159,0
3601,4.1003839343957535,0
3602,6.527067282284537,0
3603,-1.2741650369813404,0
3604,-1.3242768115538581,0
3605,1.3190068777658943,0
3606,-0.796518999371543,0
3607,0.14508703355995173,0
3608,-0.06385373815258025,0
3609,-0.0976248396242094,0
3610,0.0005507101791486987,0
3611,-0.05690703080049198,0
3612,-0.01613982108091975,0
3613,-0.12176087160397153,0
3614,-0.10373853397376241,0
3615,-0.04607404192784251,0
3616,-0.05411176101903984,0
3617,-0.07558108467414948,0
3618,-0.07636473639002256,0
3619,-0.0834696817016584,0
3620,0.3973728031628552,0
3621,4.122858157331508,0
3622,6.520058845288159,0
3623,-1.2604289580639234,0
3624,-1.3481763210623297,0
3625,1.4127790876380282,0
3626,-0.7897045850708907,0
3627,0.12883547785980706,0
3628,-0.052809349812148396,0
3629,-0.09448675156452227,0
3630,-0.06311417625280977,0
3631,-0.010421813368331694,0
3632,-0.053040620579209795,0
3633,-0.03286702312495223,0
3634,-0.08867370147228165,0
3635,-0.045523394729307366,0
3636,-0.0006663732692214486,0
3637,0.05043066168739476,0
3638,-0.10143262583056828,0
3639,-0.016489986317969663,0
3640,0.41297787484863746,0
3641,4.129815031737914,0
3642,6.489452525407487,0
3643,-1.2645717647562789,0
3644,-1.331967949056319,0
3645,1.3540349318092681,0
3646,-0.8352600865922025,0
3647,0.21907591354776568,0
3648,-0.014221093925918332,0
3649,-0.10651981157306036,0
3650,-0.11263235111974843,0
3651,-0.19743282605728793,0
3652,-0.14050285491166165,0
3653,0.0034674988339938595,0
3654,-0.07727122502689517,0
3655,-0.0026023412719397704,0
3656,-0.11989701262394895,0
3657,0.011681898566429254,0
3658,0.053400428671024215,0
3659,-0.050263970271358344,0
3660,0.2658751677281639,0
3661,4.0321832582170885,0
3662,6.483551805326225,0
3663,-1.2656548179793332,0
3664,-1.3146843762920146,0
3665,1.3590040935535384,0
3666,-0.7897946464762824,0
3667,0.21848175746575763,0
3668,-0.030343171358296298,0
3669,-0.015506140360211237,0
3670,-0.13055211966217228,0
3671,0.0020653194513131704,0
3672,0.0027351572487897165,0
3673,0.11739606667405714,0
3674,0.01021364291825606,0
3675,-0.035347418865393124,0
3676,-0.017547158653783618,0
3677,0.02415500440066864,0
3678,-0.11316886336822723,0
3679,-0.002706714402669154,0
3680,0.43668974416942635,0
3681,4.121057392954782,0
3682,6.538697411473067,0
3683,-1.2557703654580337,0
3684,-1.3473447404195056,0
3685,1.3447484014865705,0
3686,-0.8383486711146603,0
3687,0.2235964185679985,0
3688,-0.09874340958364959,0
3689,-0.11298622841167333,0
3690,-0.05629438211282278,0
3691,-0.048805535421649365,0
3692,-0.022942577153494997,0
3693,-0.022636075764168602,0
3694,-0.023262397121583994,0
3695,-0.02000795427057185,0
3696,-0.055409529971805045,0
3697,0.10320299546065104,0
3698,0.03271188141721556,0
3699,-0.04673526343660114,0
3700,0.42664657458354754,0
3701,4.174015123705673,0
3702,6.490452835345536,0
3703,-1.1668273896012493,0
3704,-1.286964306302884,0
3705,1.409041318818458,0
3706,-0.8085057729814985,0
3707,0.15393603421995755,0
3708,-0.04212387449826113,0
3709,-0.10004782219561936,0
3710,0.004284808829817455,0
3711,-0.08817533682393768,0
3712,0.028197330347593193,0
3713,-0.06628579251612625,0
3714,-0.057890678885382255,0
3715,0.06870030910278174,0
3716,3.4247672989059716e-05,0
3717,-0.002854352118242535,0
3718,-0.0009057623789760546,0
3719,-0.026140464218246673,0
3720,0.35799009795337144,0
3721,4.112391558470127,0
3722,6.457940808069057,0
3723,-1.2916001097183196,0
3724,-1.3817768131679198,0
3725,1.3215444732859596,0
3726,-0.7139340472573328,0
3727,0.1854583844632855,0
3728,-0.015360136205712138,0
3729,-0.019903535136937718,0
3730,0.008894674617349895,0
3731,0.015200203399987691,0
3732,-0.026372852653606668,0
3733,-0.025538577596322744,0
3734,0.09712835055332295,0
3735,0.012829743286371627,0
3736,0.02622401625939567,0
3737,0.07548543380863627,0
3738,0.05557196768181285,0
3739,0.04287895967743559,0
3740,0.30628009974767545,0
3741,4.153648522300205,0
3742,6.558939812936471,0
3743,-1.1920457632588999,0
3744,-1.190636812880383,0
3745,1.4058528364829272,0
3746,-0.7363615571641863,0
3747,0.22058893209178707,0
3748,0.002505960867729716,0
3749,-0.04203521990736587,0
3750,0.07888001756853348,0
3751,0.03831211118097729,0
3752,0.030307183921993837,0
3753,0.01693113253032305,0
3754,0.05582295509422826,0
3755,0.14279122096848426,0
3756,0.10493496700687392,0
3757,0.06265533102637888,0
3758,0.05487269486760453,0
3759,0.08272839381482223,0
3760,0.46181201173002856,0
3761,4.226639432389196,0
3762,6.587678776580962,0
3763,-1.1314511606427995,0
3764,-1.23446913587718,0
3765,1.4259571394115098,0
3766,-0.7764108905320926,0
3767,0.33951459794796046,0
3768,0.06375110303666678,0
3769,0.11198143574257374,0
3770,0.07672662799952194,0
3771,0.09190757619159012,0
3772,0.042070002972417975,0
3773,0.15609449126220876,0
3774,0.09407048619860262,0
3775,0.044355411758706415,0
3776,0.10422886911217237,0
3777,0.05446060880191005,0
3778,0.07227949840603007,0
3779,0.1017979235352384,0
3780,0.43849978328957345,0
3781,4.245335859316622,0
3782,6.659558611173788,0
3783,-1.1916275894578794,0
3784,-1.194231987220229,0
3785,1.419972909744973,0
3786,-0.7949389391389384,0
3787,0.25631836722753476,0
3788,0.061454551775010746,0
3789,0.05430706809634024,0
3790,0.06179173295145879,0
3791,0.050372331477364245,0
3792,0.1178680666008996,0
3793,0.11400570490625898,0
3794,0.0937810969887658,0
3795,0.04721513957006945,0
3796,0.08438509865446368,0
3797,0.0634470785070136,0
3798,0.12579056829763235,0
3799,0.14919668628631785,0
3800,0.44618939619084125,0
3801,4.294808548359133,0
3802,6.543240591873828,0
3803,-1.2272831095778056,0
3804,-1.3739641362656478,0
3805,1.456983963849719,0
3806,-0.776202317203838,0
3807,0.3138902118329077,0
3808,0.06971568224508254,0
3809,0.05723186497323085,0
3810,-0.0044163396438286345,0
3811,0.1462186310848875,0
3812,0.11570837963085213,0
3813,0.031977021406834887,0
3814,0.10815439502246929,0
3815,0.16395775794982975,0
3816,0.17512596464953145,0
3817,0.056914147985853814,0
3818,0.059608206714832676,0
3819,0.15532460546604665,0
3820,0.4818792084925175,0
3821,4.227296751550252,0
3822,6.57920244697008,0
3823,-1.2024884416308363,0
3824,-1.2301081411501962,0
3825,1.5003007816788825,0
3826,-0.7373168337369248,0
3827,0.27597162952597526,0
3828,0.028302414171624483,0
3829,0.029605517182831637,0
3830,0.09411454569336349,0
3831,0.0556940062869464,0
3832,0.011508329112455098,0
3833,-0.014022018411376541,0
3834,0.12112326056571851,0
3835,0.009169141029619812,0
3836,0.06814750085811075,0
3837,0.07176813384953634,0
3838,0.16466790127313385,0
3839,0.09889614106152049,0
3840,0.47048786595437175,0
3841,4.2389534260483925,0
3842,6.484384082114055,0
3843,-1.1900213068303427,0
3844,-1.2845069130257094,0
3845,1.5323922101532867,0
3846,-0.6827521388239908,0
3847,0.28694279203784506,0
3848,0.07110195744097336,0
3849,0.047547100904962517,0
3850,0.046939964364549024,0
3851,0.07089476407743657,0
3852,0.09584849794206554,0
3853,0.17422673560271956,0
3854,-0.009561995894519046,0
3855,0.17677495607070398,0
3856,0.0396755825876155,0
3857,0.11829714903684554,0
3858,0.10686275861193409,0
3859,0.03565680648835688,0
3860,0.4803081080160564,0
3861,4.228326623381942,0
3862,6.576687449829487,0
3863,-1.1767738789842697,0
3864,-1.2549582357595028,0
3865,1.4705545711786983,0
3866,-0.6972102506437347,0
3867,0.24594288817605559,0
3868,0.0261319688709293,0
3869,0.057942637264188385,0
3870,0.09021380866554408,0
3871,0.10423866028362364,0
3872,0.053051987230924,0
3873,0.09906137779950736,0
3874,0.07271342459153261,0
3875,-0.0029454262944165685,0
3876,-0.029070643047187636,0
3877,-0.0022186890601257475,0
3878,0.07519416559305192,0
3879,0.0026225559363428075,0
3880,0.5384653054547766,0
3881,4.245280732791413,0
3882,6.480785633084647,0
3883,-1.2048031960452843,0
3884,-1.1764120822395803,0
3885,1.4055662166016811,0
3886,-0.728951179554113,0
3887,0.27329789943597654,0
3888,0.01647445595426186,0
3889,-0.0180750409267784,0
3890,-0.06479234934389515,0
3891,0.01618202548695967,0
3892,0.06073837810227503,0
3893,0.09708536396589329,0
3894,0.0497784234343077,0
3895,0.0018994567601884824,0
3896,0.058518028929534914,0
3897,0.11016669696182929,0
3898,0.04637948506199885,0
3899,-0.054951338678051215,0
3900,0.4424702964613165,0
3901,4.189204947964555,0
3902,6.534976568894434,0
3903,-1.3356424058814906,0
3904,-1.3403414495696002,0
3905,1.2939771279666847,0
3906,-0.8122676782313742,0
3907,0.2000853717926105,0
3908,-0.03156115400880486,0
3909,0.04953762976662526,0
3910,-0.05830258522881896,0
3911,-0.007410110128144199,0
3912,0.13899155268566718,0
3913,-0.04056377920058915,0
3914,-0.05372798500673395,0
3915,0.03845857171560997,0
3916,-0.05440535034130409,0
3917,-0.09777628784007356,0
3918,-0.014601710503498006,0
3919,0.05826140442750624,0
3920,0.4035204948542298,0
3921,4.19898885636485,0
3922,6.571799429823803,0
3923,-1.3584129081740055,0
3924,-1.3409162332515272,0
3925,1.483976453522984,0
3926,-0.8151929895563244,0
3927,0.29776670026083807,0
3928,-0.08328651108912638,0
3929,-0.07270966018705888,0
3930,-0.03874111473098128,0
3931,-0.09184450351669551,0
3932,-0.05536279265340706,0
3933,-0.05514513041651884,0
3934,-0.034505800108819235,0
3935,-0.004171398581603104,0
3936,-0.021228787248778466,0
3937,-0.04192953596750485,0
3938,0.04530775859735683,0
3939,-0.04969007546122116,0
3940,0.4131315007956438,0
3941,4.130970368115361,0
3942,6.4155264968705845,0
3943,-1.339131746605579,0
3944,-1.425986080038203,0
3945,1.2878523298209368,0
3946,-0.8230633068628965,0
3947,0.15737711051399575,0
3948,-0.1312187017525955,0
3949,-0.09918460250894534,0
3950,-0.10141951248674032,0
3951,-0.03850385857778422,0
3952,-0.0916953534846457,0
3953,-0.031215704035788223,0
3954,-0.10541930602882824,0
3955,-0.021204034703729488,0
3956,-0.06615479265946982,0
3957,-0.09835719533999446,0
3958,-0.05635405682671653,0
3959,0.017168240318136754,0
3960,0.52150130454345,0
3961,4.245871314447842,0
3962,6.503708928358373,0
3963,-1.3186385104816385,0
3964,-1.3281735944979831,0
3965,1.3800527201302468,0
3966,-0.8938259076128771,0
3967,0.2599837696574713,0
3968,-0.13953997814695784,0
3969,-0.025971368900779418,0
3970,0.026213521997944987,0
3971,-0.05660184251148334,0
3972,-0.02963269575605828,0
3973,-0.17258115490911996,0
3974,-0.008059669274316138,0
3975,0.04393655523911489,0
3976,-0.0334700355998271,0
3977,-0.07874110514511401,0
3978,0.02398356440105287,0
3979,-0.11954396925195804,0
3980,0.5217546842502923,0
3981,4.187694892221984,0
3982,6.452211797266913,0
3983,-1.314363849441999,0
3984,-1.327993781587682,0
3985,1.3330236653304317,0
3986,-0.8588032376639373,0
3987,0.12004728142257924,0
3988,-0.08337388117810113,0
3989,-0.12971377036303489,0
3990,-0.13996630512079125,0
3991,-0.11123661292599157,0
3992,-0.1402224898067127,0
3993,-0.09952828730702883,0
3994,-0.13179095992951786,0
3995,-0.10080024239654431,0
3996,-0.0643463488493769,0
3997,-0.03410377569762103,0
3998,-0.16904966209662686,0
3999,-0.05184488521270066,0
4000,0.3637012394949337,0
4001,4.1051950393982475,0
4002,6.442018375945361,0
4003,-1.3520933327196465,0
4004,-1.2744134487258307,0
4005,1.3408064294614483,0
4006,-0.8151651210830314,0
4007,0.2751614994417525,0
4008,-0.0561708879113293,0
4009,0.008161728643099303,0
4010,0.013668720108808376,0
4011,0.05632024005104824,0
4012,0.05881051965327053,0
4013,-0.08099168816120353,0
4014,-0.06359687499802325,0
4015,-0.01713311374941986,0
4016,-0.039012506095696564,0
4017,-0.021601302277652674,0
4018,-0.06111584010461024,0
4019,-0.03842322791630021,0
4020,0.445107936852317,0
4021,4.1790852824891775,0
4022,6.478533260407108,0
4023,-1.3001430900313722,0
4024,-1.2077860028835585,0
4025,1.3793033297568156,0
4026,-0.7396539140467617,0
4027,0.13769714566461744,0
4028,-0.056080725040094426,0
4029,0.004219373143631501,0
4030,0.03848982113715527,0
4031,-0.013649843071043824,0
4032,-0.001872116100565432,0
4033,0.04359589957508673,0
4034,-0.0008980847686627172,0
4035,-0.0981459503842321,0
4036,-0.05626541497083959,0
4037,-0.09428268393533717,0
4038,0.007246315941812784,0
4039,0.054936667660495125,0
4040,0.3150531838305057,0
4041,4.1529391065402725,0
4042,6.555793345140702,0
4043,-1.4106645356670173,0
4044,-1.3163150004760948,0
4045,1.2859559265047882,0
4046,-0.8074896212638615,0
4047,0.17934642083313773,0
4048,-0.047243236141085804,0
4049,-0.08194758576563758,0
4050,-0.04995109165507529,0
4051,-0.04975690912022614,0
4052,0.025056730868959414,0
4053,0.06703040436345584,0
4054,-0.024160629754045298,0
4055,-0.07034219666993956,0
4056,-0.030412845306842587,0
4057,-0.05742071990415883,0
4058,0.029074789680030938,0
4059,0.05061340293655739,0
4060,0.48863461772920763,0
4061,4.188448442516214,0
4062,6.420786947584086,0
4063,-1.3167631160005557,0
4064,-1.3269892413719022,0
4065,1.3574829564045834,0
4066,-0.8151480502550954,0
4067,0.34539545996773524,0
4068,-0.07834771232330347,0
4069,-0.05475968947163856,0
4070,-0.031195149154220253,0
4071,-0.12202021711127649,0
4072,-0.06125201190367721,0
4073,-0.009802121709856473,0
4074,-0.0922517207422552,0
4075,-0.0625566728493592,0
4076,0.022441811024950888,0
4077,0.03399743022986039,0
4078,-0.021164263315759324,0
4079,-0.06358783783019371,0
4080,0.323171236075419,0
4081,4.092775663823349,0
4082,6.4267175743199685,0
4083,-1.2555790532889215,0
4084,-1.3462559005386225,0
4085,1.3681748767498476,0
4086,-0.7563353703091579,0
4087,0.22981379781511416,0
4088,-0.008620620425772324,0
4089,0.11021663624884198,0
4090,0.17802319132614883,0
4091,0.02841256962013971,0
4092,0.05559305786989815,0
4093,0.04730010490616151,0
4094,0.13111877445003547,0
4095,0.07858923866636412,0
4096,0.1322772483064373,0
4097,0.10459269475835334,0
4098,0.11857764153480808,0
4099,0.12291716062389613,0
4100,0.5251120684901285,0
4101,4.229704958537833,0
4102,6.519902622267893,0
4103,-1.2927039088540964,0
4104,-1.138506556038661,0
4105,1.400439352714018,0
4106,-0.7450389250780464,0
4107,0.29358960958207836,0
4108,-0.07688096397803551,0
4109,0.054501401072668224,0
4110,0.0809881548917522,0
4111,0.06747526516820544,0
4112,0.05966099165194311,0
4113,0.008979458174293468,0
4114,0.08938238261956906,0
4115,-0.0012812582813958445,0
4116,-0.011306679608971741,0
4117,0.019803118483350535,0
4118,-0.032909118025478114,0
4119,0.02429544560874872,0
4120,0.49716252165361496,0
4121,4.224371600686113,0
4122,6.425027286069992,0
4123,-1.2853273439973887,0
4124,-1.1910049664485345,0
4125,1.3347988374479223,0
4126,-0.7438329006478778,0
4127,0.25623848178153574,0
4128,-0.03601252536073356,0
4129,-0.04097620593929589,0
4130,0.10883498643702964,0
4131,0.01507624465622026,0
4132,0.01728683911297843,0
4133,0.0175209806034417,0
4134,-0.01809237891486547,0
4135,-0.051511608656932925,0
4136,0.06832813303585683,0
4137,0.045000715824460295,0
4138,0.09389472348613301,0
4139,0.08532525652803535,0
4140,0.5589074906203,0
4141,4.308809400641686,0
4142,6.535356338687211,0
4143,-1.2396364936724615,0
4144,-1.1683111348028468,0
4145,1.4764299474304168,0
4146,-0.7348181085486176,0
4147,0.2914311569981321,0
4148,-0.07335758668310458,0
4149,-0.010634412231992348,0
4150,-0.09061368330311936,0
4151,-0.09472054224118201,0
4152,-0.023733425406771556,0
4153,-0.16432993529862314,0
4154,0.04059963620462921,0
4155,-0.07318560327336165,0
4156,-0.04004447103736661,0
4157,-0.02542896252270696,0
4158,0.007955508800564615,0
4159,-0.05375836134176408,0
4160,0.504883039088349,0
4161,4.282447560454599,0
4162,6.490756692891683,0
4163,-1.2300755510468822,0
4164,-1.1443716150671932,0
4165,1.4674914466832432,0
4166,-0.711663031467117,0
4167,0.2705633063113369,0
4168,0.030276448988715794,0
4169,0.04268704005210089,0
4170,1.59429375307385e-05,0
4171,-0.057208930487596066,0
4172,0.06227497950491357,0
4173,0.02903994122755564,0
4174,0.052067283955305556,0
4175,0.0068010150158236415,0
4176,-0.026144791054809456,0
4177,0.05881159714479295,0
4178,0.13133670419492233,0
4179,0.0780172719417831,0
4180,0.46835368410528444,0
4181,4.320245870091234,0
4182,6.614472842299319,0
4183,-1.2754790816264892,0
4184,-1.1281341844356747,0
4185,1.4483470497702997,0
4186,-0.6663697455830835,0
4187,0.20019592075623585,0
4188,-0.010604793008254232,0
4189,-0.00767134232093648,0
4190,0.048280039782520434,0
4191,0.07299331240929169,0
4192,0.08956597452687616,0
4193,0.0605302380701825,0
4194,0.05138234556019169,0
4195,0.007830477465670314,0
4196,-0.05620022577709931,0
4197,0.011605370989799807,0
4198,0.05068170551757588,0
4199,0.06694999511164114,0
4200,0.42356332916785167,0
4201,4.265306272131858,0
4202,6.543035210191477,0
4203,-1.3182447656584224,0
4204,-1.1375141526546713,0
4205,1.3744416662257986,0
4206,-0.7904449117650548,0
4207,0.3369605733110228,0
4208,-0.0280074398422786,0
4209,0.045560463627859635,0
4210,0.10432238683753811,0
4211,0.0310710299830758,0
4212,0.07680774118669823,0
4213,0.14592389191653576,0
4214,0.1039306701570025,0
4215,0.05199730590294595,0
4216,0.02280747381709906,0
4217,0.05465578763482392,0
4218,0.003596019164687367,0
4219,0.05930786784818126,0
4220,0.5719733978911314,0
4221,4.235967755662973,0
4222,6.550648343917481,0
4223,-1.3956006990056906,0
4224,-1.269488209522272,0
4225,1.3824841030442256,0
4226,-0.8714904794785285,0
4227,0.12513607391117115,0
4228,-0.027890842095161072,0
4229,0.06649526598100972,0
4230,-0.01468656165338738,0
4231,-0.027909101048500844,0
4232,-0.04003715308935608,0
4233,-0.09090251686212639,0
4234,0.019857375246586824,0
4235,0.04216743941758157,0
4236,-0.06087397111307637,0
4237,0.011171041663374463,0
4238,-0.012528778803952404,0
4239,-0.03214778516149894,0
4240,0.4304446246237334,0
4241,4.235857137577432,0
4242,6.475113362586678,0
4243,-1.4102969504446692,0
4244,-1.1389501583029953,0
4245,1.4238690748917036,0
4246,-0.7260690171210582,0
4247,0.24478203346527636,0
4248,0.057347354952989676,0
4249,0.01719797922188253,0
4250,-0.011041867124922902,0
4251,0.01518139787322044,0
4252,0.07688045041973537,0
4253,0.02847641158875153,0
4254,0.03557504128367281,0
4255,-0.0002612146084679731,0
4256,0.06284958229742417,0
4257,0.08672223365755166,0
4258,0.034394905741270715,0
4259,0.031104973438311645,0
4260,0.4765590393213075,0
4261,4.321578188356598,0
4262,6.450105018389428,0
4263,-1.310696657312997,0
4264,-1.1964637486308582,0
4265,1.3854321666562648,0
4266,-0.7151377785083078,0
4267,0.3075261892976169,0
4268,0.016165613818762872,0
4269,-0.0074050248624264944,0
4270,0.05862236368665573,0
4271,0.03506202365487767,0
4272,0.08746703025790972,0
4273,0.051541641934184965,0
4274,0.05811056179228676,0
4275,0.07971529722705616,0
4276,-0.06304967679157164,0
4277,-0.036607702347556434,0
4278,-0.005517516578066352,0
4279,0.034553750240085036,0
4280,0.591901035608069,1
4281,3.9096876908954163,1
4282,6.243859519916649,1
4283,-1.1448571889335677,1
4284,-1.0015279265781014,1
4285,1.6626845510837849,1
4286,-1.054427584965382,1
4287,0.5235924872496136,1
4288,-0.2506469094058893,1
4289,0.3140092879712917,1
4290,0.3279087248422497,1
4291,0.022067520734036963,1
4292,-0.3209046325051161,1
4293,0.3515767010803121,1
4294,0.13707163557366353,1
4295,-0.2802052099133119,1
4296,-0.5404898380756146,1
4297,-0.19448021276983193,1
4298,-0.1805154994929008,1
4299,0.3182122772795847,1
4300,0.591490544920748,1
4301,4.624562813833301,1
4302,5.929929470619728,1
4303,-1.0481771918359906,1
4304,-1.0426361826624142,1
4305,1.5334545839063665,1
4306,-1.2308138088652822,1
4307,0.5121890816317352,1
4308,0.44118750264825995,1
4309,-0.3072996488526398,1
4310,-0.18347801299156902,1
4311,-0.19643384529359004,1
4312,0.19746396734064556,1
4313,-0.5219039027153733,1
4314,-0.10758897681682353,1
4315,-0.3113286048545657,1
4316,-0.1606114229666784,1
4317,0.0631318659765202,1
4318,-0.8896654393561386,1
4319,-0.03521254627322821,1
4320,0.8814736573423088,1
4321,4.605334838780242,1
4322,6.37003826715333,1
4323,-1.8030134427528737,1
4324,-1.2987654560335944,1
4325,1.1893158341840937,1
4326,-1.1146610767870753,1
4327,0.19263214330502065,1
4328,-0.39933361344161955,1
4329,-0.25328162345725763,1
4330,-0.04507542833271672,1
4331,0.04091590664686387,1
4332,-0.2939455134358499,1
4333,-0.06562798682268264,1
4334,-0.0062410937126915495,1
4335,0.03096007509453867,1
4336,-0.23300380733262704,1
4337,0.08056389779759306,1
4338,-0.4776282378614158,1
4339,0.18829085883473576,1
4340,0.6809583435110546,1
4341,4.156888209682709,1
4342,6.332194017612749,1
4343,-1.5375351639441888,1
4344,-1.5097320687450897,1
4345,1.4363803150564094,1
4346,-0.85825764987288,1
4347,0.07425013446186512,1
4348,-0.6219219619829741,1
4349,-0.06592351803802757,1
4350,-0.22774968967600365,1
4351,-0.3309836149100534,1
4352,0.29064454593540884,1
4353,-0.14248724898066678,1
4354,-0.09019564200622648,1
4355,-0.06401256659555438,1
4356,-0.22975619450745427,1
4357,-0.11871998589566667,1
4358,-0.020895532419970022,1
4359,0.163187816471778,1
4360,0.04269215025149853,1
4361,4.264445096979506,1
4362,6.676224483581936,1
4363,-1.2388747559965247,1
4364,-1.0389422863331714,1
4365,0.9370801469938042,1
4366,-0.8116014330820133,1
4367,0.105923667508558,1
4368,-0.2928699689351335,1
4369,-0.2492676358097638,1
4370,0.3977235819879726,1
4371,-0.09229631160679169,1
4372,0.0020468056588010073,1
4373,-0.5404191028305674,1
4374,-0.009487643435371427,1
4375,-0.19522886989483768,1
4376,0.605216476968271,1
4377,-0.4037782336697946,1
4378,-0.19580445895727336,1
4379,0.08236057518641085,1
4380,0.42164982862090683,0
4381,4.276098804398093,0
4382,6.376360741967087,0
4383,-1.4401762675863397,0
4384,-1.2676838226107385,0
4385,1.3354098160057966,0
4386,-0.9121429316777661,0
4387,0.24699790832993368,0
4388,-0.20516257829752949,0
4389,-0.1594323550196265,0
4390,0.03908076596840138,0
4391,9.597559703159592e-05,0
4392,-0.05264787404366132,0
4393,0.051500022327076525,0
4394,-0.06850744206657204,0
4395,-0.02860713264291208,0
4396,0.017734809313376704,0
4397,-0.06403181063007429,0
4398,0.0010579206562712669,0
4399,0.0070650243849954275,0
4400,0.49435346773761335,0
4401,4.222100101560959,0
4402,6.473490937558423,0
4403,-1.4087622450415207,0
4404,-1.196989044710887,0
4405,1.3109667743071673,0
4406,-0.8738800558396452,0
4407,0.2507793976872237,0
4408,-0.01746167954970168,0
4409,0.03430233176088356,0
4410,-0.003843828524785365,0
4411,0.007004247646815169,0
4412,-0.09243934077588169,0
4413,-0.03263699109449716,0
4414,0.035189428387400676,0
4415,-0.03990818211954765,0
4416,-0.060483219394486115,0
4417,0.0519465801486539,0
4418,-0.04512789256272745,0
4419,-0.006176628077555077,0
4420,0.3883544224442811,0
4421,4.266701802058992,0
4422,6.4625825194740925,0
4423,-1.4294191778985572,0
4424,-1.2370059144213281,0
4425,1.3015878705728634,0
4426,-0.8311026686494144,0
4427,0.21084232052663765,0
4428,-0.05859155759363378,0
4429,0.05138476081161841,0
4430,-0.004079108142259589,0
4431,0.010878842000043059,0
4432,0.06149165175167645,0
4433,0.01835235341060645,0
4434,-0.028409368172517657,0
4435,-0.04292869375344398,0
4436,0.02942751413990098,0
4437,-0.07053278461845702,0
4438,-0.07303147814339286,0
4439,-0.10919740983551679,0
4440,0.37335838728909265,0
4441,4.223986724571901,0
4442,6.335191095207258,0
4443,-1.412380118509503,0
4444,-1.3578464244084931,0
4445,1.2903583278876876,0
4446,-0.7462502637645079,0
4447,0.2382856767200719,0
4448,0.0001586628035626092,0
4449,-0.10070546577746253,0
