timestamp,value-0,is_anomaly
0,0.29554870148024076,0.0
1,3.688228801352639,0.0
2,7.011577857840913,0.0
3,-0.20191992063469233,0.0
4,-1.9451120100590025,0.0
5,1.5737550324741136,0.0
6,-0.7056974134618452,0.0
7,0.17435092283285059,0.0
8,0.051499476351374175,0.0
9,-0.029818759273171846,0.0
10,-0.010409848172768847,0.0
11,0.01329538081242582,0.0
12,0.019952958567114383,0.0
13,0.07592222503253601,0.0
14,-0.06400523541641716,0.0
15,-0.016861954780243688,0.0
16,-0.012219297849845247,0.0
17,-0.029770339646105808,0.0
18,0.09446335568614567,0.0
19,0.06128948620995683,0.0
20,0.24718847688121365,0.0
21,3.571201400698868,0.0
22,6.940235527225713,0.0
23,-0.256860946124006,0.0
24,-1.9229374386414886,0.0
25,1.5406276607856881,0.0
26,-0.6918158829306392,0.0
27,0.2339383800958583,0.0
28,0.04156384871932945,0.0
29,-0.059717620330202184,0.0
30,0.14219471748494267,0.0
31,-0.06953283204447738,0.0
32,0.05646925257338704,0.0
33,-0.057002494475559426,0.0
34,-0.05657740099778511,0.0
35,0.006741044893810338,0.0
36,-0.031159580365874483,0.0
37,-0.01707854724436055,0.0
38,-0.010447011880179284,0.0
39,-0.027876572079159008,0.0
40,0.24696349382742283,0.0
41,3.4042211608418245,0.0
42,6.802631559042834,0.0
43,-0.2519908356743198,0.0
44,-1.9904318085482782,0.0
45,1.7364008387103638,0.0
46,-0.7654524209558192,0.0
47,0.07447227909747944,0.0
48,0.021754325796878478,0.0
49,-0.07853144762447259,0.0
50,0.05132983922061044,0.0
51,-0.006296660320768386,0.0
52,-0.08438007819641781,0.0
53,-0.07705858366672441,0.0
54,-0.10191538479143712,0.0
55,0.006343922353694598,0.0
56,-0.007475106280256404,0.0
57,-0.01865487023645941,0.0
58,0.09890843325655872,0.0
59,0.07349237802499023,0.0
60,0.23163887579186138,0.0
61,3.5233654927692197,0.0
62,6.93928680805399,0.0
63,-0.23628723437817198,0.0
64,-1.915617373058222,0.0
65,1.5547614397927507,0.0
66,-0.7060666760646095,0.0
67,0.17128317860585052,0.0
68,0.0459557981251641,0.0
69,0.013770031074835404,0.0
70,0.07510062515208507,0.0
71,-0.003973549662559802,0.0
72,0.02236676873837061,0.0
73,0.003959304462310333,0.0
74,-0.0037471179386407635,0.0
75,0.0602897607586099,0.0
76,-0.03830360473391091,0.0
77,-0.024211907170604296,0.0
78,0.019101496383024653,0.0
79,0.11992259295407837,0.0
80,0.36086245313932686,0.0
81,3.541722553184017,0.0
82,6.83280779046347,0.0
83,-0.26209368605173283,0.0
84,-1.9398262663040196,0.0
85,1.5475351548532152,0.0
86,-0.5953929384220792,0.0
87,0.12972075686574985,0.0
88,0.016754899591353227,0.0
89,-0.10696682205988055,0.0
90,-0.044254889633734563,0.0
91,-0.0023961993455800766,0.0
92,0.06442298510675849,0.0
93,0.001463647740077429,0.0
94,0.024042106216350743,0.0
95,-0.04007874060490379,0.0
96,0.07721994328987537,0.0
97,0.05013653016446606,0.0
98,-0.06265151863532031,0.0
99,0.036809832594717,0.0
100,0.26625682458989464,0.0
101,3.545000290991267,0.0
102,6.895310834883511,0.0
103,-0.28345486613868126,0.0
104,-1.9244311165276708,0.0
105,1.5843345635890655,0.0
106,-0.683865804791388,0.0
107,0.1352631418324278,0.0
108,0.03925465956491708,0.0
109,-0.12465826799658605,0.0
110,0.11957947382791434,0.0
111,-0.015693430912540652,0.0
112,0.03957482355641119,0.0
113,-0.023877195500999406,0.0
114,-0.07031055793552461,0.0
115,0.005733646753722758,0.0
116,-0.10389826692038401,0.0
117,-0.08132663199564973,0.0
118,-0.0016919296807715485,0.0
119,-0.026339093525884018,0.0
120,0.19156038430052563,0.0
121,3.503003490540649,0.0
122,6.823606092473436,0.0
123,-0.32440822664424324,0.0
124,-1.9629257382568412,0.0
125,1.6342777678933733,0.0
126,-0.8184660921499817,0.0
127,0.10952136518293143,0.0
128,-0.08005887091068664,0.0
129,-0.15843296015503566,0.0
130,-0.04101204457167655,0.0
131,-0.01427474882244869,0.0
132,0.03257768770295502,0.0
133,-0.052102609745743204,0.0
134,0.044546721954430456,0.0
135,0.007703770590592848,0.0
136,0.024676517550245865,0.0
137,0.0008530765708331754,0.0
138,-0.03674112415141306,0.0
139,-0.03767472988879679,0.0
140,0.24184019687847005,0.0
141,3.462894924134675,0.0
142,6.837209140747499,0.0
143,-0.26848447188409463,0.0
144,-1.9681994311887705,0.0
145,1.5605260001383334,0.0
146,-0.654417349842465,0.0
147,0.1921369237356072,0.0
148,0.044726298479493706,0.0
149,-0.0425572241828001,0.0
150,0.10627739418320432,0.0
151,-0.05080607083981832,0.0
152,-0.02458657125747866,0.0
153,0.06561508811161984,0.0
154,-0.016177254833748773,0.0
155,0.06571738883600148,0.0
156,-0.0038331131794270496,0.0
157,0.05852506485872183,0.0
158,0.007803537555449761,0.0
159,0.027420992147640294,0.0
160,0.21051105195797332,0.0
161,3.5380044124738537,0.0
162,6.877477302495457,0.0
163,-0.35765572632391573,0.0
164,-1.9848203598252498,0.0
165,1.4896842406453885,0.0
166,-0.6510808083799473,0.0
167,0.0719210141800281,0.0
168,0.05607137647871792,0.0
169,0.016043327943120606,0.0
170,-0.004029914516186386,0.0
171,-0.09539645421565045,0.0
172,-0.016358184837775513,0.0
173,0.011971535169777274,0.0
174,-0.005306874744794375,0.0
175,-0.005375201685096829,0.0
176,-0.05126600419045105,0.0
177,0.014223216075040065,0.0
178,0.025025332678914842,0.0
179,0.004310370464252041,0.0
180,0.222477992565652,0.0
181,3.4551917039231794,0.0
182,6.854266161471729,0.0
183,-0.3177095926922438,0.0
184,-1.8902725674415368,0.0
185,1.5022264531711544,0.0
186,-0.7181449208855638,0.0
187,0.11557640557390274,0.0
188,0.09054701932321758,0.0
189,-0.10066278124682693,0.0
190,0.006305798446303187,0.0
191,-0.06371679877429107,0.0
192,-0.046956329346731274,0.0
193,-0.009585135003375274,0.0
194,-0.035621448453906836,0.0
195,-0.09136565813265445,0.0
196,-0.00715071626951203,0.0
197,-0.04687033067464039,0.0
198,-0.013030288910452971,0.0
199,0.007745140687265381,0.0
200,0.26279098804693946,0.0
201,3.4531682904406895,0.0
202,6.9587690736508545,0.0
203,-0.2969830216573731,0.0
204,-1.973494617327611,0.0
205,1.4090689641811343,0.0
206,-0.8145802585830213,0.0
207,0.02630384240642173,0.0
208,0.0339684719139123,0.0
209,-0.12015265471524253,0.0
210,-0.09272577602585973,0.0
211,-0.11526976812883709,0.0
212,-0.11105163388322421,0.0
213,-0.011931149038997793,0.0
214,-0.06733244320865894,0.0
215,-0.09297924273882222,0.0
216,-0.03386515192068247,0.0
217,-0.03135440522033278,0.0
218,-0.0002938884952728704,0.0
219,-0.07544610052256584,0.0
220,0.21789717097250788,0.0
221,3.454966653332535,0.0
222,6.898915583507813,0.0
223,-0.35874333178224865,0.0
224,-1.9456447740207583,0.0
225,1.518468757449301,0.0
226,-0.7067062644062361,0.0
227,0.13606713307060633,0.0
228,0.04858728802974055,0.0
229,-0.08457484082205917,0.0
230,-0.012343382769147789,0.0
231,-0.016210853387577953,0.0
232,-0.11132101207186847,0.0
233,-0.023623973321522867,0.0
234,-0.016751397487611237,0.0
235,0.02478096289743137,0.0
236,-0.12613689823762242,0.0
237,-0.07988277166868492,0.0
238,-0.004275664481879257,0.0
239,-0.08815559268247464,0.0
240,0.2728852668128094,0.0
241,3.551457230773646,0.0
242,6.922575550891045,0.0
243,-0.4619170337958284,0.0
244,-2.00218784012984,0.0
245,1.6077822188388562,0.0
246,-0.6876461612543716,0.0
247,0.11005830953109774,0.0
248,0.08334699423103911,0.0
249,-0.1432865420651375,0.0
250,0.009557823708959067,0.0
251,-0.04686508122522821,0.0
252,0.0213029069430693,0.0
253,-0.06728201303938158,0.0
254,-0.014364492922802353,0.0
255,0.02124031226970354,0.0
256,0.04167110497730893,0.0
257,-0.10553753362070108,0.0
258,0.006159546240814535,0.0
259,0.020028277468770853,0.0
260,0.1718646849085932,0.0
261,3.572302432164552,0.0
262,6.90954131774166,0.0
263,-0.361495035683399,0.0
264,-2.0224687996816963,0.0
265,1.5460453134096312,0.0
266,-0.7454440268153782,0.0
267,0.020945861530283966,0.0
268,0.019425923860511958,0.0
269,0.018283864650563544,0.0
270,0.046935121307901666,0.0
271,-0.05334736921491359,0.0
272,0.010606086452293415,0.0
273,-0.03197413265431547,0.0
274,-0.13184252322998635,0.0
275,-0.04100706079376509,0.0
276,0.04463754939571536,0.0
277,0.011344615785611016,0.0
278,-0.01641571725629048,0.0
279,0.08897916412546894,0.0
280,0.2354772512124522,0.0
281,3.5005051480386955,0.0
282,6.705251930835274,0.0
283,-0.3389694424837917,0.0
284,-1.9429009287026124,0.0
285,1.5511882016985774,0.0
286,-0.6928529187551602,0.0
287,0.057641745093108966,0.0
288,0.08027087493019125,0.0
289,-0.11424908416938294,0.0
290,0.023024841018256265,0.0
291,-0.0003394038191366494,0.0
292,0.0656874530911267,0.0
293,-0.10771701761022344,0.0
294,-0.016184849128857003,0.0
295,-0.13235906303846456,0.0
296,0.053662657147207825,0.0
297,-0.013345808469731022,0.0
298,-0.10848242120653985,0.0
299,0.018952632975049583,0.0
300,0.26017327579453503,0.0
301,3.5208827257161857,0.0
302,6.805423696416687,0.0
303,-0.3409918902576323,0.0
304,-1.7734025644844211,0.0
305,1.5072896757904388,0.0
306,-0.7238590655931172,0.0
307,0.14674723130638012,0.0
308,0.03351113874837346,0.0
309,-0.12937434241827964,0.0
310,0.08505919754907769,0.0
311,-0.010825847873519007,0.0
312,0.012557577102402802,0.0
313,-0.03780053660223315,0.0
314,0.036789846370472945,0.0
315,-0.03975948558164468,0.0
316,-0.052452032973895,0.0
317,0.001967628247074058,0.0
318,-0.036867627444982634,0.0
319,0.08822817021629346,0.0
320,0.2261362892191161,0.0
321,3.4525915137417793,0.0
322,6.8112036964249745,0.0
323,-0.27649922342719185,0.0
324,-1.901728419813927,0.0
325,1.5139817009499836,0.0
326,-0.7337110651587534,0.0
327,0.2056371020259068,0.0
328,0.02766803110130988,0.0
329,-0.06455142847219432,0.0
330,-0.017119053273789063,0.0
331,-0.11703535398105731,0.0
332,-0.02013654229588869,0.0
333,0.021989137087212278,0.0
334,0.04733979541843533,0.0
335,-0.02744520094338097,0.0
336,0.03450211670393157,0.0
337,-0.10778218639079752,0.0
338,-0.006871070107805374,0.0
339,-0.021452100595588074,0.0
340,0.21791928110052539,0.0
341,3.5251915632483843,0.0
342,6.866035684061333,0.0
343,-0.3030860761299894,0.0
344,-1.8488059455495969,0.0
345,1.4920703158676967,0.0
346,-0.6820895398142389,0.0
347,0.2038208518828717,0.0
348,0.03082086915789039,0.0
349,-0.06384758649246186,0.0
350,0.06373758202229968,0.0
351,-0.03892479717186135,0.0
352,0.03459305930948136,0.0
353,-0.045787963389084516,0.0
354,0.03533221497352192,0.0
355,-0.05039656248484223,0.0
356,-0.09644779553912067,0.0
357,0.012105749851667978,0.0
358,0.1588560703494694,0.0
359,0.00041679780792985496,0.0
360,0.25030837542726825,0.0
361,3.515514913054658,0.0
362,6.9387228222269295,0.0
363,-0.28552960379470627,0.0
364,-1.8218380487897718,0.0
365,1.526721739116702,0.0
366,-0.8362807621138272,0.0
367,0.1611639591548443,0.0
368,0.0011804825684735912,0.0
369,0.025259282142018016,0.0
370,0.022509952014751363,0.0
371,0.018347041187664722,0.0
372,0.03705490544812879,0.0
373,-0.08205369105169626,0.0
374,-0.0018113667952069246,0.0
375,0.019410817483450468,0.0
376,0.0982687462338356,0.0
377,0.005907653647334352,0.0
378,-0.09747051151186499,0.0
379,-0.04607168362545298,0.0
380,0.2335694582378789,0.0
381,3.5818412476473025,0.0
382,6.860602181910585,0.0
383,-0.5136406973524178,0.0
384,-1.9325873972519132,0.0
385,1.5061774498674347,0.0
386,-0.6716078886164407,0.0
387,0.11193126856413906,0.0
388,0.014282219373686924,0.0
389,-0.08211900362760775,0.0
390,0.013061765265433352,0.0
391,0.11183125951570518,0.0
392,-0.03575242001417643,0.0
393,-0.00872698405448628,0.0
394,-0.06465455606520266,0.0
395,0.01590382483321551,0.0
396,0.14379854635313458,0.0
397,0.0668843929050292,0.0
398,0.05503962128506019,0.0
399,0.05311513829852574,0.0
400,0.2342827298111962,0.0
401,3.557679111489725,0.0
402,6.953407288199603,0.0
403,-0.36120634004694374,0.0
404,-1.89827737375069,0.0
405,1.541835785482915,0.0
406,-0.6752370062970603,0.0
407,0.20179537354582044,0.0
408,0.045684168048799205,0.0
409,-0.00031987157189562775,0.0
410,0.06237514635438177,0.0
411,0.051409265222391615,0.0
412,0.11118029106869515,0.0
413,0.0444260075234096,0.0
414,0.006744494380339958,0.0
415,0.07840710869658438,0.0
416,0.005586006773199356,0.0
417,-0.011028969320511766,0.0
418,-0.03918554848955995,0.0
419,0.03050399563996543,0.0
420,0.4373672498322804,0.0
421,3.506045950033891,0.0
422,6.851607879085723,0.0
423,-0.23195311109189187,0.0
424,-1.917958537747223,0.0
425,1.6063248968510104,0.0
426,-0.6145620763832902,0.0
427,0.23102723353152033,0.0
428,0.1095900758878107,0.0
429,0.06006380522713139,0.0
430,0.2691068765394006,0.0
431,0.15188465393020067,0.0
432,0.10260437328311807,0.0
433,0.09422977922843073,0.0
434,0.08966090754191357,0.0
435,0.15837206649833574,0.0
436,0.061683783513986665,0.0
437,0.09474098906386313,0.0
438,0.0012897680202855824,0.0
439,-0.042616507326980954,0.0
440,0.253279222959877,0.0
441,3.6400986337710965,0.0
442,6.957771544467702,0.0
443,-0.36927657197118535,0.0
444,-1.7982505685178949,0.0
445,1.5627239048431703,0.0
446,-0.6659660521968671,0.0
447,0.22757950220756468,0.0
448,0.10234019720772157,0.0
449,0.03820336665989717,0.0
450,0.0966484957800629,0.0
451,0.13151697274678556,0.0
452,0.09101702748384344,0.0
453,0.07405017900988108,0.0
454,0.03678109440036619,0.0
455,0.031079374588528504,0.0
456,0.01497123113288125,0.0
457,0.040042576356010856,0.0
458,0.007541615796856551,0.0
459,-0.00529759361136347,0.0
460,0.3508969698126912,0.0
461,3.629667209913932,0.0
462,6.8549121238789334,0.0
463,-0.2571141774021562,0.0
464,-1.8014900119923423,0.0
465,1.5791959677148013,0.0
466,-0.6793370275471521,0.0
467,0.32749166983895983,0.0
468,0.11807011408505985,0.0
469,-0.038622709705318316,0.0
470,0.15991921703355108,0.0
471,0.023831202293399564,0.0
472,0.09266903543378056,0.0
473,0.08794524326251846,0.0
474,-0.025194809082194375,0.0
475,0.13922211291252556,0.0
476,0.05789402752531764,0.0
477,0.0009126171391351384,0.0
478,0.04025799847718371,0.0
479,0.0010761330398123513,0.0
480,0.3395959246905346,0.0
481,3.5902373306989293,0.0
482,6.880816217325092,0.0
483,-0.4425537581034739,0.0
484,-1.8412779483991752,0.0
485,1.604308361611856,0.0
486,-0.7285560666764839,0.0
487,0.11017896119512022,0.0
488,-0.0165158733797696,0.0
489,-0.072136978640532,0.0
490,-0.0029652223257037374,0.0
491,-0.09000293679221819,0.0
492,0.00047275946792303507,0.0
493,-0.024652661679831236,0.0
494,-0.05106919793825627,0.0
495,-0.035658800119735656,0.0
496,0.03004355495562632,0.0
497,-0.010728464952677269,0.0
498,0.10163978140478078,0.0
499,-0.06727734731255547,0.0
500,0.3188024528120114,0.0
501,3.6024684300576393,0.0
502,6.814857330387046,0.0
503,-0.31330957519307134,0.0
504,-1.8142933451980665,0.0
505,1.4803043973716299,0.0
506,-0.7409099889391241,0.0
507,0.16134705752439485,0.0
508,0.0372231707531184,0.0
509,-0.06344619003374,0.0
510,0.03310205684365681,0.0
511,0.05072348647285627,0.0
512,-0.004906880598795663,0.0
513,0.10783625412163417,0.0
514,0.05970323873224994,0.0
515,0.04107498687297918,0.0
516,-0.018514086509094172,0.0
517,0.0373988599733515,0.0
518,0.16115583356975435,0.0
519,-0.014700627046031887,0.0
520,0.3312319911515625,0.0
521,3.599027192784672,0.0
522,6.874967153163652,0.0
523,-0.41418262372940895,0.0
524,-1.779605701376937,0.0
525,1.5478946979379544,0.0
526,-0.7334590900922678,0.0
527,0.19066461457726103,0.0
528,0.04815796100973302,0.0
529,-0.005088459064677541,0.0
530,0.003503938933949839,0.0
531,0.0007471058841222733,0.0
532,0.06845670318885867,0.0
533,0.06718030006111311,0.0
534,-0.02666924541023601,0.0
535,-0.06502425147550056,0.0
536,0.1429174624807179,0.0
537,0.019474528225842672,0.0
538,-0.03091774639408286,0.0
539,0.0834211874407629,0.0
540,0.26989109069789957,0.0
541,3.5467760017848757,0.0
542,6.870510400233199,0.0
543,-0.4216583697394477,0.0
544,-1.9686714704520272,0.0
545,1.470862580605083,0.0
546,-0.6560477498807009,0.0
547,0.12813142024801494,0.0
548,-0.0014666241986985296,0.0
549,-0.061556637015007215,0.0
550,0.1218485725889777,0.0
551,-0.018261118590749807,0.0
552,0.08188329885726964,0.0
553,0.00859490895363045,0.0
554,-0.020233804707782563,0.0
555,0.09267164754013227,0.0
556,-0.0003979868565896945,0.0
557,-0.015213326384581283,0.0
558,-0.014821199054652463,0.0
559,0.05270970073354089,0.0
560,0.3373683416445859,0.0
561,3.688114177819855,0.0
562,6.7784444914487665,0.0
563,-0.42064247317609377,0.0
564,-1.7451276880573494,0.0
565,1.5921237938055965,0.0
566,-0.7710934509185345,0.0
567,0.11323535240463634,0.0
568,0.09728302869996504,0.0
569,0.008501923663278496,0.0
570,0.06122522469573468,0.0
571,0.05844018867153537,0.0
572,0.01470326426149865,0.0
573,0.036525540084565995,0.0
574,0.13022846031671256,0.0
575,0.050846932026123295,0.0
576,-0.04226675742524849,0.0
577,0.043377946943121276,0.0
578,0.08995276136673774,0.0
579,0.013972945872078847,0.0
580,0.3000848763052197,0.0
581,3.6028431007173167,0.0
582,6.90663099813125,0.0
583,-0.37666646221454503,0.0
584,-1.7921600278038197,0.0
585,1.6127926960045962,0.0
586,-0.6959209469414049,0.0
587,0.1944898603628242,0.0
588,0.05944623844106599,0.0
589,-0.08424304625421367,0.0
590,0.03326103072628782,0.0
591,-0.026205042865780508,0.0
592,-0.07031456936474721,0.0
593,-0.002921403566165655,0.0
594,0.025245110238911142,0.0
595,-0.047008231264741865,0.0
596,0.02863269387278363,0.0
597,-0.09335360369406999,0.0
598,0.04570340980561288,0.0
599,-0.04990351347352834,0.0
600,0.29648163759599916,0.0
601,3.6701900599616337,0.0
602,6.884593668651721,0.0
603,-0.41109723478691756,0.0
604,-1.8218785280059124,0.0
605,1.616422134761363,0.0
606,-0.685127522303465,0.0
607,0.2041217221474539,0.0
608,0.04018049061054996,0.0
609,0.027758347462949577,0.0
610,0.12173510151396652,0.0
611,0.02359916579716064,0.0
612,0.00021788236169161326,0.0
613,0.06554496023600045,0.0
614,0.020606607926130605,0.0
615,0.10924715634854396,0.0
616,-0.053427759353504245,0.0
617,-0.06078336104366303,0.0
618,0.0052215822877360145,0.0
619,-0.004078540433221492,0.0
620,0.2732059864447106,0.0
621,3.6709026362618946,0.0
622,6.827987936308087,0.0
623,-0.396542589899006,0.0
624,-1.8283217506958063,0.0
625,1.6028699072767458,0.0
626,-0.69698369112974,0.0
627,0.1566046733549777,0.0
628,-0.010849328797191828,0.0
629,-0.10035476024071563,0.0
630,0.042006836680601456,0.0
631,0.034713758241113335,0.0
632,0.03218092668935669,0.0
633,-0.006139096202226862,0.0
634,-0.02416577633753402,0.0
635,0.008262667564357076,0.0
636,0.06671496759582086,0.0
637,-0.015620787236806061,0.0
638,0.06967286633816779,0.0
639,0.08486058679010539,0.0
640,0.3148695221660317,0.0
641,3.7182520178066802,0.0
642,6.872837320200805,0.0
643,-0.4169056096777541,0.0
644,-1.8462942563075777,0.0
645,1.5296549099450225,0.0
646,-0.697101639427919,0.0
647,0.0997115040906376,0.0
648,-0.04543493372647624,0.0
649,-0.11476220108008903,0.0
650,0.053665855791652006,0.0
651,-0.04835622620824419,0.0
652,0.017869970408257285,0.0
653,0.10560507522907212,0.0
654,0.03916550292618316,0.0
655,0.08476811632858683,0.0
656,0.05793288135499615,0.0
657,0.007298314626920878,0.0
658,0.0005829503737526665,0.0
659,0.01687758495198163,0.0
660,0.3143369998464679,0.0
661,3.531929768518539,0.0
662,6.895974124896937,0.0
663,-0.4264427604102203,0.0
664,-1.8933435070662439,0.0
665,1.499643412838183,0.0
666,-0.6674263406333716,0.0
667,0.16031952077214126,0.0
668,0.023760063901405903,0.0
669,-0.004474080722166707,0.0
670,0.06206770796501124,0.0
671,0.005573715488079411,0.0
672,-0.009693460557137604,0.0
673,0.02209534943917946,0.0
674,-0.07360808321905075,0.0
675,0.07259188906760947,0.0
676,0.04218443844256679,0.0
677,0.08518272087053147,0.0
678,0.03903220640608468,0.0
679,0.06518604941619596,0.0
680,0.40618607159059383,0.0
681,3.681494002660856,0.0
682,6.876818924476182,0.0
683,-0.3716657180704162,0.0
684,-1.7382325451709282,0.0
685,1.685275822565461,0.0
686,-0.6179175918644189,0.0
687,0.133749996234229,0.0
688,0.1733796432695892,0.0
689,0.05254511461000605,0.0
690,0.03983928696782025,0.0
691,0.11734729257856416,0.0
692,0.02866563781871713,0.0
693,0.07172061322195154,0.0
694,0.038492582621951724,0.0
695,0.03741121907936806,0.0
696,0.044386528472612534,0.0
697,0.10445010539685186,0.0
698,0.028818867605670435,0.0
699,0.03821004874638569,0.0
700,0.39213937495578727,0.0
701,3.6553178462470646,0.0
702,6.89669387926777,0.0
703,-0.425073414455173,0.0
704,-1.8193662461154663,0.0
705,1.5593152054477792,0.0
706,-0.6980420186292274,0.0
707,0.16000011335476427,0.0
708,0.02374766539403822,0.0
709,0.11066587702336178,0.0
710,0.04450991438812772,0.0
711,0.0660930605893828,0.0
712,0.07266535852951957,0.0
713,0.016473233086460676,0.0
714,0.0836226776183161,0.0
715,0.0047381007383459975,0.0
716,0.18813650125067266,0.0
717,0.022821726649197353,0.0
718,0.09772860521370674,0.0
719,0.04335908739793361,0.0
720,0.29402043768290004,0.0
721,3.573520613743882,0.0
722,6.9044392817205384,0.0
723,-0.4895861209385673,0.0
724,-1.848674467702445,0.0
725,1.5611174944749435,0.0
726,-0.758010505745764,0.0
727,0.1589530655188469,0.0
728,0.04269448615409782,0.0
729,-0.08548938609651552,0.0
730,-0.012248511854886894,0.0
731,0.008916474667440787,0.0
732,-0.05257939209452881,0.0
733,-0.007256755908863774,0.0
734,0.06021672286064714,0.0
735,0.0009835782136198429,0.0
736,0.023420062755753424,0.0
737,0.0052603865836599005,0.0
738,0.08059369081903767,0.0
739,0.03094751466427325,0.0
740,0.29220587981219215,0.0
741,3.7912486847861113,0.0
742,6.913729524044119,0.0
743,-0.4095879787285557,0.0
744,-1.759148311499085,0.0
745,1.5306351671760865,0.0
746,-0.7032748096006008,0.0
747,0.1551685991145082,0.0
748,0.03110502638112827,0.0
749,0.004859284949206705,0.0
750,0.11457529616399681,0.0
751,0.03366288228254105,0.0
752,0.058233112497573784,0.0
753,0.015789202289241674,0.0
754,0.08748552563767154,0.0
755,0.03296382312113044,0.0
756,0.026926925769819816,0.0
757,0.07454907881880568,0.0
758,-0.036162588597279555,0.0
759,0.19002786137131733,0.0
760,0.34783082516767905,0.0
761,3.618297695054831,0.0
762,6.909227216985008,0.0
763,-0.37072028508823696,0.0
764,-1.7144381643900646,0.0
765,1.58351816175077,0.0
766,-0.7870954307755427,0.0
767,0.14747618255442876,0.0
768,0.10790959989729221,0.0
769,-0.01614092948804829,0.0
770,0.029366273773455954,0.0
771,0.03275456359622001,0.0
772,0.08168297394248995,0.0
773,-0.026322428934986708,0.0
774,0.05800599120030401,0.0
775,0.1109940359686141,0.0
776,0.06906728633441292,0.0
777,0.1855494701038059,0.0
778,0.08777260331400621,0.0
779,0.07717431660167876,0.0
780,0.34580516868754685,0.0
781,3.736141633623031,0.0
782,6.901452548585674,0.0
783,-0.30981935126255844,0.0
784,-1.7391971464166605,0.0
785,1.612826335163626,0.0
786,-0.5791176299950839,0.0
787,0.22624446255715466,0.0
788,0.13309205663506507,0.0
789,0.01882956516328171,0.0
790,0.04617109063572937,0.0
791,0.04803269735126528,0.0
792,0.09463081685191595,0.0
793,0.15312095784111857,0.0
794,-0.013332889323421485,0.0
795,0.03535549569748855,0.0
796,0.08155409866275265,0.0
797,0.0892475136287606,0.0
798,0.021540245623104592,0.0
799,0.03891517737316528,0.0
800,0.37495397641696987,0.0
801,3.8067878806367856,0.0
802,6.857356977092918,0.0
803,-0.49598765946462225,0.0
804,-1.826940705965775,0.0
805,1.5570909929098802,0.0
806,-0.7622236600409386,0.0
807,0.14957839694051547,0.0
808,0.0987294253391773,0.0
809,0.03691779119004748,0.0
810,0.012067043813368705,0.0
811,0.04102857992154488,0.0
812,0.09680521410506152,0.0
813,0.06657730947042127,0.0
814,0.10115944652576286,0.0
815,0.09268768532071335,0.0
816,0.0722917553814728,0.0
817,0.0996259511223649,0.0
818,0.08132739733701723,0.0
819,0.08498437003645656,0.0
820,0.4066621983916504,0.0
821,3.789856325078891,0.0
822,6.895368480884972,0.0
823,-0.4203373600320841,0.0
824,-1.7396657407094944,0.0
825,1.6043181088959602,0.0
826,-0.6209251064693316,0.0
827,0.19234127782386998,0.0
828,0.12120664451492394,0.0
829,0.09966396706280525,0.0
830,0.14466489372206148,0.0
831,0.037863482414888634,0.0
832,-0.03135665893125557,0.0
833,-0.023906414268270976,0.0
834,0.20570651069810286,0.0
835,0.07120472052607206,0.0
836,0.10860000529411235,0.0
837,0.16318126070298253,0.0
838,0.03085551936269698,0.0
839,0.16543994045924826,0.0
840,0.3700758632713661,0.0
841,3.742185524158554,0.0
842,6.947745072143699,0.0
843,-0.346545961244397,0.0
844,-1.837756804544991,0.0
845,1.6311378018726321,0.0
846,-0.6106116544963816,0.0
847,0.26358065838714145,0.0
848,0.10659231183555762,0.0
849,0.08671535915166781,0.0
850,0.1594408782091331,0.0
851,0.06211901278481064,0.0
852,0.04532102208219976,0.0
853,0.08245595999943439,0.0
854,0.049558477282198185,0.0
855,0.06344584618707767,0.0
856,-0.009658964068653422,0.0
857,0.07054678180887508,0.0
858,0.07697325556926561,0.0
859,-0.03753970739899723,0.0
860,0.17041467570621535,0.0
861,3.6678672944081656,0.0
862,6.836079020657551,0.0
863,-0.4292304497327186,0.0
864,-1.8345338826991964,0.0
865,1.6183626854100592,0.0
866,-0.7268629041861742,0.0
867,0.2238240903316546,0.0
868,0.05070410726604609,0.0
869,-0.11827024941167902,0.0
870,0.12524020820352805,0.0
871,0.09467463024018956,0.0
872,0.09837748761402619,0.0
873,0.07897491158875801,0.0
874,0.07157403452245975,0.0
875,0.13045423546032492,0.0
876,0.060027254005383036,0.0
877,0.12088040141421941,0.0
878,-0.002875448584282937,0.0
879,0.0755806492254692,0.0
880,0.3578245286560253,0.0
881,3.7827860201219905,0.0
882,6.9310482007270116,0.0
883,-0.5108875713671721,0.0
884,-1.8589565182218573,0.0
885,1.6326751079945039,0.0
886,-0.6941609739192356,0.0
887,0.16417657100177452,0.0
888,0.06399832384610582,0.0
889,0.08904845109439097,0.0
890,0.08854536522365165,0.0
891,0.1403420046104686,0.0
892,0.1248292191409476,0.0
893,0.04036539401005159,0.0
894,0.1164659780287528,0.0
895,0.05922865953222557,0.0
896,0.0979283826935671,0.0
897,0.05758518720239188,0.0
898,-0.034085575726852016,0.0
899,0.08925780234510922,0.0
900,0.38507319786830274,0.0
901,3.6768330991765383,0.0
902,6.854153387370551,0.0
903,-0.4596258478463024,0.0
904,-1.7236602100374154,0.0
905,1.5284277885091195,0.0
906,-0.6885582096493581,0.0
907,0.19299251795701602,0.0
908,0.16492254001234907,0.0
909,-0.01919063499846165,0.0
910,0.0838770549685642,0.0
911,0.08160645287861645,0.0
912,0.028172939924156874,0.0
913,0.06617553684104031,0.0
914,0.04344119089914496,0.0
915,0.00972230030711567,0.0
916,0.07480923977051304,0.0
917,0.10903158231199161,0.0
918,0.07657146585205721,0.0
919,0.09849657470029374,0.0
920,0.33388687309761017,0.0
921,3.6998915344549923,0.0
922,6.886228419006058,0.0
923,-0.43738658496838734,0.0
924,-1.7062933016246298,0.0
925,1.6749386723285553,0.0
926,-0.6978251144732389,0.0
927,0.25534930818968216,0.0
928,0.043825750966043686,0.0
929,-0.0675278511935368,0.0
930,0.12278828879256704,0.0
931,0.09510769015796892,0.0
932,0.06964668989670515,0.0
933,0.04922347518913542,0.0
934,0.11798368943536773,0.0
935,0.055999238591799574,0.0
936,-0.02362882878874227,0.0
937,0.09142709014993414,0.0
938,0.03315354158786543,0.0
939,0.07686999744560521,0.0
940,0.36555432743640054,0.0
941,3.7498171944419214,0.0
942,6.953393199902232,0.0
943,-0.3785039021484704,0.0
944,-1.7705368200002831,0.0
945,1.664680831212419,0.0
946,-0.5971514079300327,0.0
947,0.26094518269792066,0.0
948,0.14511601845857974,0.0
949,0.06279247112169395,0.0
950,0.13896908657738807,0.0
951,0.147507464198197,0.0
952,0.03360367188497189,0.0
953,0.15447499372628584,0.0
954,0.06163841445083919,0.0
955,0.08956735428393219,0.0
956,0.06232272760588935,0.0
957,0.06505299143607834,0.0
958,0.05550922057702738,0.0
959,0.08266706347837391,0.0
960,0.3886123298780764,0.0
961,3.6279936822663816,0.0
962,6.926751014754572,0.0
963,-0.5023066886132923,0.0
964,-1.6854688116748782,0.0
965,1.6378327115499174,0.0
966,-0.6130414218098492,0.0
967,0.26297992774712997,0.0
968,0.07727221586696664,0.0
969,-0.0773288819272652,0.0
970,-0.03739360236877001,0.0
971,0.06895982871560798,0.0
972,-0.019232811742361945,0.0
973,-0.014585383854417946,0.0
974,-0.05545768090353231,0.0
975,0.12580544210843195,0.0
976,0.061425844967598384,0.0
977,0.14655876045022537,0.0
978,0.14650036086499957,0.0
979,0.06382076863295769,0.0
980,0.4336051231663471,0.0
981,3.789956778745375,0.0
982,6.918479326082729,0.0
983,-0.45117210301738764,0.0
984,-1.6635352232730702,0.0
985,1.6399168356922595,0.0
986,-0.7779206073447364,0.0
987,0.17232723206375988,0.0
988,0.06772718431423225,0.0
989,0.06264571213679343,0.0
990,0.11722928537143512,0.0
991,0.09138270482142377,0.0
992,0.030489007077224652,0.0
993,0.05017168711401768,0.0
994,-0.05664385908717632,0.0
995,0.12747893801543458,0.0
996,-0.015294725285264259,0.0
997,0.0801969908650228,0.0
998,0.06869453175298715,0.0
999,-0.03506926337198796,0.0
1000,0.2587235110888529,0.0
1001,3.7355287650243842,0.0
1002,6.907160503817993,0.0
1003,-0.46718418715180143,0.0
1004,-1.760261011940773,0.0
1005,1.571583410611314,0.0
1006,-0.6511768117385816,0.0
1007,0.2665709329526152,0.0
1008,0.05550762405286194,0.0
1009,0.0293426384201695,0.0
1010,0.13744850511263165,0.0
1011,0.14523970685520904,0.0
1012,0.07300462603114627,0.0
1013,0.09188005818924867,0.0
1014,0.06389476033231078,0.0
1015,0.03022858916965325,0.0
1016,-0.04632878788722192,0.0
1017,0.053295528387910886,0.0
1018,0.05927485146057691,0.0
1019,0.028673631593344875,0.0
1020,0.34666320177366844,0.0
1021,3.624634060017507,0.0
1022,6.761917272023274,0.0
1023,-0.4575770584002059,0.0
1024,-1.7644061626207355,0.0
1025,1.5090136274374548,0.0
1026,-0.7773537477773822,0.0
1027,0.12862233360692332,0.0
1028,0.002593418614566849,0.0
1029,0.07470776693938071,0.0
1030,0.06940501566293253,0.0
1031,-0.04421153797786353,0.0
1032,0.059183424191745396,0.0
1033,0.0607517953327288,0.0
1034,-0.03988256511830787,0.0
1035,-0.031704425384610005,0.0
1036,0.09827678761140299,0.0
1037,0.12357140791491474,0.0
1038,0.09362735921224166,0.0
1039,0.07060816514160553,0.0
1040,0.356348193740069,0.0
1041,3.6659308347346724,0.0
1042,6.864097745956753,0.0
1043,-0.5378991707148563,0.0
1044,-1.8676939222519837,0.0
1045,1.5376198297785606,0.0
1046,-0.6719158141989019,0.0
1047,0.03948463038774691,0.0
1048,-0.012029574297715586,0.0
1049,-0.057625713283949026,0.0
1050,-0.015434223104382298,0.0
1051,-0.0773838762964957,0.0
1052,-0.02941528034883435,0.0
1053,-0.029481295953045394,0.0
1054,-0.17273663757548163,0.0
1055,-0.04444200571005289,0.0
1056,0.057972525779818734,0.0
1057,-0.04978682683502961,0.0
1058,0.05059645548800443,0.0
1059,0.0357593050240943,0.0
1060,0.26168339245802175,0.0
1061,3.748296276026043,0.0
1062,6.846412297505308,0.0
1063,-0.4501905701661997,0.0
1064,-1.8349574291882949,0.0
1065,1.496660244595943,0.0
1066,-0.702863561514406,0.0
1067,0.017577971788927754,0.0
1068,0.08922599332675615,0.0
1069,-0.03316493529273805,0.0
1070,0.04112759178501803,0.0
1071,-0.05290848311156526,0.0
1072,-0.012498884378117369,0.0
1073,-0.009260317115328213,0.0
1074,0.040838608997056866,0.0
1075,0.052336904357433454,0.0
1076,0.021168311716306037,0.0
1077,-0.029142325407234333,0.0
1078,-0.012573306373418426,0.0
1079,0.015186512989291703,0.0
1080,0.2628556616305171,0.0
1081,3.6978294171191184,0.0
1082,6.805043064462234,0.0
1083,-0.46351420866330656,0.0
1084,-1.7817002270374078,0.0
1085,1.5101115672514236,0.0
1086,-0.5885302243870062,0.0
1087,0.1561848516193855,0.0
1088,0.018104662573941523,0.0
1089,-0.1058368237827017,0.0
1090,-0.0030036509357196824,0.0
1091,-0.06847031238400628,0.0
1092,-0.01985622584118089,0.0
1093,-0.11712382303138802,0.0
1094,-0.05825319626201829,0.0
1095,-0.046030597901863826,0.0
1096,-0.04274731531990787,0.0
1097,-0.005067802815894966,0.0
1098,-0.07549474238551479,0.0
1099,-0.055691076970582544,0.0
1100,0.2694308141161566,0.0
1101,3.6690166253886396,0.0
1102,6.729694591120517,0.0
1103,-0.5618301167157204,0.0
1104,-1.7614003253020625,0.0
1105,1.5052967396436185,0.0
1106,-0.7742082447050637,0.0
1107,0.17511050205119835,0.0
1108,0.03179068818679339,0.0
1109,-0.0536830347921375,0.0
1110,-0.055617359518163816,0.0
1111,-0.07266546557522593,0.0
1112,-0.0695422730658796,0.0
1113,-0.046269849160901114,0.0
1114,-0.020916211799292293,0.0
1115,-0.027159498764837003,0.0
1116,-0.021666445667125236,0.0
1117,-0.11805573220583818,0.0
1118,-0.01234695743584463,0.0
1119,-0.07160940505943222,0.0
1120,0.23096011809621173,0.0
1121,3.590820559569473,0.0
1122,6.760217114638322,0.0
1123,-0.6804310902281993,0.0
1124,-1.8360003589234075,0.0
1125,1.4178588911212815,0.0
1126,-0.727544281568281,0.0
1127,0.041846404789020165,0.0
1128,-0.07491999378183949,0.0
1129,-0.10435081095445387,0.0
1130,-0.054126799877717305,0.0
1131,-0.07937479797039496,0.0
1132,-0.15981900615823735,0.0
1133,-0.06878523746310276,0.0
1134,-0.03599953348136216,0.0
1135,-0.11719027077934165,0.0
1136,-0.20124985852474783,0.0
1137,-0.10830988463262911,0.0
1138,-0.14033352494955736,0.0
1139,-0.07693356372227667,0.0
1140,0.18505473724578125,0.0
1141,3.5956825651265114,0.0
1142,6.795781926780818,0.0
1143,-0.6032180012793525,0.0
1144,-1.6938921188792997,0.0
1145,1.4662542422917313,0.0
1146,-0.7363494804599904,0.0
1147,0.13554931671632225,0.0
1148,-0.019198325323527585,0.0
1149,-0.03975729917417874,0.0
1150,0.05484478125027675,0.0
1151,0.009010933314930997,0.0
1152,-0.04307688622473478,0.0
1153,0.09454273467928986,0.0
1154,-0.03261116819483892,0.0
1155,0.014250934930854196,0.0
1156,0.006456709767462002,0.0
1157,0.017402191727719923,0.0
1158,0.10693406218486873,0.0
1159,-0.030324136500200157,0.0
1160,0.2985078277663367,0.0
1161,3.662590878315939,0.0
1162,6.753447460301769,0.0
1163,-0.6462040843720271,0.0
1164,-1.7435706359043452,0.0
1165,1.5380732173605467,0.0
1166,-0.7914536937004742,0.0
1167,0.11660475211244002,0.0
1168,0.011341607870241749,0.0
1169,-0.11692530861722521,0.0
1170,0.006186178253728684,0.0
1171,-0.014714302241538746,0.0
1172,-0.10131006165130689,0.0
1173,0.12691083624007926,0.0
1174,0.07510881050534393,0.0
1175,-0.004783497351283358,0.0
1176,0.13260398872842763,0.0
1177,0.0637147132256794,0.0
1178,0.19450667460287663,0.0
1179,0.08146799829458465,0.0
1180,0.34997309604446175,0.0
1181,3.798939464362894,0.0
1182,6.921323903083517,0.0
1183,-0.5496474188781535,0.0
1184,-1.7456024927365763,0.0
1185,1.6040022165852141,0.0
1186,-0.7094845540910293,0.0
1187,0.20506703347119026,0.0
1188,0.029141741168984547,0.0
1189,0.002745100198623604,0.0
1190,0.055525484336372444,0.0
1191,0.07630603661865501,0.0
1192,-0.00016799542156401524,0.0
1193,0.1269488812214274,0.0
1194,0.01281265171741171,0.0
1195,0.016367382301070606,0.0
1196,-0.01763376957547655,0.0
1197,0.008365581787329403,0.0
1198,0.03037198414677242,0.0
1199,0.06058660769588869,0.0
1200,0.2521095250876314,0.0
1201,3.6453404410767853,0.0
1202,6.87571013534969,0.0
1203,-0.6364066259845562,0.0
1204,-1.8345251672296914,0.0
1205,1.4487494646177332,0.0
1206,-0.6332454539782839,0.0
1207,0.1346550726736774,0.0
1208,0.0706124462006041,0.0
1209,-0.018685534083004565,0.0
1210,-0.02561895007739101,0.0
1211,0.04708703779944567,0.0
1212,0.017709247844738936,0.0
1213,0.049729564485593854,0.0
1214,0.06477969037915393,0.0
1215,0.052688386556775504,0.0
1216,0.030504229263731322,0.0
1217,-0.02029541078638475,0.0
1218,0.030572763801969466,0.0
1219,0.07128407449057675,0.0
1220,0.36048150068465196,0.0
1221,3.7216233124506806,0.0
1222,6.798256951155239,0.0
1223,-0.46713415108423245,0.0
1224,-1.7135982920069013,0.0
1225,1.5587035505866673,0.0
1226,-0.7458234713144706,0.0
1227,0.20151975852281745,0.0
1228,0.034450259470098284,0.0
1229,0.01949874818295713,0.0
1230,0.05687864060587358,0.0
1231,0.06484693192754716,0.0
1232,-0.03640224164336389,0.0
1233,0.052001488351317474,0.0
1234,-0.0446111974321025,0.0
1235,0.02900507578125828,0.0
1236,0.0015457722524837812,0.0
1237,-0.006029107037105418,0.0
1238,-0.008553971227273182,0.0
1239,0.06173282971378373,0.0
1240,0.41164002316712356,0.0
1241,3.7018352584181184,0.0
1242,6.731694647870013,0.0
1243,-0.589321684363737,0.0
1244,-1.7915920516777708,0.0
1245,1.496889606449277,0.0
1246,-0.768883038171839,0.0
1247,0.12847512181659992,0.0
1248,0.13627582230614763,0.0
1249,-0.032270907558856914,0.0
1250,-0.0030858548076667935,0.0
1251,-0.009201833966957004,0.0
1252,0.06887612215710333,0.0
1253,-0.08289743772536486,0.0
1254,-0.030728139976008068,0.0
1255,0.015317498117366133,0.0
1256,0.00835122282714252,0.0
1257,0.007946926282296686,0.0
1258,0.0828454139603961,0.0
1259,0.025666806186908836,0.0
1260,0.3360978854851953,0.0
1261,3.7403234712846025,0.0
1262,6.81715103608646,0.0
1263,-0.709559273594462,0.0
1264,-1.7820405834779267,0.0
1265,1.4745130857768,0.0
1266,-0.6826587245712183,0.0
1267,0.2029612728874299,0.0
1268,-0.004492850553384747,0.0
1269,-0.07108342918638988,0.0
1270,0.05565079561112332,0.0
1271,-0.016186884641661545,0.0
1272,0.01305044009269388,0.0
1273,0.061156745652759,0.0
1274,-0.02772423452452383,0.0
1275,-0.023790729989326558,0.0
1276,0.02841290562962319,0.0
1277,0.11607677596639689,0.0
1278,0.15252338248457725,0.0
1279,-0.016962407494538055,0.0
1280,0.37472665283870465,0.0
1281,3.8359325423708266,0.0
1282,6.834856838970576,0.0
1283,-0.5667777239462641,0.0
1284,-1.6958944612368994,0.0
1285,1.555091386129485,0.0
1286,-0.6717158333874811,0.0
1287,0.22612204643507874,0.0
1288,-0.03522949408271005,0.0
1289,-0.00715785637744357,0.0
1290,0.02232611089257115,0.0
1291,-0.016086814818798548,0.0
1292,-0.01353097534609701,0.0
1293,0.014276049348823767,0.0
1294,0.024661159251463144,0.0
1295,-0.05687197455280221,0.0
1296,0.024139811784028947,0.0
1297,-0.048737845021260884,0.0
1298,0.029947560963664778,0.0
1299,0.05947367001560942,0.0
1300,0.23260960792130297,0.0
1301,3.7362481389601165,0.0
1302,6.809376670660572,0.0
1303,-0.6451163863948712,0.0
1304,-1.7333309025279688,0.0
1305,1.4470078601518546,0.0
1306,-0.8120914796885115,0.0
1307,0.09616015613143195,0.0
1308,0.006514606941816133,0.0
1309,-0.12728118391002197,0.0
1310,0.07130239517177178,0.0
1311,0.05932854266547753,0.0
1312,0.02390313234303892,0.0
1313,0.0688393730057368,0.0
1314,0.020313290924297928,0.0
1315,-0.05168386653276913,0.0
1316,-0.08094621163912849,0.0
1317,-0.02760083532258641,0.0
1318,-0.08482177162957641,0.0
1319,-0.1143844754496692,0.0
1320,0.28636470919568685,0.0
1321,3.682323019382234,0.0
1322,6.760376568421047,0.0
1323,-0.6284861871402535,0.0
1324,-1.8430807770164712,0.0
1325,1.4929489817249857,0.0
1326,-0.7197741358677767,0.0
1327,0.05820057085107415,0.0
1328,-0.027776909490516328,0.0
1329,-0.004753340015084331,0.0
1330,0.08744897855205624,0.0
1331,-0.05439876538930556,0.0
1332,0.026711053414109228,0.0
1333,-0.0403600008647575,0.0
1334,-0.0660274022752836,0.0
1335,-0.09335669955211365,0.0
1336,-0.0051817053601828054,0.0
1337,-0.02807787065547733,0.0
1338,-0.009910494800850031,0.0
1339,-0.032451269569897426,0.0
1340,0.367210939014242,0.0
1341,3.715661482073058,0.0
1342,6.819226324795629,0.0
1343,-0.6618353038397983,0.0
1344,-1.7690231265861671,0.0
1345,1.4903077111299783,0.0
1346,-0.7990384459280605,0.0
1347,0.1363758297576384,0.0
1348,0.10318094842565535,0.0
1349,0.0014006606032793273,0.0
1350,-0.021109048040165643,0.0
1351,-0.03698949045390061,0.0
1352,-0.044278629059661366,0.0
1353,-0.05845610867021177,0.0
1354,0.037661425734302215,0.0
1355,-0.0035227209976099218,0.0
1356,0.025558566419260537,0.0
1357,-0.03616216926637123,0.0
1358,-0.034826408946632706,0.0
1359,-0.06759747987389171,0.0
1360,0.26442424894724775,0.0
1361,3.687695578700031,0.0
1362,6.799470861999526,0.0
1363,-0.5812029593033243,0.0
1364,-1.738919711876199,0.0
1365,1.5113466168376921,0.0
1366,-0.8710342714441831,0.0
1367,0.09526479518750758,0.0
1368,0.0436080417684343,0.0
1369,-0.054045353700424806,0.0
1370,-0.06340265264000508,0.0
1371,-0.06480967999942558,0.0
1372,-0.034553023890899814,0.0
1373,-0.04083743789570818,0.0
1374,0.010099681584746636,0.0
1375,0.033016596983806254,0.0
1376,0.013833224004882821,0.0
1377,-0.06296201010650368,0.0
1378,-0.04260576000803543,0.0
1379,-0.02510472909891109,0.0
1380,0.32433827310774166,0.0
1381,3.7157671646588093,0.0
1382,6.743920190531366,0.0
1383,-0.5620763763279479,0.0
1384,-1.7849622530177207,0.0
1385,1.4856467542166611,0.0
1386,-0.7988301895319951,0.0
1387,0.1295580118752749,0.0
1388,0.08918042235067036,0.0
1389,-0.09421686788563036,0.0
1390,0.0006492888637086704,0.0
1391,-0.10186567213549921,0.0
1392,0.004743918359626002,0.0
1393,-0.009652640888364775,0.0
1394,-0.07183981276757373,0.0
1395,-0.14192376738751022,0.0
1396,-0.008930670196813303,0.0
1397,-0.131672728831195,0.0
1398,-0.12678187722354858,0.0
1399,-0.1717060008183639,0.0
1400,0.1670755191560024,0.0
1401,3.612125497711547,0.0
1402,6.626309907846166,0.0
1403,-0.8275995879684835,0.0
1404,-1.9315835415038252,0.0
1405,1.4114442504651612,0.0
1406,-0.8323661358911871,0.0
1407,0.09490996416635622,0.0
1408,0.022162640878124154,0.0
1409,-0.15206346118825914,0.0
1410,-0.07990133731108383,0.0
1411,-0.09955289991087767,0.0
1412,-0.09455249948138099,0.0
1413,-0.024243481880393825,0.0
1414,-0.0850517097597079,0.0
1415,-0.043404806543997525,0.0
1416,-0.1393218276089582,0.0
1417,-0.11043449700244515,0.0
1418,-0.06247633735424399,0.0
1419,-0.13093866115079011,0.0
1420,0.17029888061499557,0.0
1421,3.635650615650724,0.0
1422,6.715960656344582,0.0
1423,-0.7304228400159652,0.0
1424,-1.7773829600366338,0.0
1425,1.458018250327295,0.0
1426,-0.8728524418159304,0.0
1427,0.03895383289107175,0.0
1428,-0.16181758582419964,0.0
1429,0.00024128904315763589,0.0
1430,0.012422226880328855,0.0
1431,-0.055553487676229,0.0
1432,0.007593794098076463,0.0
1433,-0.021167421892293432,0.0
1434,0.12195787963852385,0.0
1435,0.05784438286489473,0.0
1436,-0.12023861246937885,0.0
1437,-0.03203611196476667,0.0
1438,0.0410467651462994,0.0
1439,-0.01912979524481623,0.0
1440,0.36870557786512265,0.0
1441,3.7790340367887434,0.0
1442,6.825498747299504,0.0
1443,-0.5858791713913879,0.0
1444,-1.7654658923034139,0.0
1445,1.5096254775689533,0.0
1446,-0.7422881804363053,0.0
1447,0.1662670463002008,0.0
1448,0.027601960081190192,0.0
1449,-0.0625163169751997,0.0
1450,0.017273636538199272,0.0
1451,0.033649214219072646,0.0
1452,-0.08661686058906726,0.0
1453,0.06743332598380392,0.0
1454,-0.06788214063314967,0.0
1455,0.013046210532174547,0.0
1456,-0.07228937379526033,0.0
1457,0.019430395286955927,0.0
1458,0.013338735411016808,0.0
1459,-0.023994396939944516,0.0
1460,0.3037292730721594,0.0
1461,3.793797771781371,0.0
1462,6.768388825922,0.0
1463,-0.660134030846232,0.0
1464,-1.6968000974997273,0.0
1465,1.4666847756179595,0.0
1466,-0.7293625001291704,0.0
1467,0.08063160778893504,0.0
1468,-0.025409404433929323,0.0
1469,-0.07025798649880412,0.0
1470,-0.0024051508265302366,0.0
1471,0.015093286891317916,0.0
1472,-0.03200202220634524,0.0
1473,-0.019805767350473555,0.0
1474,0.007195246091753073,0.0
1475,-0.0010458935982597915,0.0
1476,0.04352057133075757,0.0
1477,0.04322900480293825,0.0
1478,0.06435738606207884,0.0
1479,0.09584587956432855,0.0
1480,0.427406729923217,0.0
1481,3.8774386340924063,0.0
1482,6.838839150239058,0.0
1483,-0.6076524203827965,0.0
1484,-1.6507055221072602,0.0
1485,1.6468875624970027,0.0
1486,-0.7257537654117329,0.0
1487,0.2613831226541986,0.0
1488,-0.011415057696280116,0.0
1489,0.011568490260338737,0.0
1490,0.04061973040960536,0.0
1491,-0.009566755222552306,0.0
1492,0.05376828304936512,0.0
1493,-0.030367427945625663,0.0
1494,0.03962441565017651,0.0
1495,-0.02077699366850244,0.0
1496,0.05649055860047853,0.0
1497,-0.0414971526351976,0.0
1498,0.04302505956874519,0.0
1499,-0.04468265153825003,0.0
1500,0.3086443608899588,0.0
1501,3.7544779920385523,0.0
1502,6.8129037541845845,0.0
1503,-0.6959542409808266,0.0
1504,-1.6931347722939072,0.0
1505,1.4967294132490305,0.0
1506,-0.7628202572432514,0.0
1507,0.19709237497549648,0.0
1508,0.04903555191427486,0.0
1509,0.02395047088998733,0.0
1510,-0.03387176822630554,0.0
1511,0.06497737113655054,0.0
1512,0.04002990052061165,0.0
1513,0.0003976210405922907,0.0
1514,0.02893478731213153,0.0
1515,-0.004762302586066514,0.0
1516,0.04709788993482605,0.0
1517,-0.021838429382749484,0.0
1518,0.040861214267735355,0.0
1519,-0.03562942648007381,0.0
1520,0.3157882234522637,0.0
1521,3.8661962759596418,0.0
1522,6.788036263430852,0.0
1523,-0.7128865054297903,0.0
1524,-1.6024196804805138,0.0
1525,1.502297713653445,0.0
1526,-0.7346752768094607,0.0
1527,0.23453670569200064,0.0
1528,0.04537290177341327,0.0
1529,-0.012514169007577784,0.0
1530,0.019084297349207423,0.0
1531,-0.026196377898694233,0.0
1532,0.062397937388173216,0.0
1533,-0.00734500187411264,0.0
1534,-0.024937298369013428,0.0
1535,0.061826858935988216,0.0
1536,0.0657620281322388,0.0
1537,0.00948816310828262,0.0
1538,0.10905458633761081,0.0
1539,0.01283311743607056,0.0
1540,0.3169233242465359,0.0
1541,3.7620097072808187,0.0
1542,6.87048427617342,0.0
1543,-0.5734347060641181,0.0
1544,-1.6508931145263015,0.0
1545,1.5701861100331702,0.0
1546,-0.6928077993528217,0.0
1547,0.21369383137462736,0.0
1548,0.030680270381324624,0.0
1549,-0.045174586240182314,0.0
1550,0.015963287964762114,0.0
1551,0.05066205583432094,0.0
1552,0.01566025038597899,0.0
1553,0.05001464885012117,0.0
1554,0.015783025298116628,0.0
1555,-0.005893741667535297,0.0
1556,-0.07967085077094394,0.0
1557,0.06560872340735276,0.0
1558,-0.008717395628455691,0.0
1559,-0.020654610026178757,0.0
1560,0.31944468778500196,0.0
1561,3.7347808056067993,0.0
1562,6.871939875974119,0.0
1563,-0.6499197570111633,0.0
1564,-1.6569875022591847,0.0
1565,1.5213995135017304,0.0
1566,-0.7218589326923941,0.0
1567,0.1897939804914557,0.0
1568,0.07353580559359292,0.0
1569,-0.05417003175565825,0.0
1570,0.04713608351918631,0.0
1571,-0.028654222324417996,0.0
1572,0.0072218921083757335,0.0
1573,0.0543325225279538,0.0
1574,0.09006256086775202,0.0
1575,-0.08054447741719845,0.0
1576,-0.0032678626307667416,0.0
1577,0.006568443786291129,0.0
1578,0.0011895771428524606,0.0
1579,0.05298115792211024,0.0
1580,0.28079653711813646,0.0
1581,3.759594234989332,0.0
1582,6.765639815703385,0.0
1583,-0.6607722315612203,0.0
1584,-1.7032969949690897,0.0
1585,1.374415259134353,0.0
1586,-0.7753893570300966,0.0
1587,0.2581586159968804,0.0
1588,0.03086419319948372,0.0
1589,-0.12266732354904566,0.0
1590,0.07168020827981816,0.0
1591,-0.06282948702244151,0.0
1592,-0.057106797962632586,0.0
1593,-0.039328799855768225,0.0
1594,-0.007630321248588805,0.0
1595,-0.06178085960652122,0.0
1596,0.017021845343302432,0.0
1597,-0.03397291815540188,0.0
1598,0.06761085106976779,0.0
1599,-0.009027328440978422,0.0
1600,0.2573091080797495,0.0
1601,3.8559053010952407,0.0
1602,6.750177101629156,0.0
1603,-0.6829618112593366,0.0
1604,-1.7171608414459247,0.0
1605,1.4188148859647145,0.0
1606,-0.7302333432778894,0.0
1607,0.21866431820344562,0.0
1608,-0.09386284413028662,0.0
1609,0.0015711177703337936,0.0
1610,-0.04909432136075865,0.0
1611,-0.0674131420876484,0.0
1612,0.029181691495452335,0.0
1613,-0.09933132418223108,0.0
1614,0.02089439865092571,0.0
1615,-0.023130826379616845,0.0
1616,-0.05163031584010121,0.0
1617,-0.06065558122840894,0.0
1618,0.026286779353273414,0.0
1619,-0.025644300505950058,0.0
1620,0.24848790390723108,0.0
1621,3.718396649811002,0.0
1622,6.691958099386091,0.0
1623,-0.6952118383557523,0.0
1624,-1.7513873927427621,0.0
1625,1.4830129027526693,0.0
1626,-0.7061677273627143,0.0
1627,0.17978974300703962,0.0
1628,-0.006308702723444554,0.0
1629,-0.08260321703016651,0.0
1630,-0.019112133163954142,0.0
1631,0.03647370433559922,0.0
1632,-0.005308915448801221,0.0
1633,-0.015873487231226776,0.0
1634,0.04767444985299943,0.0
1635,0.013573261574184585,0.0
1636,0.006010814848465404,0.0
1637,-0.05376724422754954,0.0
1638,0.053867533130802926,0.0
1639,0.043383671182239646,0.0
1640,0.3170838513594406,0.0
1641,3.8191561525617956,0.0
1642,6.789589312929474,0.0
1643,-0.7058323032770855,0.0
1644,-1.7328075703925776,0.0
1645,1.5312170032199222,0.0
1646,-0.7359512484493225,0.0
1647,0.09493676307964041,0.0
1648,-0.008664416435451162,0.0
1649,-0.08406933201960358,0.0
1650,0.02643456523332082,0.0
1651,-0.015386419422606643,0.0
1652,-0.007024099039500719,0.0
1653,-0.07656440955460098,0.0
1654,0.029808440859406996,0.0
1655,0.004832993047506919,0.0
1656,-0.03705713164863343,0.0
1657,-0.09612906281224877,0.0
1658,-0.10914531672526555,0.0
1659,-0.04169344442554052,0.0
1660,0.40678175909304987,0.0
1661,3.7335993907663134,0.0
1662,6.755008093686831,0.0
1663,-0.7858259569972831,0.0
1664,-1.7756525472395686,0.0
1665,1.3785030905875904,0.0
1666,-0.7864911356452939,0.0
1667,0.12560085662742254,0.0
1668,-0.006259420455160567,0.0
1669,-0.17220362831407898,0.0
1670,0.02164221675403299,0.0
1671,-0.026497655347140235,0.0
1672,-0.038549602550919285,0.0
1673,-0.09278177922213857,0.0
1674,-0.01078837348536108,0.0
1675,0.0050315871686130755,0.0
1676,-0.04616283939024785,0.0
1677,-0.06427334839858316,0.0
1678,-0.07873321782936529,0.0
1679,0.06981595824543096,0.0
1680,0.30514585983646864,0.0
1681,3.7060359682239046,0.0
1682,6.6563737173958115,0.0
1683,-0.8363831067229398,0.0
1684,-1.7894818910982093,0.0
1685,1.4580601163179272,0.0
1686,-0.7620773761939913,0.0
1687,0.24510254086498912,0.0
1688,0.0014945771888447874,0.0
1689,-0.1598187487525857,0.0
1690,-0.03803496544359663,0.0
1691,0.053090945770348466,0.0
1692,0.007329932476053589,0.0
1693,-0.004826393744039285,0.0
1694,-0.07009376448801419,0.0
1695,-0.02795587641003313,0.0
1696,0.08482980235569636,0.0
1697,0.07348967482628463,0.0
1698,0.07908127337908334,0.0
1699,0.07998802130792694,0.0
1700,0.2355588997683818,0.0
1701,3.851483650953811,0.0
1702,6.817971572699023,0.0
1703,-0.7056355097385599,0.0
1704,-1.7108988543701076,0.0
1705,1.4608494028039607,0.0
1706,-0.7627579171241285,0.0
1707,0.22777398333660265,0.0
1708,-0.022439016841189745,0.0
1709,0.002011938245612129,0.0
1710,0.15405296950146324,0.0
1711,0.014806803587516296,0.0
1712,-0.0048328001851817015,0.0
1713,0.08479706420903638,0.0
1714,-0.04503814831650394,0.0
1715,-0.011296358445720248,0.0
1716,-0.05028207850297449,0.0
1717,0.021408618796546573,0.0
1718,-0.03575958821905724,0.0
1719,0.05426843229495737,0.0
1720,0.31578534858764495,0.0
1721,3.782609312396337,0.0
1722,6.751419510795961,0.0
1723,-0.7260531648533428,0.0
1724,-1.732605776496449,0.0
1725,1.4949734030778183,0.0
1726,-0.7507826421918258,0.0
1727,0.17933926101051545,0.0
1728,-0.022002866689406063,0.0
1729,0.025955831641477294,0.0
1730,0.11846076470092079,0.0
1731,-0.01822235992256167,0.0
1732,-0.0073706903578339734,0.0
1733,0.04159303294003219,0.0
1734,0.04165560759860876,0.0
1735,-0.0018209083203873135,0.0
1736,0.010163819966756155,0.0
1737,0.06301286833696125,0.0
1738,-0.06776208392799672,0.0
1739,-0.04867101422248747,0.0
1740,0.3711264007430997,0.0
1741,3.7545685018281825,0.0
1742,6.63151824469227,0.0
1743,-0.6715313468959714,0.0
1744,-1.573074715917317,0.0
1745,1.4722417587179837,0.0
1746,-0.7448570069769035,0.0
1747,0.20399421075130098,0.0
1748,-0.08516028701493489,0.0
1749,-0.04934835646418355,0.0
1750,-0.08752583195087213,0.0
1751,-0.06736870020035238,0.0
1752,-0.05552418842731764,0.0
1753,-0.04155070904112442,0.0
1754,0.07482007075812454,0.0
1755,0.041717784096236055,0.0
1756,0.052979564858578285,0.0
1757,0.02029051357353225,0.0
1758,0.08322419818438648,0.0
1759,0.03528157587653879,0.0
1760,0.28082722426831735,0.0
1761,3.940211260768191,0.0
1762,6.805201081634867,0.0
1763,-0.7995707363629903,0.0
1764,-1.6796606958434963,0.0
1765,1.631098569359203,0.0
1766,-0.7285331066658512,0.0
1767,0.14973827523703537,0.0
1768,0.11264063032824577,0.0
1769,0.012025235347661874,0.0
1770,0.009702404602251073,0.0
1771,-0.04153231139064054,0.0
1772,0.07746874592648731,0.0
1773,0.037017496417201125,0.0
1774,0.017075600877668268,0.0
1775,-0.010154947991142409,0.0
1776,0.08435151461700399,0.0
1777,0.09003284736005562,0.0
1778,-0.05987561663121147,0.0
1779,0.03534292458412739,0.0
1780,0.40819416170816675,0.0
1781,3.808623302443548,0.0
1782,6.855908354565235,0.0
1783,-0.7266652871602771,0.0
1784,-1.6478774124648263,0.0
1785,1.5442557641878807,0.0
1786,-0.7123462278599029,0.0
1787,0.1867641231994613,0.0
1788,-0.07827681008475608,0.0
1789,-0.09052577808059212,0.0
1790,0.012871332043906746,0.0
1791,-0.053605260848612696,0.0
1792,-0.07455110842347501,0.0
1793,-0.07755031400517691,0.0
1794,0.05475933843749521,0.0
1795,0.0759536680923063,0.0
1796,-0.010159588539201705,0.0
1797,0.05184732260408244,0.0
1798,-0.03513322525589042,0.0
1799,0.006695699525990043,0.0
1800,0.42950515736658634,0.0
1801,3.8375538901489055,0.0
1802,6.802453674982643,0.0
1803,-0.7038572298703555,0.0
1804,-1.6744882435889437,0.0
1805,1.5984519703707614,0.0
1806,-0.6781115387308627,0.0
1807,0.27493362110415764,0.0
1808,0.02662062322246908,0.0
1809,-0.08560676695234515,0.0
1810,-0.056539109150515604,0.0
1811,-0.009712899417609052,0.0
1812,-0.055297745340490465,0.0
1813,-0.07556610948767974,0.0
1814,-0.0296199806438453,0.0
1815,0.02970399300850041,0.0
1816,0.001756913229316752,0.0
1817,-0.0411841411644855,0.0
1818,0.004389805193967013,0.0
1819,-0.04036993224868951,0.0
1820,0.3806263503539862,0.0
1821,3.750867703290812,0.0
1822,6.7717945046993755,0.0
1823,-0.7939429811180629,0.0
1824,-1.7156763301881164,0.0
1825,1.4429561636630828,0.0
1826,-0.8430413060310008,0.0
1827,0.12300238211146805,0.0
1828,-0.05506122324135395,0.0
1829,-0.15060710083345072,0.0
1830,-0.02661563079901618,0.0
1831,-0.07256077421803318,0.0
1832,0.07960349666816702,0.0
1833,-0.011785307785117077,0.0
1834,0.008247117050905691,0.0
1835,0.09435041126326194,0.0
1836,0.11681446592763073,0.0
1837,0.1313479666615854,0.0
1838,0.1905196090795439,0.0
1839,0.11021307193800853,0.0
1840,0.42613072246719264,0.0
1841,3.9656655155323732,0.0
1842,6.8302840525079125,0.0
1843,-0.7231133207040201,0.0
1844,-1.5580745668664318,0.0
1845,1.5415175771681493,0.0
1846,-0.7566574491060282,0.0
1847,0.22744996394689876,0.0
1848,-0.02231956914003891,0.0
1849,-0.07523820013227667,0.0
1850,0.04429409483735908,0.0
1851,-0.005864584373481918,0.0
1852,-0.12824676752227038,0.0
1853,-0.14118771922997148,0.0
1854,-0.13008111088533153,0.0
1855,0.01783334974934518,0.0
1856,-0.17049213957695633,0.0
1857,-0.038641947627072966,0.0
1858,-0.009855587704079835,0.0
1859,-0.030002815916912534,0.0
1860,0.2854061937076982,0.0
1861,3.7004498107291144,0.0
1862,6.715752244335494,0.0
1863,-0.7360375463409412,0.0
1864,-1.7625381663827626,0.0
1865,1.4876650847168635,0.0
1866,-0.7222902113217656,0.0
1867,0.2391985558450484,0.0
1868,0.0076101541667407055,0.0
1869,-0.015969857239689113,0.0
1870,0.09181808414819695,0.0
1871,0.06988163488361324,0.0
1872,0.025774550938423898,0.0
1873,0.10405710653227351,0.0
1874,0.03151136185344834,0.0
1875,0.043951717441467586,0.0
1876,0.0398324132528949,0.0
1877,-0.026694833338027302,0.0
1878,-0.0535520030393202,0.0
1879,-0.0664466979862458,0.0
1880,0.23738531801518725,0.0
1881,3.778740309351229,0.0
1882,6.80108144027613,0.0
1883,-0.8245451160431515,0.0
1884,-1.7333924623954233,0.0
1885,1.5006597789036202,0.0
1886,-0.8113438210307481,0.0
1887,0.18621337081259662,0.0
1888,0.0006413692381824973,0.0
1889,-0.036929230665371994,0.0
1890,0.03616555043511842,0.0
1891,0.0006121087338890755,0.0
1892,0.03790339155514075,0.0
1893,0.03681269979884674,0.0
1894,0.053478888343816776,0.0
1895,0.008166367370119557,0.0
1896,0.09161068554578908,0.0
1897,0.029771459035131814,0.0
1898,0.06370595788588766,0.0
1899,0.04877313681149631,0.0
1900,0.3627516094589405,0.0
1901,3.8517466888961045,0.0
1902,6.790579663137821,0.0
1903,-0.8096224554043536,0.0
1904,-1.569444503881199,0.0
1905,1.4973362738416591,0.0
1906,-0.768525693582023,0.0
1907,0.210174315518769,0.0
1908,0.0932718231251477,0.0
1909,-0.11882920452059056,0.0
1910,0.01246841624122011,0.0
1911,-0.016833140618293583,0.0
1912,-0.0114748724427169,0.0
1913,0.017301727332871775,0.0
1914,0.014074857150374055,0.0
1915,-0.09383324823580644,0.0
1916,0.06032745943237365,0.0
1917,-0.10990064035132913,0.0
1918,-0.09873819423908717,0.0
1919,-0.004326907148623993,0.0
1920,0.2573754036727301,0.0
1921,3.772411752050456,0.0
1922,6.6907750283989555,0.0
1923,-0.8790979843718638,0.0
1924,-1.7010794084118408,0.0
1925,1.446570793756596,0.0
1926,-0.744750604905389,0.0
1927,0.17412671417022046,0.0
1928,-0.021742025271060443,0.0
1929,-0.024995371899149684,0.0
1930,-0.002266963683296482,0.0
1931,-0.018607829826501936,0.0
1932,0.023308134509179783,0.0
1933,0.06428239409447423,0.0
1934,0.06619767809930392,0.0
1935,-0.08286336216274237,0.0
1936,-0.01153426959337131,0.0
1937,-0.055919397646559635,0.0
1938,0.019326724219503676,0.0
1939,-0.0874198747431815,0.0
1940,0.3005205610746033,0.0
1941,3.82089457550218,0.0
1942,6.700191154421092,0.0
1943,-0.7052109341476824,0.0
1944,-1.664634795311875,0.0
1945,1.4360913657131857,0.0
1946,-0.7989877172439134,0.0
1947,0.1494551087798361,0.0
1948,-0.03459875746034803,0.0
1949,-0.046858427483546496,0.0
1950,0.043945154370202515,0.0
1951,-0.024049041794799202,0.0
1952,0.0063876428083215085,0.0
1953,0.03200054270474396,0.0
1954,0.022144286290918927,0.0
1955,0.013011362345820742,0.0
1956,-0.03140116062367233,0.0
1957,-0.03295811688839902,0.0
1958,0.03296890861232695,0.0
1959,0.00872438247953196,0.0
1960,0.2444541480999737,0.0
1961,3.7766140209032995,0.0
1962,6.677382834228871,0.0
1963,-0.7979121413730942,0.0
1964,-1.6554918041586322,0.0
1965,1.4678331583176254,0.0
1966,-0.803261738152624,0.0
1967,0.11539873913229079,0.0
1968,-0.06870538159040601,0.0
1969,-0.11620674349090782,0.0
1970,-0.010349643735248094,0.0
1971,-0.05003942858323012,0.0
1972,-0.03333695183821283,0.0
1973,-0.11712761419698273,0.0
1974,-0.11863995448770878,0.0
1975,-0.030000896683735602,0.0
1976,-0.06093181267417544,0.0
1977,-0.04428011166592659,0.0
1978,-0.12084841175686936,0.0
1979,-0.09465595165680467,0.0
1980,0.3262495049675475,0.0
1981,3.8899583329235448,0.0
1982,6.691469085070697,0.0
1983,-0.8292963148176132,0.0
1984,-1.6590007999206207,0.0
1985,1.4737415785367451,0.0
1986,-0.8077434540090849,0.0
1987,0.16737927305304823,0.0
1988,0.03930643743190123,0.0
1989,-0.0016458067467936544,0.0
1990,-0.06784104496845923,0.0
1991,-0.06870990011666114,0.0
1992,-0.04464658084529439,0.0
1993,-0.08922732715681382,0.0
1994,0.07166273533697654,0.0
1995,-0.025749520304764687,0.0
1996,0.017654294042937422,0.0
1997,0.08523849999724635,0.0
1998,0.03433408258155622,0.0
1999,-0.028884689561958502,0.0
2000,0.38213397928128856,0.0
2001,3.928455194105742,0.0
2002,6.740944078900252,0.0
2003,-0.8475487239689437,0.0
2004,-1.6016696349913149,0.0
2005,1.5407394083067725,0.0
2006,-0.8506800462821524,0.0
2007,0.19400627020156194,0.0
2008,0.00931957540463493,0.0
2009,-0.03463635743500591,0.0
2010,0.002547056181640986,0.0
2011,-0.039349364621764284,0.0
2012,-0.12545850137540507,0.0
2013,-0.12196743142931707,0.0
2014,-0.06310732941961025,0.0
2015,-0.09236548014332396,0.0
2016,-0.1605046055800597,0.0
2017,0.0025832919241565028,0.0
2018,-0.10331080428902088,0.0
2019,-0.02841792629433844,0.0
2020,0.2240392783056023,0.0
2021,3.7847046305105896,0.0
2022,6.729385525591027,0.0
2023,-0.7823367827423408,0.0
2024,-1.632205782779572,0.0
2025,1.3741335019964,0.0
2026,-0.8121198149344302,0.0
2027,0.1345768972239558,0.0
2028,-0.010628604158458049,0.0
2029,-0.06615248484085597,0.0
2030,-0.03897919832883727,0.0
2031,0.04002841451220609,0.0
2032,-0.016773102145411063,0.0
2033,0.04986462918343879,0.0
2034,-0.07545956131599892,0.0
2035,-0.07591428501364647,0.0
2036,-0.011291157923870785,0.0
2037,0.0745963869188627,0.0
2038,-0.07668229446523878,0.0
2039,-0.0043284634725436165,0.0
2040,0.2671963781108662,0.0
2041,3.8370594736123884,0.0
2042,6.626457770398151,0.0
2043,-0.8635758993172247,0.0
2044,-1.6927779974845432,0.0
2045,1.4794967742058323,0.0
2046,-0.7871023229886591,0.0
2047,0.10778291925207398,0.0
2048,0.03982966822593719,0.0
2049,-0.07106090736456687,0.0
2050,-0.04552558792054057,0.0
2051,0.06141612536248059,0.0
2052,-0.031453299987677416,0.0
2053,0.018211839642487297,0.0
2054,-0.032631517572558305,0.0
2055,-0.04896111134079914,0.0
2056,-0.04229792859194909,0.0
2057,-0.057800146813901,0.0
2058,0.016861623031569708,0.0
2059,-0.02133928734436841,0.0
2060,0.3747002678891258,0.0
2061,3.718222071426222,0.0
2062,6.715118839163316,0.0
2063,-0.9187806688117225,0.0
2064,-1.6891238277279905,0.0
2065,1.4848778200646098,0.0
2066,-0.7405442131227251,0.0
2067,0.14274298808708424,0.0
2068,0.0188969665205678,0.0
2069,-0.12117642420596833,0.0
2070,-0.05312800173174585,0.0
2071,-0.09269821367376507,0.0
2072,-0.09802744877132538,0.0
2073,-0.08584629845163391,0.0
2074,-0.06552292502665516,0.0
2075,0.05738877333008487,0.0
2076,-0.07668772477553101,0.0
2077,-0.05208996738862454,0.0
2078,0.07032056101744413,0.0
2079,-0.036968504067169526,0.0
2080,0.24624550090511005,0.0
2081,3.832072310396984,0.0
2082,6.709350138839401,0.0
2083,-0.9078998047715056,0.0
2084,-1.809618419028786,0.0
2085,1.5183981744603339,0.0
2086,-0.7629609233772255,0.0
2087,0.12198245205798071,0.0
2088,0.02745443817251632,0.0
2089,-0.05665563239170933,0.0
2090,-0.04438151814294522,0.0
2091,-0.07158326028483827,0.0
2092,-0.011163632741738212,0.0
2093,-0.026844520754355672,0.0
2094,-0.03281543561884384,0.0
2095,0.0437173908840861,0.0
2096,0.05395886610932266,0.0
2097,-0.1509433541364235,0.0
2098,-0.11090503432805111,0.0
2099,-0.08293653643463406,0.0
2100,0.27499468586972503,0.0
2101,3.8030162151267555,0.0
2102,6.671732360723132,0.0
2103,-0.8368456868889,0.0
2104,-1.6264899040051228,0.0
2105,1.4352192794080199,0.0
2106,-0.8352772269469676,0.0
2107,0.03237112027882641,0.0
2108,0.06505844433003916,0.0
2109,-0.03339607912839784,0.0
2110,-0.03172803137228446,0.0
2111,-0.008555588960754413,0.0
2112,0.018995219267008208,0.0
2113,-0.07651420669001825,0.0
2114,-0.02575210236795131,0.0
2115,-0.040034738537456226,0.0
2116,-0.08499475663707472,0.0
2117,0.012861580605915891,0.0
2118,-0.022717854045082912,0.0
2119,-0.07072135209899612,0.0
2120,0.2769905710801648,0.0
2121,3.7473853756120663,0.0
2122,6.6072779009331795,0.0
2123,-0.9064500162272983,0.0
2124,-1.6373191224663797,0.0
2125,1.409807331877103,0.0
2126,-0.7564721996572511,0.0
2127,0.17478737772501382,0.0
2128,-0.09593546107630482,0.0
2129,-0.08034461406512447,0.0
2130,0.11516171140995723,0.0
2131,0.026261271882719185,0.0
2132,0.019963751008394363,0.0
2133,0.029576596455992008,0.0
2134,-0.015680479499869948,0.0
2135,0.0724256025757342,0.0
2136,0.003013296515473232,0.0
2137,-0.08551038547045484,0.0
2138,-0.03551803518661606,0.0
2139,-0.04454189012995957,0.0
2140,0.2917848482745566,0.0
2141,3.832638660902802,0.0
2142,6.566159971748222,0.0
2143,-0.9173152446478936,0.0
2144,-1.6077896977585424,0.0
2145,1.473423082687366,0.0
2146,-0.8404986453515766,0.0
2147,0.19044502965404994,0.0
2148,0.055615879894901896,0.0
2149,-0.08439730447384455,0.0
2150,0.012468758949443465,0.0
2151,0.038158704208945,0.0
2152,0.06403408374378632,0.0
2153,-0.06369152645688109,0.0
2154,0.025035083504733546,0.0
2155,0.02698267287945979,0.0
2156,0.09099280708284979,0.0
2157,0.12878239962959978,0.0
2158,-0.02828854457564135,0.0
2159,0.030457287901734503,0.0
2160,0.37320034553857484,0.0
2161,3.7863806068314934,0.0
2162,6.750917821674641,0.0
2163,-0.8843198851481302,0.0
2164,-1.607531063752704,0.0
2165,1.4388301237390955,0.0
2166,-0.7597778190272975,0.0
2167,0.2224479132429482,0.0
2168,0.029629093009627776,0.0
2169,0.04498183060761922,0.0
2170,0.05020648767256322,0.0
2171,-0.07380998618212797,0.0
2172,-0.000689591287236271,0.0
2173,0.041192462847641984,0.0
2174,-0.026702149417964515,0.0
2175,0.011014377992679247,0.0
2176,-0.006154983840939874,0.0
2177,-0.08300163551740111,0.0
2178,-0.08177718342162053,0.0
2179,-0.034046385101775295,0.0
2180,0.314532271526617,0.0
2181,3.943210233212639,0.0
2182,6.6531146866941375,0.0
2183,-0.8771458198012507,0.0
2184,-1.5957597195723245,0.0
2185,1.4719718833712274,0.0
2186,-0.7587033525495274,0.0
2187,0.2505200893842354,0.0
2188,0.019312367413965737,0.0
2189,-0.042307202941724964,0.0
2190,-0.012093258275953835,0.0
2191,0.0008052766849097567,0.0
2192,0.060757580714491666,0.0
2193,0.12694777872892252,0.0
2194,-0.0344483727252552,0.0
2195,0.010958245571950635,0.0
2196,-0.04013042275540529,0.0
2197,0.04471560682176269,0.0
2198,0.06476128699930023,0.0
2199,-0.006878758701011456,0.0
2200,0.4073840683230738,0.0
2201,3.9505539411956554,0.0
2202,6.752821217319466,0.0
2203,-0.8406209782631142,0.0
2204,-1.5400870928206705,0.0
2205,1.4541651430841724,0.0
2206,-0.675603656206537,0.0
2207,0.15824614962039735,0.0
2208,-0.015294988296182699,0.0
2209,0.006604278226191619,0.0
2210,-0.03872134762257981,0.0
2211,0.025553599153315353,0.0
2212,0.0021965824265585514,0.0
2213,-0.08990316100463354,0.0
2214,0.038309726712909435,0.0
2215,-0.08182133972287656,0.0
2216,-0.046022242222906004,0.0
2217,-0.05421652085835104,0.0
2218,-0.017182748777434434,0.0
2219,0.06175064524047584,0.0
2220,0.38724165359722074,0.0
2221,3.928263172064428,0.0
2222,6.756083272770061,0.0
2223,-0.8517954317575008,0.0
2224,-1.5860346154317824,0.0
2225,1.4322333945383674,0.0
2226,-0.8309482746341397,0.0
2227,0.24575902248647932,0.0
2228,0.037933094485364104,0.0
2229,-0.07140486254043332,0.0
2230,-0.013188798850412065,0.0
2231,-0.07651178135430255,0.0
2232,-0.003235265387342292,0.0
2233,0.08113589897389892,0.0
2234,0.059818647619324976,0.0
2235,-0.001245406665405794,0.0
2236,0.061327272231611746,0.0
2237,-0.014266733755482895,0.0
2238,0.08766665955315331,0.0
2239,-0.01495227629864318,0.0
2240,0.38517716529608836,0.0
2241,3.9401397731045966,0.0
2242,6.739913557859228,0.0
2243,-0.7192839415621932,0.0
2244,-1.5892807729458298,0.0
2245,1.4373355285844849,0.0
2246,-0.7197360503916195,0.0
2247,0.23800931466106595,0.0
2248,0.0649857325790904,0.0
2249,0.010508320071991057,0.0
2250,0.030083831897083878,0.0
2251,0.10718717056579724,0.0
2252,0.10629777167028655,0.0
2253,0.027300813464277596,0.0
2254,0.020259301839982362,0.0
2255,0.04997470270511643,0.0
2256,0.04699867773868441,0.0
2257,0.0709575008661455,0.0
2258,-0.024649992917186635,0.0
2259,-0.01632731336569427,0.0
2260,0.3762428265172166,0.0
2261,3.8566499368557716,0.0
2262,6.70879169916643,0.0
2263,-0.7782959422475826,0.0
2264,-1.5800778907480242,0.0
2265,1.5058053150050696,0.0
2266,-0.8296839595511669,0.0
2267,0.23204078024567315,0.0
2268,0.019517413998913012,0.0
2269,-0.043779734741945894,0.0
2270,0.03981418066190727,0.0
2271,0.022678274247840774,0.0
2272,0.013744995389556078,0.0
2273,-0.020111832099986262,0.0
2274,-0.06104796047240518,0.0
2275,0.10260772185698987,0.0
2276,0.05885687778310161,0.0
2277,0.003259073340441232,0.0
2278,-0.05237068704200474,0.0
2279,0.0038166792946190313,0.0
2280,0.4461519909153106,0.0
2281,3.899592891441544,0.0
2282,6.695980786928488,0.0
2283,-0.9176968830562449,0.0
2284,-1.552144455652074,0.0
2285,1.421814814438991,0.0
2286,-0.6718005867296959,0.0
2287,0.15099855492679645,0.0
2288,-0.10444666721758258,0.0
2289,-0.06660235704546869,0.0
2290,-0.020549850861310847,0.0
2291,-0.0705679194651866,0.0
2292,-0.011647222535243446,0.0
2293,-0.030122350344892156,0.0
2294,-0.0041841767164035246,0.0
2295,-0.08730649389542859,0.0
2296,-0.07019743586458035,0.0
2297,0.04179018648295575,0.0
2298,-0.025137895755175613,0.0
2299,0.015649445410744735,0.0
2300,0.2619115776032573,0.0
2301,3.8350965254578444,0.0
2302,6.67314646965173,0.0
2303,-0.9470251495790329,0.0
2304,-1.6408186266881697,0.0
2305,1.4554272697842208,0.0
2306,-0.7778021175153917,0.0
2307,0.162479403981309,0.0
2308,0.04884870276320531,0.0
2309,0.023099854832757605,0.0
2310,-0.03498089653132541,0.0
2311,0.007827326960025197,0.0
2312,-0.006222631815217023,0.0
2313,0.029627429067739033,0.0
2314,-0.0623655372200525,0.0
2315,-0.042440374910073034,0.0
2316,0.02219867207767195,0.0
2317,0.0208221960049822,0.0
2318,0.031150340638857,0.0
2319,-0.0024935939598056886,0.0
2320,0.24357253803552925,0.0
2321,3.808059467201024,0.0
2322,6.6794073146138455,0.0
2323,-1.0144314754284016,0.0
2324,-1.7159272423275305,0.0
2325,1.4845899841534558,0.0
2326,-0.7749131237033416,0.0
2327,0.09695300160537214,0.0
2328,-0.061655948232089,0.0
2329,-0.06521247418594874,0.0
2330,0.003510695549698614,0.0
2331,-0.06291838249580409,0.0
2332,-0.02969962179232456,0.0
2333,0.029128318660684126,0.0
2334,0.005802465922118884,0.0
2335,-0.012919466751684625,0.0
2336,-0.04466696902750995,0.0
2337,0.002968985703237415,0.0
2338,-0.0372140515549964,0.0
2339,0.025975953782397837,0.0
2340,0.3900528453220918,0.0
2341,3.9200225856787183,0.0
2342,6.78331543272968,0.0
2343,-0.960836387951562,0.0
2344,-1.5575247532974694,0.0
2345,1.4253769440645057,0.0
2346,-0.8422880089401558,0.0
2347,0.16381461756595167,0.0
2348,-0.026693508062526253,0.0
2349,0.03789722138512486,0.0
2350,0.04857688470170108,0.0
2351,-0.050645669957028926,0.0
2352,-0.024542339756617383,0.0
2353,-0.06868754859949719,0.0
2354,-0.06681135617034664,0.0
2355,-0.017493960743804472,0.0
2356,-0.05803164659859854,0.0
2357,-0.0612925950255029,0.0
2358,-0.06963872394472279,0.0
2359,0.04666212745952735,0.0
2360,0.46522922356985974,0.0
2361,3.858801637965929,0.0
2362,6.72269944886483,0.0
2363,-0.8741499304586443,0.0
2364,-1.5573786352798504,0.0
2365,1.5136018719797353,0.0
2366,-0.7751128361004131,0.0
2367,0.2750037372235711,0.0
2368,-0.01879115228722278,0.0
2369,-0.05747036504754802,0.0
2370,0.10374861525252294,0.0
2371,0.026620805243561554,0.0
2372,0.07370680835947366,0.0
2373,0.029118147765835555,0.0
2374,0.005700471747279429,0.0
2375,0.023056125351814567,0.0
2376,-0.026057035512074993,0.0
2377,-0.051990905839790165,0.0
2378,0.03255411194115718,0.0
2379,-0.004135914436991961,0.0
2380,0.3524464468325728,0.0
2381,3.8448867053006253,0.0
2382,6.68267299305934,0.0
2383,-0.8693215816910286,0.0
2384,-1.7015145363021786,0.0
2385,1.5223792458868628,0.0
2386,-0.7800297470761756,0.0
2387,0.09683764510735705,0.0
2388,-0.006215093337733901,0.0
2389,-0.05930836278984704,0.0
2390,-0.010573488644629897,0.0
2391,-0.04936760757311601,0.0
2392,-0.013914062198289215,0.0
2393,0.0008797987119127416,0.0
2394,-0.007893704672409182,0.0
2395,-0.04139820432690976,0.0
2396,-0.0005744275290567894,0.0
2397,0.042151321926630805,0.0
2398,-0.01505506259606087,0.0
2399,0.07990343658018656,0.0
2400,0.33056221312677325,0.0
2401,3.943542193369301,0.0
2402,6.662141925530628,0.0
2403,-0.8721333639616571,0.0
2404,-1.605512227475818,0.0
2405,1.4307600656216333,0.0
2406,-0.7337508552282674,0.0
2407,0.19793918507120256,0.0
2408,-0.07163613477468256,0.0
2409,-0.18789341640624752,0.0
2410,-0.10735476684630293,0.0
2411,0.006997289937174252,0.0
2412,0.019222211225404254,0.0
2413,0.06237005866923879,0.0
2414,-0.1030395318798487,0.0
2415,-0.04455291403082957,0.0
2416,-0.007211549561568916,0.0
2417,-0.024171843211929528,0.0
2418,0.03691599216670207,0.0
2419,0.10026483370848954,0.0
2420,0.4241457662785322,0.0
2421,3.95042478803059,0.0
2422,6.6602084739703535,0.0
2423,-0.8541875349887976,0.0
2424,-1.4878576396205134,0.0
2425,1.4954382057947693,0.0
2426,-0.7812020757605971,0.0
2427,0.21969987948679545,0.0
2428,0.005235624870493682,0.0
2429,-0.04555005615376828,0.0
2430,0.02346128785191234,0.0
2431,-0.013076156607909964,0.0
2432,0.03999551192197675,0.0
2433,-0.019975622183753212,0.0
2434,0.03512086631741672,0.0
2435,0.06642184714305051,0.0
2436,0.019786659665467044,0.0
2437,-0.015361752767370451,0.0
2438,-0.027437118654191257,0.0
2439,0.0243870212502594,0.0
2440,0.3401228795030284,0.0
2441,3.889637273769678,0.0
2442,6.571171749196249,0.0
2443,-0.8106333222593693,0.0
2444,-1.6007429326078937,0.0
2445,1.4681232338945613,0.0
2446,-0.7722732030098968,0.0
2447,0.15942471522153376,0.0
2448,-0.10111106546207464,0.0
2449,0.04338194571835382,0.0
2450,-0.08708597182773237,0.0
2451,4.437729496778887e-06,0.0
2452,0.05629833247786395,0.0
2453,-0.04245357485467876,0.0
2454,-0.09104958781206451,0.0
2455,0.06009299132203962,0.0
2456,-0.004301573948406922,0.0
2457,-0.06731774224660401,0.0
2458,0.01821554446736686,0.0
2459,-0.03536676158998127,0.0
2460,0.32298590315604886,0.0
2461,3.8846661934614546,0.0
2462,6.7019467550817975,0.0
2463,-0.8592796782820247,0.0
2464,-1.6281750037662028,0.0
2465,1.429357077040091,0.0
2466,-0.7796553537491526,0.0
2467,0.16994650955036616,0.0
2468,-0.0378472937580933,0.0
2469,-0.001977470871123703,0.0
2470,0.10545433595207976,0.0
2471,-0.03774785909299374,0.0
2472,0.023021872928506288,0.0
2473,0.01961041685170424,0.0
2474,0.020689620074603666,0.0
2475,0.06837973320519418,0.0
2476,0.026241028417206564,0.0
2477,-0.004854232636970608,0.0
2478,0.04164848814937095,0.0
2479,0.0026038717038858253,0.0
2480,0.3660236817896971,0.0
2481,4.022070308551267,0.0
2482,6.776702774684615,0.0
2483,-0.9726936300697755,0.0
2484,-1.5665230736507645,0.0
2485,1.51115620583464,0.0
2486,-0.7603053952322216,0.0
2487,0.23125691548347854,0.0
2488,-0.08854663990693076,0.0
2489,-0.11203641067520889,0.0
2490,-0.03464372642612115,0.0
2491,-0.06864574734145083,0.0
2492,-0.07939497373776798,0.0
2493,-0.10557816667207295,0.0
2494,-0.013414518229667653,0.0
2495,-0.008169971536972236,0.0
2496,0.04880247642501144,0.0
2497,-0.10255627723115811,0.0
2498,-0.026657153381708147,0.0
2499,0.04958311159138923,0.0
2500,0.3870805621684117,0.0
2501,3.904485528827136,0.0
2502,6.610786719532942,0.0
2503,-0.853910085934244,0.0
2504,-1.6076320858590811,0.0
2505,1.4601422349225732,0.0
2506,-0.6865962335104601,0.0
2507,0.2272495179153387,0.0
2508,-0.04974476976869546,0.0
2509,-0.01716309100904848,0.0
2510,0.00856444108993627,0.0
2511,0.0755200464234729,0.0
2512,0.03601001873226784,0.0
2513,-0.008143061530950601,0.0
2514,0.0023200641631198494,0.0
2515,0.009735803422841686,0.0
2516,0.005514181003934974,0.0
2517,0.12846722686067802,0.0
2518,0.1449845946067787,0.0
2519,0.001277978292487155,0.0
2520,0.4278688517285613,0.0
2521,3.9134819223279194,0.0
2522,6.72762173318844,0.0
2523,-0.7910027943172236,0.0
2524,-1.3994867594273117,0.0
2525,1.4910432754146095,0.0
2526,-0.6797019348888134,0.0
2527,0.32066561025024043,0.0
2528,0.07050425901785012,0.0
2529,0.07700915341788765,0.0
2530,0.08022732227221807,0.0
2531,0.1174032944288643,0.0
2532,0.043688003561057544,0.0
2533,0.08034865497871713,0.0
2534,-0.0234373068230493,0.0
2535,0.12783002070213517,0.0
2536,0.04290810479667139,0.0
2537,0.06081635670265581,0.0
2538,0.018334580924382515,0.0
2539,0.04087468418768815,0.0
2540,0.47056819623861,0.0
2541,3.9488255197473063,0.0
2542,6.60560462177089,0.0
2543,-0.9199309887474584,0.0
2544,-1.6004797404421456,0.0
2545,1.519669825983119,0.0
2546,-0.8497330671632984,0.0
2547,0.1683945565521552,0.0
2548,0.03292167668995104,0.0
2549,-0.057854754702917,0.0
2550,-0.0012405088886302401,0.0
2551,-0.01604511926729701,0.0
2552,-0.021419207419692738,0.0
2553,-0.02075889528587957,0.0
2554,0.06087937766444997,0.0
2555,0.024820135633881888,0.0
2556,-0.03188152840398677,0.0
2557,-0.012422122541059132,0.0
2558,0.017389722440977445,0.0
2559,0.04332849162254351,0.0
2560,0.3688744168349499,0.0
2561,3.9537940286838316,0.0
2562,6.717265294906015,0.0
2563,-1.0261057955168296,0.0
2564,-1.5164339173818924,0.0
2565,1.4499756475362275,0.0
2566,-0.7567621895067159,0.0
2567,0.13223951941336864,0.0
2568,0.11859949400227313,0.0
2569,-0.06756546256119333,0.0
2570,0.08911814307183719,0.0
2571,0.13950769710213515,0.0
2572,0.03290548583197648,0.0
2573,-0.009182073376312654,0.0
2574,0.03655273342776982,0.0
2575,0.11492609731296703,0.0
2576,0.06843625854219157,0.0
2577,0.0345838129944481,0.0
2578,0.06918491564493343,0.0
2579,0.14425005641313776,0.0
2580,0.5039538893547506,0.0
2581,3.9773259091891022,0.0
2582,6.663263182155419,0.0
2583,-0.8838305890395691,0.0
2584,-1.5093004681291744,0.0
2585,1.5209440840849469,0.0
2586,-0.7132988796840355,0.0
2587,0.2245392430842247,0.0
2588,0.0073719651256502275,0.0
2589,-0.0057209157431410635,0.0
2590,0.0387275705431912,0.0
2591,0.05321220122467684,0.0
2592,0.005922735281658622,0.0
2593,-0.02647984855771062,0.0
2594,-0.017755153757573718,0.0
2595,-0.11037920361910818,0.0
2596,0.05672898043368086,0.0
2597,-0.043679655433226834,0.0
2598,0.015723976264909272,0.0
2599,0.005199785451934904,0.0
2600,0.3756731838289256,0.0
2601,3.9182274008395934,0.0
2602,6.760959824467827,0.0
2603,-0.8875063939262817,0.0
2604,-1.5582738547305814,0.0
2605,1.4308547259225213,0.0
2606,-0.836265558263398,0.0
2607,0.24712199522902817,0.0
2608,-0.07563472117142281,0.0
2609,-0.043212667669980595,0.0
2610,0.08138744040938896,0.0
2611,0.013443495919283246,0.0
2612,0.06744459309245895,0.0
2613,0.023220557591965268,0.0
2614,0.010693457391692657,0.0
2615,-0.0261782561640748,0.0
2616,0.023488268115759662,0.0
2617,0.03572516042452698,0.0
2618,-0.02595158758471598,0.0
2619,0.022647972794157655,0.0
2620,0.3739528425047103,0.0
2621,4.0220680858872315,0.0
2622,6.669028385696902,0.0
2623,-0.9492775656719673,0.0
2624,-1.4829844508100074,0.0
2625,1.4434902445531332,0.0
2626,-0.8105701429081367,0.0
2627,0.29153168830060505,0.0
2628,0.055274611202896534,0.0
2629,0.038916662689604455,0.0
2630,0.07665554104042054,0.0
2631,0.03151894972129467,0.0
2632,0.09433069708836588,0.0
2633,0.01627484889605929,0.0
2634,0.02124254015656236,0.0
2635,0.033008529805822716,0.0
2636,-0.05221406647542881,0.0
2637,-0.08146317255849132,0.0
2638,-0.05332948463682825,0.0
2639,-0.04589335578518144,0.0
2640,0.32912922319071714,0.0
2641,3.8960738539280126,0.0
2642,6.595010217672434,0.0
2643,-1.032029213700492,0.0
2644,-1.5955009726276226,0.0
2645,1.442193212834213,0.0
2646,-0.8625390241252199,0.0
2647,0.13023046945101655,0.0
2648,-0.026533853183014044,0.0
2649,-0.09484859881718906,0.0
2650,-0.1278981067468779,0.0
2651,-0.15089376574724359,0.0
2652,-0.08181145665204274,0.0
2653,-0.009867152963176515,0.0
2654,-0.052578588671790626,0.0
2655,-0.07883561519179048,0.0
2656,0.021993947983805093,0.0
2657,0.0014892809584783132,0.0
2658,-0.14280203029020205,0.0
2659,0.021051732500793494,0.0
2660,0.3541893720229672,0.0
2661,3.9304858009361103,0.0
2662,6.65561299595204,0.0
2663,-1.0180977786282837,0.0
2664,-1.534618132360015,0.0
2665,1.3957029366302351,0.0
2666,-0.8431501066680067,0.0
2667,0.10901807328398885,0.0
2668,-0.02002896935047297,0.0
2669,-0.11403633066579417,0.0
2670,-0.04363983244390679,0.0
2671,-0.02180440422251717,0.0
2672,-0.012409967856506311,0.0
2673,-0.06511012753646915,0.0
2674,-0.1435766840470704,0.0
2675,-0.04618956040633113,0.0
2676,-0.04078597992795554,0.0
2677,-0.0721196571906322,0.0
2678,-0.10325608327719225,0.0
2679,-0.07972327043579402,0.0
2680,0.30000235458210717,0.0
2681,3.9276502860911306,0.0
2682,6.629636709065188,0.0
2683,-1.0728183935262607,0.0
2684,-1.6305820052544135,0.0
2685,1.4526138696425697,0.0
2686,-0.8178307460681591,0.0
2687,0.17642222659829923,0.0
2688,0.01928893450810648,0.0
2689,0.010409904846758605,0.0
2690,-0.00966323850897967,0.0
2691,-0.02897276525057695,0.0
2692,-0.10443738526493367,0.0
2693,-0.03966858364735601,0.0
2694,-0.028399539567487336,0.0
2695,-0.046466541689534444,0.0
2696,-0.028974319448837015,0.0
2697,0.08233480251862836,0.0
2698,-0.05886217889638547,0.0
2699,-0.04298238270440099,0.0
2700,0.3305482857956585,0.0
2701,4.0064114835957705,0.0
2702,6.578985273149602,0.0
2703,-1.0506468921862597,0.0
2704,-1.4936114690543159,0.0
2705,1.4008961994282374,0.0
2706,-0.7118016872630745,0.0
2707,0.2323884637887481,0.0
2708,-0.14212217728773377,0.0
2709,-0.05816073456101347,0.0
2710,0.00017769949992587492,0.0
2711,-0.0913446376410649,0.0
2712,-0.05636452696413268,0.0
2713,-0.07326429137574525,0.0
2714,-0.02603495556949724,0.0
2715,-0.06564263620195439,0.0
2716,-0.0973418685804163,0.0
2717,-0.08775718655473534,0.0
2718,-0.12071031677116181,0.0
2719,-0.0621075396256026,0.0
2720,0.26683415920655956,0.0
2721,3.8564595715677634,0.0
2722,6.564049796529274,0.0
2723,-1.0582221933498503,0.0
2724,-1.5634319975366302,0.0
2725,1.326325606566187,0.0
2726,-0.8935532368574071,0.0
2727,0.20713191873691603,0.0
2728,-0.09440381554507012,0.0
2729,-0.07592462866795766,0.0
2730,-0.05195755006255391,0.0
2731,-0.041463919457827764,0.0
2732,-0.07490519137263145,0.0
2733,-0.010364364693990026,0.0
2734,-0.05229092675305192,0.0
2735,-0.1252208195307178,0.0
2736,-0.035724145116926634,0.0
2737,-0.02907083488334667,0.0
2738,-0.10548103947833302,0.0
2739,-0.02075368319999319,0.0
2740,0.3851274794924127,0.0
2741,3.952390784221784,0.0
2742,6.656651688498317,0.0
2743,-1.0836633308759291,0.0
2744,-1.616956277307727,0.0
2745,1.3768609001221963,0.0
2746,-0.7040672815937591,0.0
2747,0.10494094718658006,0.0
2748,-0.06521209895952301,0.0
2749,-0.14857024612305353,0.0
2750,0.0029244935751613355,0.0
2751,-0.10628690146398842,0.0
2752,-0.11854369729688054,0.0
2753,-0.153207061383066,0.0
2754,-0.09789858234199272,0.0
2755,-0.033861752119431036,0.0
2756,-0.09755052287319954,0.0
2757,-0.07764113559882244,0.0
2758,-0.07206101592332768,0.0
2759,0.004878617070292593,0.0
2760,0.25491285980420525,0.0
2761,3.9574202654556885,0.0
2762,6.580681514167077,0.0
2763,-0.9615778211919935,0.0
2764,-1.5326414642791568,0.0
2765,1.4159873143249109,0.0
2766,-0.7484847176315356,0.0
2767,0.16777329001581148,0.0
2768,-0.10309026407655983,0.0
2769,0.014078765890383024,0.0
2770,-0.07236384948326498,0.0
2771,-0.03884931297302279,0.0
2772,0.0583175116044246,0.0
2773,0.04287347318214476,0.0
2774,0.019553937133017583,0.0
2775,-0.07024392311157118,0.0
2776,0.02109585464979495,0.0
2777,-0.016487744676632575,0.0
2778,-0.015327894242637433,0.0
2779,0.09401619041514422,0.0
2780,0.20312752709235316,0.0
2781,3.8227217588075018,0.0
2782,6.517076976682422,0.0
2783,-1.1144199122912573,0.0
2784,-1.5334198393262533,0.0
2785,1.4043860433363236,0.0
2786,-0.7711202994145807,0.0
2787,0.05217983281301214,0.0
2788,-0.17491623012644614,0.0
2789,-0.07538510639015938,0.0
2790,-0.009346037172508422,0.0
2791,-0.012549371043026142,0.0
2792,-0.0012773267840455477,0.0
2793,0.040178320099214924,0.0
2794,0.01771867978010636,0.0
2795,0.08411020345625553,0.0
2796,-0.044482025187014475,0.0
2797,-0.02384220986336265,0.0
2798,-0.012330496475835423,0.0
2799,-0.02270405929372334,0.0
2800,0.3422210004500857,0.0
2801,4.099198238091145,0.0
2802,6.6237671516867005,0.0
2803,-1.0237713193903792,0.0
2804,-1.5753119292930222,0.0
2805,1.4848256401135564,0.0
2806,-0.7352906829901192,0.0
2807,0.19277720466084966,0.0
2808,-0.03399442070630748,0.0
2809,0.0322297776375307,0.0
2810,0.045615531238491006,0.0
2811,0.012651591950862854,0.0
2812,-0.04278938031383113,0.0
2813,0.03729676188140213,0.0
2814,0.0626060158026987,0.0
2815,0.09541054060339975,0.0
2816,0.04810980958011956,0.0
2817,0.061135354212308965,0.0
2818,0.04067499319018132,0.0
2819,0.08248756452120735,0.0
2820,0.494282968479437,0.0
2821,3.9694061943172594,0.0
2822,6.735863611803658,0.0
2823,-1.0083150689806708,0.0
2824,-1.491451436894403,0.0
2825,1.5783974411338135,0.0
2826,-0.7908166192363592,0.0
2827,0.2220902060275332,0.0
2828,0.01383845253610927,0.0
2829,0.0032075394056519588,0.0
2830,-0.08150860341829917,0.0
2831,-0.05885959265812457,0.0
2832,-0.12108455081954464,0.0
2833,0.07840797915324771,0.0
2834,0.02657487973570853,0.0
2835,0.04162866237771568,0.0
2836,-0.07605086621441559,0.0
2837,-0.023759029943026738,0.0
2838,0.06731564930647058,0.0
2839,0.019336017624456584,0.0
2840,0.3751418949421103,0.0
2841,4.014541871010544,0.0
2842,6.68255504655456,0.0
2843,-0.9737551743502106,0.0
2844,-1.403836917906473,0.0
2845,1.4913354393141898,0.0
2846,-0.6374580780852107,0.0
2847,0.32599211075121376,0.0
2848,0.09675990713828833,0.0
2849,0.10840598404272786,0.0
2850,0.01830404592472762,0.0
2851,0.036290972927792285,0.0
2852,0.046428026558994126,0.0
2853,0.06073166019937254,0.0
2854,0.013355453452305939,0.0
2855,0.06415802637025184,0.0
2856,-0.010111847606900017,0.0
2857,0.022503776255648363,0.0
2858,-0.04355930191827423,0.0
2859,-0.01703686032301264,0.0
2860,0.32515789175166,0.0
2861,4.04828692766194,0.0
2862,6.650307429469786,0.0
2863,-1.1044203282865521,0.0
2864,-1.4540380639124342,0.0
2865,1.3215392590364488,0.0
2866,-0.7690158799390635,0.0
2867,0.20784383781472027,0.0
2868,-0.07069235613569019,0.0
2869,0.08655823954138979,0.0
2870,0.08666728070992388,0.0
2871,0.042556342425294644,0.0
2872,0.0321109316007612,0.0
2873,0.09836362713904753,0.0
2874,-0.006988444906632953,0.0
2875,-0.02407068191571518,0.0
2876,0.04106512235357254,0.0
2877,0.057372754072582535,0.0
2878,-0.054295004534738844,0.0
2879,0.08405732269857974,0.0
2880,0.43251616212848293,0.0
2881,4.013051196814,0.0
2882,6.693632519463653,0.0
2883,-0.9571385063002916,0.0
2884,-1.5126068630418632,0.0
2885,1.5426532666929547,0.0
2886,-0.6881502732123325,0.0
2887,0.15295437477005658,0.0
2888,0.08288093914675268,0.0
2889,0.005010134917981076,0.0
2890,0.029090243694071365,0.0
2891,0.09209146905113502,0.0
2892,0.12508450426838347,0.0
2893,0.013343668362683934,0.0
2894,-0.07968564925647684,0.0
2895,0.01187158874024779,0.0
2896,-0.011873264554117179,0.0
2897,0.021157681116092963,0.0
2898,-0.016447754669989927,0.0
2899,-0.02061459199242852,0.0
2900,0.39934269159056834,0.0
2901,4.039273760550453,0.0
2902,6.562958534104021,0.0
2903,-1.0961421454118299,0.0
2904,-1.4572538184979988,0.0
2905,1.383347282224746,0.0
2906,-0.773724624459298,0.0
2907,0.20797339416596836,0.0
2908,-0.026342840222393464,0.0
2909,0.059061885057897306,0.0
2910,-0.06153421141305779,0.0
2911,-0.007760710704388133,0.0
2912,0.030775383130169552,0.0
2913,-0.0573888377402383,0.0
2914,0.10294110316861285,0.0
2915,0.06671630206268649,0.0
2916,0.05340296453838517,0.0
2917,0.07810775568137321,0.0
2918,0.0345126285008486,0.0
2919,-0.017623852699196228,0.0
2920,0.3758838905861429,0.0
2921,4.06625368447375,0.0
2922,6.649640386905777,0.0
2923,-0.9410230809967366,0.0
2924,-1.418306775094739,0.0
2925,1.3700149584947854,0.0
2926,-0.7463263804625144,0.0
2927,0.23204902189468174,0.0
2928,0.017688685316719084,0.0
2929,0.0009746510545026524,0.0
2930,-0.04604860912294097,0.0
2931,-0.12041395935694175,0.0
2932,-0.030969704892722057,0.0
2933,0.03426277015798523,0.0
2934,-0.03920606607896712,0.0
2935,0.11982389922434283,0.0
2936,0.12343409044769256,0.0
2937,0.09004604933537377,0.0
2938,0.01775997449520704,0.0
2939,0.10260878896243081,0.0
2940,0.4449074433277233,0.0
2941,4.1332677267049,0.0
2942,6.768911198498624,0.0
2943,-0.9280658567687192,0.0
2944,-1.325065688974497,0.0
2945,1.5432211856980025,0.0
2946,-0.7023812964984767,0.0
2947,0.26524353203744494,0.0
2948,-0.012861338353696732,0.0
2949,-0.023988960027240526,0.0
2950,-0.004022060184906771,0.0
2951,0.007772173402347985,0.0
2952,0.005572042010271443,0.0
2953,0.0016714066130509297,0.0
2954,-0.06356628003688598,0.0
2955,-0.09103144440761407,0.0
2956,-0.03629936817263067,0.0
2957,-0.019417502179797437,0.0
2958,-0.0515978036510457,0.0
2959,-0.06322067276668417,0.0
2960,0.2775824080982048,0.0
2961,4.021255955760205,0.0
2962,6.5817076280741995,0.0
2963,-0.9958815990043601,0.0
2964,-1.5270370377937263,0.0
2965,1.4585664482869893,0.0
2966,-0.6856619021328432,0.0
2967,0.1855612919280218,0.0
2968,-0.04102202489953416,0.0
2969,-0.02359675116329943,0.0
2970,-0.08317162615030982,0.0
2971,-0.0028674052453366633,0.0
2972,0.057447465584280745,0.0
2973,-0.0034029119619411576,0.0
2974,0.03434420672069187,0.0
2975,-0.005193186219794461,0.0
2976,0.1420244231784842,0.0
2977,-0.021809764433440244,0.0
2978,-0.041035850158336794,0.0
2979,-0.10176260675741688,0.0
2980,0.39398959719534016,0.0
2981,4.032775400892265,0.0
2982,6.622263779430121,0.0
2983,-1.0791451356736976,0.0
2984,-1.4455594341036413,0.0
2985,1.487875796224877,0.0
2986,-0.6731610542951413,0.0
2987,0.15701982967160566,0.0
2988,-0.015027046807452248,0.0
2989,-0.03586254517913788,0.0
2990,-0.03258321138478076,0.0
2991,-0.08413018180982333,0.0
2992,-0.0045077716258011885,0.0
2993,-0.010963995658227041,0.0
2994,0.020801362471972416,0.0
2995,-0.00020401712172682363,0.0
2996,0.03643588386814275,0.0
2997,0.09211437963994602,0.0
2998,0.02056448913554846,0.0
2999,-0.07918996203468673,0.0
3000,0.49066541446821993,0.0
3001,3.9830300705722093,0.0
3002,6.625796893089419,0.0
3003,-1.089753907660544,0.0
3004,-1.5746616353452048,0.0
3005,1.510334329930688,0.0
3006,-0.7971242202548051,0.0
3007,0.11348763757005847,0.0
3008,-0.006450349869660143,0.0
3009,-0.022971672185579998,0.0
3010,0.019596416376848436,0.0
3011,-0.0021584051560411995,0.0
3012,-0.1363333871680242,0.0
3013,-0.017476170812761815,0.0
3014,-0.06812906206619226,0.0
3015,0.06539410014412247,0.0
3016,-0.03207123647121564,0.0
3017,-0.04800524623820157,0.0
3018,0.04663690768817374,0.0
3019,-0.0757692198423679,0.0
3020,0.4009954158136478,0.0
3021,4.050778724767456,0.0
3022,6.568326740286627,0.0
3023,-1.0616479814994926,0.0
3024,-1.4880681731819183,0.0
3025,1.4360433999093578,0.0
3026,-0.8155481243395504,0.0
3027,0.18357971717426663,0.0
3028,-0.15120193387035877,0.0
3029,0.03200994376934424,0.0
3030,0.15727151353096724,0.0
3031,-0.02575528812913988,0.0
3032,0.07378741581305086,0.0
3033,-0.0004764572264314409,0.0
3034,0.010722713145208652,0.0
3035,0.04680660296609683,0.0
3036,-0.029683406612244386,0.0
3037,0.003353864035053321,0.0
3038,0.07374276756379645,0.0
3039,-0.024684427466759227,0.0
3040,0.31453151208144986,0.0
3041,4.065128353242216,0.0
3042,6.64771858235391,0.0
3043,-1.109168344610753,0.0
3044,-1.4562081377310367,0.0
3045,1.3840042154215415,0.0
3046,-0.731918171393138,0.0
3047,0.13097870725022226,0.0
3048,-0.056586593376812655,0.0
3049,-0.036647126975221614,0.0
3050,-0.010639563675942855,0.0
3051,0.014123082463753394,0.0
3052,0.03482035837713253,0.0
3053,0.013594041840489228,0.0
3054,-0.026908605407879812,0.0
3055,0.08143704074828559,0.0
3056,-0.08588908835675235,0.0
3057,0.07078541871376277,0.0
3058,0.018897963580252086,0.0
3059,0.012928078784379795,0.0
3060,0.43951731420184154,0.0
3061,4.140154709839307,0.0
3062,6.526013159687024,0.0
3063,-1.029630842556241,0.0
3064,-1.473392833800346,0.0
3065,1.3416741818504074,0.0
3066,-0.8384622554828566,0.0
3067,0.2431751069148894,0.0
3068,-0.047607096518101674,0.0
3069,-0.03521757457644626,0.0
3070,0.01757321438483219,0.0
3071,-0.02522977487261615,0.0
3072,-0.05717275674752753,0.0
3073,0.05516056884635804,0.0
3074,0.03431990737058755,0.0
3075,0.030227102943650427,0.0
3076,0.11279143880713229,0.0
3077,0.047420079454939694,0.0
3078,0.06580069317312641,0.0
3079,0.07912451110397051,0.0
3080,0.41097194399575543,0.0
3081,4.001348085723231,0.0
3082,6.562776990470149,0.0
3083,-0.9811538652476167,0.0
3084,-1.4171505468911343,0.0
3085,1.5311520340829594,0.0
3086,-0.7332138928392252,0.0
3087,0.29309976019767303,0.0
3088,-0.07429118022810602,0.0
3089,0.01683137731683645,0.0
3090,0.08870499700794947,0.0
3091,0.02143180792284794,0.0
3092,0.026032921940919496,0.0
3093,-0.0508512381189772,0.0
3094,-0.01693013393413965,0.0
3095,0.01635019385970112,0.0
3096,0.05660980388821551,0.0
3097,-0.0866949019681495,0.0
3098,0.02194155239840583,0.0
3099,-0.14715587818345344,0.0
3100,0.3824456321306271,0.0
3101,3.9978739494496773,0.0
3102,6.5933079722581365,0.0
3103,-1.1437318439088526,0.0
3104,-1.419443193566041,0.0
3105,1.3218234101928277,0.0
3106,-0.8269022461155051,0.0
3107,0.19477290896556246,0.0
3108,-0.06928462109997177,0.0
3109,-0.0566192291941979,0.0
3110,-0.11234214165846688,0.0
3111,-0.08362590814634599,0.0
3112,-0.07650624329525639,0.0
3113,0.05004601303246849,0.0
3114,0.014078385290116548,0.0
3115,-0.07639139182330372,0.0
3116,0.03406604388306195,0.0
3117,0.0252845751413679,0.0
3118,-0.024751838187067263,0.0
3119,-0.010493682355852275,0.0
3120,0.4151060972947834,0.0
3121,4.084246965211654,0.0
3122,6.624576975912665,0.0
3123,-1.0788460639974875,0.0
3124,-1.4644906612162087,0.0
3125,1.382295213434981,0.0
3126,-0.7928740401823118,0.0
3127,0.11501114424443065,0.0
3128,-0.01906330316864318,0.0
3129,0.025466297970664922,0.0
3130,0.04625737192103391,0.0
3131,-0.02006649620267854,0.0
3132,-0.02151541810824226,0.0
3133,0.024981575064569467,0.0
3134,-0.033618779320421836,0.0
3135,-0.20647408182852425,0.0
3136,-0.014992708794848406,0.0
3137,0.006401064226064311,0.0
3138,-0.053486745665436916,0.0
3139,0.03218285964266436,0.0
3140,0.35718561195682247,0.0
3141,4.040117139433236,0.0
3142,6.631141880536749,0.0
3143,-1.0599014447792952,0.0
3144,-1.5341705202835765,0.0
3145,1.5255562084403713,0.0
3146,-0.842214960510054,0.0
3147,0.20360821170318572,0.0
3148,-0.05068301886814582,0.0
3149,-0.0451505586966867,0.0
3150,-0.06793505159750299,0.0
3151,-0.035036055822276244,0.0
3152,-0.09457782061132936,0.0
3153,-0.077085505979927,0.0
3154,-5.941162516680948e-05,0.0
3155,-0.04677933222626649,0.0
3156,0.01150998172309755,0.0
3157,0.025346501019974352,0.0
3158,-0.0698943908757244,0.0
3159,0.05141052183750326,0.0
3160,0.42147292590742197,0.0
3161,4.036985898009081,0.0
3162,6.641579703538196,0.0
3163,-1.1271874028092936,0.0
3164,-1.416768201150205,0.0
3165,1.4679110379127414,0.0
3166,-0.7985800343797953,0.0
3167,0.21992882153767115,0.0
3168,-0.10839137538520657,0.0
3169,-0.03151514432428636,0.0
3170,-0.03384931387465999,0.0
3171,-0.10020258689591247,0.0
3172,-0.12431178384982597,0.0
3173,-0.07764139854399324,0.0
3174,-0.11781735062297924,0.0
3175,-0.06288002771915922,0.0
3176,0.022762344328083287,0.0
3177,-0.1319465584051176,0.0
3178,-0.0004280361720119634,0.0
3179,-0.01201921802259286,0.0
3180,0.3942469778806183,0.0
3181,4.02464939690694,0.0
3182,6.4425618956001935,0.0
3183,-1.1104876426934773,0.0
3184,-1.422615764096542,0.0
3185,1.4467857857846933,0.0
3186,-0.7747491963915378,0.0
3187,0.22524238460350735,0.0
3188,-0.0037126429892066146,0.0
3189,-0.0029190933549073372,0.0
3190,0.023439862778637622,0.0
3191,-0.02794384367542513,0.0
3192,0.09995007607470292,0.0
3193,0.022492662226015307,0.0
3194,-0.0049912695612305,0.0
3195,-0.04601037721951305,0.0
3196,0.018433810509333345,0.0
3197,0.08257976257511562,0.0
3198,0.09197350013578413,0.0
3199,0.03347751877716843,0.0
3200,0.44707786094400886,0.0
3201,4.138459272345197,0.0
3202,6.544931772376482,0.0
3203,-1.1337757936079638,0.0
3204,-1.467769512585916,0.0
3205,1.454793144964967,0.0
3206,-0.7981845609501476,0.0
3207,0.17114344089760197,0.0
3208,-0.04841656979155867,0.0
3209,-0.0082573463669312,0.0
3210,0.00496762601265496,0.0
3211,-0.016817551973492093,0.0
3212,-0.06588842051510987,0.0
3213,0.03752921662706038,0.0
3214,-0.027960098689269228,0.0
3215,-0.09084558770829336,0.0
3216,-0.08545028559362206,0.0
3217,0.013043476215533211,0.0
3218,-0.007851049293453594,0.0
3219,0.052171537344380854,0.0
3220,0.34566426520107224,0.0
3221,4.119203695090649,0.0
3222,6.502217301630242,0.0
3223,-1.087954374813491,0.0
3224,-1.4095483409965943,0.0
3225,1.4874052559450992,0.0
3226,-0.7077162147332694,0.0
3227,0.25927218823910425,0.0
3228,0.03738352908057706,0.0
3229,-0.07103398858537266,0.0
3230,-0.00290272339854087,0.0
3231,0.000799483051372122,0.0
3232,0.037066559238997154,0.0
3233,-0.019717280461558552,0.0
3234,-0.06380806221317746,0.0
3235,0.0030336054496589923,0.0
3236,-0.15732626672442357,0.0
3237,0.02892322924542034,0.0
3238,0.05995176504597837,0.0
3239,-0.027136442659628567,0.0
3240,0.47325278558154266,0.0
3241,4.042705430208656,0.0
3242,6.744330995650512,0.0
3243,-1.100336419075161,0.0
3244,-1.3896750039915915,0.0
3245,1.4238535993214427,0.0
3246,-0.7788269998066061,0.0
3247,0.2295680809753934,0.0
3248,0.047963585614712645,0.0
3249,-0.026913922742374547,0.0
3250,0.08041930853283802,0.0
3251,0.0649091240866779,0.0
3252,0.033142376898579816,0.0
3253,0.039439714153269925,0.0
3254,0.03773993813564029,0.0
3255,-0.03414536781621771,0.0
3256,-0.012431862658572958,0.0
3257,0.01047473415475606,0.0
3258,0.056297261966251747,0.0
3259,0.04800158422510771,0.0
3260,0.467365793738719,0.0
3261,4.071953796076369,0.0
3262,6.650653959418835,0.0
3263,-1.100971947394689,0.0
3264,-1.4090497150281884,0.0
3265,1.4136759415750255,0.0
3266,-0.8093246904156204,0.0
3267,0.18093209660503334,0.0
3268,0.04136857304495643,0.0
3269,0.03703485849265732,0.0
3270,0.07836624538740815,0.0
3271,0.019935179713220043,0.0
3272,0.019848769042751523,0.0
3273,-0.08023318206931546,0.0
3274,0.01439789414522763,0.0
3275,0.02644526213204678,0.0
3276,0.013377064500131599,0.0
3277,0.08003585624013673,0.0
3278,0.0417347502714385,0.0
3279,0.08439058431489418,0.0
3280,0.45310945843984457,0.0
3281,4.034777501478229,0.0
3282,6.615348526812571,0.0
3283,-1.1219222194258085,0.0
3284,-1.3653401837701096,0.0
3285,1.536842000383958,0.0
3286,-0.6946031791751813,0.0
3287,0.2416580673785928,0.0
3288,-0.023576608075288264,0.0
3289,-0.040042974961044434,0.0
3290,-0.037629510304864194,0.0
3291,0.10688739075351178,0.0
3292,-0.00015387454055669665,0.0
3293,-0.018408084851238966,0.0
3294,0.028688593693614386,0.0
3295,-0.0007663231404025899,0.0
3296,0.026613896882464932,0.0
3297,-0.03859711761171622,0.0
3298,0.017984772108589085,0.0
3299,0.05734432006353729,0.0
3300,0.4329683462392917,0.0
3301,4.067731761007291,0.0
3302,6.5629968306429864,0.0
3303,-1.1588455607772732,0.0
3304,-1.3475586744118693,0.0
3305,1.4963463467435945,0.0
3306,-0.7960920484379544,0.0
3307,0.24189949755156018,0.0
3308,-0.021403057634151335,0.0
3309,-0.018458084961165883,0.0
3310,-0.02576278517748091,0.0
3311,0.07942590911165734,0.0
3312,0.007638542019700951,0.0
3313,-0.05353787481899182,0.0
3314,0.06529428332156556,0.0
3315,-0.023039994706884386,0.0
3316,-0.0697214234218789,0.0
3317,-0.046994009306786516,0.0
3318,-0.08413196837356551,0.0
3319,-0.031500102073358544,0.0
3320,0.4362753066294233,0.0
3321,4.073581370101399,0.0
3322,6.606132306361882,0.0
3323,-1.1258262545376638,0.0
3324,-1.4456451039016378,0.0
3325,1.4108048966669287,0.0
3326,-0.7737132119051965,0.0
3327,0.39814792239067703,0.0
3328,0.01735464587025903,0.0
3329,-0.08623879662307657,0.0
3330,0.09297842848779797,0.0
3331,0.10321773016494154,0.0
3332,0.03971441421520088,0.0
3333,0.046814741391963906,0.0
3334,0.061902414535238925,0.0
3335,-0.0185694175485141,0.0
3336,-0.019985704947154955,0.0
3337,-0.006305312725724689,0.0
3338,-0.022971495111129194,0.0
3339,0.030960924918727588,0.0
3340,0.42997318576171445,0.0
3341,4.1695781924053374,0.0
3342,6.634080005078733,0.0
3343,-1.0370387095709972,0.0
3344,-1.3612251014396712,0.0
3345,1.513119248318089,0.0
3346,-0.7493711178215618,0.0
3347,0.26435385614196244,0.0
3348,0.05106480916863173,0.0
3349,-0.009503697212667597,0.0
3350,0.17205402919818444,0.0
3351,0.10805534460394198,0.0
3352,0.1440508859595429,0.0
3353,0.002399653250483025,0.0
3354,-0.006093829065018763,0.0
3355,0.14822837863263555,0.0
3356,0.050148825423935485,0.0
3357,0.15230964016603604,0.0
3358,0.016273332256377768,0.0
3359,0.04419450244121668,0.0
3360,0.43184583275499705,0.0
3361,4.193177374224933,0.0
3362,6.578638598315461,0.0
3363,-1.1231067241802228,0.0
3364,-1.3658128880499252,0.0
3365,1.47735468238248,0.0
3366,-0.799924355112048,0.0
3367,0.326034664296284,0.0
3368,0.0683755147456524,0.0
3369,-0.0401522619026729,0.0
3370,0.039433598544008346,0.0
3371,0.019192713331838716,0.0
3372,0.04706874347938745,0.0
3373,0.062369793689749695,0.0
3374,0.09552114730614804,0.0
3375,0.07739190692204781,0.0
3376,0.06887218961374483,0.0
3377,0.03567711987156297,0.0
3378,0.08415747502937933,0.0
3379,0.10329896074035166,0.0
3380,0.47890461661740635,0.0
3381,4.214095962315304,0.0
3382,6.7765658256579,0.0
3383,-0.9667631623080488,0.0
3384,-1.2581777069440807,0.0
3385,1.557145636589104,0.0
3386,-0.6259402766094702,0.0
3387,0.4114896037098118,0.0
3388,0.16301396838549256,0.0
3389,0.009905510737948459,0.0
3390,0.12372533052413387,0.0
3391,0.12343537495093992,0.0
3392,0.08625779709918013,0.0
3393,0.05947267606892219,0.0
3394,0.08962566682761931,0.0
3395,0.05981489232353566,0.0
3396,0.029054776138859192,0.0
3397,0.08173234341117894,0.0
3398,0.03664732192546541,0.0
3399,0.06487115507786832,0.0
3400,0.4055742662104793,0.0
3401,4.04636833016745,0.0
3402,6.609630201847023,0.0
3403,-1.076098853240586,0.0
3404,-1.4271409651235458,0.0
3405,1.4763523622895525,0.0
3406,-0.7091373751449065,0.0
3407,0.24609536120961353,0.0
3408,0.04419077020807606,0.0
3409,0.010375953178621763,0.0
3410,0.12311194332007716,0.0
3411,0.11171522771100861,0.0
3412,0.0966637901774221,0.0
3413,0.12237359076255878,0.0
3414,0.1458045542884131,0.0
3415,0.057101017566765166,0.0
3416,0.08611300279736778,0.0
3417,0.010440805844936875,0.0
3418,-0.019867011331320142,0.0
3419,0.018104038687081464,0.0
3420,0.44462471861563874,0.0
3421,4.275944572222584,0.0
3422,6.64375303478069,0.0
3423,-1.1548570356125147,0.0
3424,-1.3294563142511189,0.0
3425,1.5836688787158537,0.0
3426,-0.6595179812692561,0.0
3427,0.23726132153009713,0.0
3428,0.023222091518249027,0.0
3429,0.09358903229713744,0.0
3430,0.03846186728339003,0.0
3431,0.06850679369204495,0.0
3432,0.06258875120883238,0.0
3433,0.10630467271129833,0.0
3434,0.09068645023942445,0.0
3435,0.06528417096735191,0.0
3436,0.17612095701582703,0.0
3437,0.13104482703539652,0.0
3438,0.056603606496193615,0.0
3439,0.16510568774827647,0.0
3440,0.5173126834143811,0.0
3441,4.334471246598419,0.0
3442,6.726190665618018,0.0
3443,-1.1259842812207357,0.0
3444,-1.3018605624566268,0.0
3445,1.5874371188195515,0.0
3446,-0.7399353436821653,0.0
3447,0.2698162259504383,0.0
3448,0.04031671878433032,0.0
3449,-0.018382509968334033,0.0
3450,0.03550741101896081,0.0
3451,0.0774798585609277,0.0
3452,0.07421759855622724,0.0
3453,0.08263279342960556,0.0
3454,-0.00014267947235245548,0.0
3455,0.02665629347180597,0.0
3456,0.0011119083222759195,0.0
3457,-0.0022909853561232894,0.0
3458,-0.01247232519034569,0.0
3459,0.06972548563619363,0.0
3460,0.5136268472866327,0.0
3461,4.1720516572411785,0.0
3462,6.702481820784311,0.0
3463,-1.1501626223358243,0.0
3464,-1.387173203986193,0.0
3465,1.4903136340754652,0.0
3466,-0.7275190686378178,0.0
3467,0.38145394997388554,0.0
3468,0.09623082560108573,0.0
3469,0.1198129192655221,0.0
3470,0.05415943672179318,0.0
3471,-0.02207947491530647,0.0
3472,0.09117052191175144,0.0
3473,-0.0036379254979970535,0.0
3474,0.044722517424781096,0.0
3475,-0.022892639323568942,0.0
3476,-0.03191503878589284,0.0
3477,-0.01562722074323744,0.0
3478,0.04218427494621449,0.0
3479,-0.06196307555923242,0.0
3480,0.44878698700612496,0.0
3481,4.067213241382822,0.0
3482,6.525488994269144,0.0
3483,-1.1148674372569538,0.0
3484,-1.3738109749275929,0.0
3485,1.417218045880313,0.0
3486,-0.922188550549053,0.0
3487,0.28932754367264596,0.0
3488,-0.027526222340450525,0.0
3489,0.03522604024789112,0.0
3490,0.09600106057301587,0.0
3491,-0.01428151390019864,0.0
3492,0.07023654645057625,0.0
3493,0.12919253203858194,0.0
3494,0.026407288741448355,0.0
3495,0.0990678730450626,0.0
3496,0.061572043956421844,0.0
3497,0.008642695940332713,0.0
3498,0.10871535975267171,0.0
3499,0.08829155616895687,0.0
3500,0.575451253342425,0.0
3501,4.082544356008904,0.0
3502,6.62389960949419,0.0
3503,-1.068592326205946,0.0
3504,-1.2963979277133164,0.0
3505,1.5817764829170233,0.0
3506,-0.7131735683000371,0.0
3507,0.2855375189836073,0.0
3508,0.14388307157866204,0.0
3509,0.11692358526935745,0.0
3510,0.04945227251113856,0.0
3511,0.03769654308346062,0.0
3512,0.04535717581551417,0.0
3513,0.029026933076477024,0.0
3514,0.03402198113339279,0.0
3515,0.035210875354738776,0.0
3516,-0.10086345081304658,0.0
3517,0.010572834444222239,0.0
3518,0.012309092677226116,0.0
3519,0.08009583799984987,0.0
3520,0.45682861104047445,0.0
3521,4.115558296354749,0.0
3522,6.496887990403329,0.0
3523,-1.141896652694384,0.0
3524,-1.3519438734130056,0.0
3525,1.4554925903202491,0.0
3526,-0.7829939377517446,0.0
3527,0.2604893918360182,0.0
3528,0.012926786835110105,0.0
3529,0.0013371836433407197,0.0
3530,-0.01471466768583329,0.0
3531,0.00459212014367448,0.0
3532,0.0679515290181418,0.0
3533,-0.0035714588483755604,0.0
3534,0.04483683681056374,0.0
3535,-0.03201137199186141,0.0
3536,0.109806052368509,0.0
3537,0.017192287463639554,0.0
3538,0.06554463590575271,0.0
3539,-0.0032548631726600358,0.0
3540,0.46689914089749,0.0
3541,4.217288506030052,0.0
3542,6.616312798831067,0.0
3543,-1.1845023311200367,0.0
3544,-1.3127292896150284,0.0
3545,1.4832793586661648,0.0
3546,-0.7384562697553446,0.0
3547,0.2985493400479606,0.0
3548,0.04461618309363671,0.0
3549,-0.018553306294945643,0.0
3550,0.15461204539293394,0.0
3551,0.037243081900543214,0.0
3552,0.1162454158831866,0.0
3553,0.06331537661283942,0.0
3554,0.12595519953001047,0.0
3555,0.018492666937286198,0.0
3556,0.03028891566229313,0.0
3557,-0.045023530199868635,0.0
3558,0.061764250326066694,0.0
3559,-0.023369553938859856,0.0
3560,0.543076358042868,0.0
3561,4.107083521321099,0.0
3562,6.571483161635081,0.0
3563,-1.1785708221539142,0.0
3564,-1.3970740994687811,0.0
3565,1.459923694019907,0.0
3566,-0.8014661282046375,0.0
3567,0.27723206970152714,0.0
3568,-0.008369815058304714,0.0
3569,0.018852653925795347,0.0
3570,-0.02470285612177859,0.0
3571,-0.055364744245207535,0.0
3572,-0.06674673157136342,0.0
3573,-0.010808625219760235,0.0
3574,0.05785269810124664,0.0
3575,0.07191379654024277,0.0
3576,0.037797088807851195,0.0
3577,-0.08227655968365809,0.0
3578,0.0661555254369683,0.0
3579,-0.01018922415484802,0.0
3580,0.48914944170469266,0.0
3581,4.174132368993645,0.0
3582,6.442457774396952,0.0
3583,-1.1551545621931738,0.0
3584,-1.2804728076377891,0.0
3585,1.4388831440843588,0.0
3586,-0.7645587874469458,0.0
3587,0.2071543462239478,0.0
3588,0.0031349788299358024,0.0
3589,0.012674871565309527,0.0
3590,0.02953223051514139,0.0
3591,-0.038809037541757366,0.0
3592,-0.02480090675095796,0.0
3593,0.0596173859464017,0.0
3594,0.007538015560704041,0.0
3595,0.10543989909545243,0.0
3596,0.005144904973591113,0.0
3597,0.07086345689454035,0.0
3598,0.042449261379072296,0.0
3599,0.019696233176175568,0.0
3600,0.4400547938578342,0.0
3601,4.199681935933288,0.0
3602,6.596814350547488,0.0
3603,-1.2574903567214377,0.0
3604,-1.3733147328086188,0.0
3605,1.3914610535924308,0.0
3606,-0.7784739819326814,0.0
3607,0.2588626632278377,0.0
3608,-0.0038466940561544885,0.0
3609,0.02506255881554731,0.0
3610,-0.031812916633691124,0.0
3611,-0.07917584959549995,0.0
3612,0.08858662080640835,0.0
3613,0.08921346932578963,0.0
3614,-0.0613742365428071,0.0
3615,0.008522924300605975,0.0
3616,-0.013358356240686929,0.0
3617,0.032796672427314585,0.0
3618,-0.000625385765423982,0.0
3619,0.03803888716486003,0.0
3620,0.4272359425417279,0.0
3621,4.124645989194025,0.0
3622,6.536381587904313,0.0
3623,-1.2149952511393536,0.0
3624,-1.360603711399851,0.0
3625,1.3697409958459832,0.0
3626,-0.7443648371160312,0.0
3627,0.27182432987877353,0.0
3628,-0.025168387718791502,0.0
3629,0.030496816047270343,0.0
3630,0.06636447917844782,0.0
3631,0.008922474124412716,0.0
3632,-0.03412298417795011,0.0
3633,0.04707775625047936,0.0
3634,-0.0973925607560119,0.0
3635,0.01723881553650466,0.0
3636,0.03262235401025667,0.0
3637,0.03495038245408492,0.0
3638,0.02487583180337158,0.0
3639,-0.011164453506666335,0.0
3640,0.3924389728010828,0.0
3641,4.107643567325734,0.0
3642,6.583688600357921,0.0
3643,-1.3000265028298212,0.0
3644,-1.322859625081097,0.0
3645,1.3604105518014868,0.0
3646,-0.8648117376568216,0.0
3647,0.1994318335764585,0.0
3648,-0.013539323368874832,0.0
3649,-0.13056802423244693,0.0
3650,0.001101440375285631,0.0
3651,-0.04835257265839962,0.0
3652,-0.05217871947354727,0.0
3653,-0.006967726549094069,0.0
3654,-0.12774504535938044,0.0
3655,-0.14495572163627565,0.0
3656,-0.056446359999036515,0.0
3657,-0.11552427817627409,0.0
3658,-0.12079879519719944,0.0
3659,-0.09782545894321003,0.0
3660,0.3604963084251033,0.0
3661,4.020536885172045,0.0
3662,6.475331816321591,0.0
3663,-1.2318137006864993,0.0
3664,-1.3371597798469774,0.0
3665,1.3807558514213356,0.0
3666,-0.7383853010525251,0.0
3667,0.27405812742712043,0.0
3668,-0.002780790188127623,0.0
3669,-0.09234927663423827,0.0
3670,-0.012933516055098113,0.0
3671,-0.07427890372638261,0.0
3672,0.04972021730076053,0.0
3673,0.05088079543625922,0.0
3674,0.06586092568303017,0.0
3675,0.019143770785563334,0.0
3676,0.028815327842650527,0.0
3677,-0.04705256865005503,0.0
3678,-0.02394392774044886,0.0
3679,-0.03527575178697299,0.0
3680,0.3568089017135102,0.0
3681,4.111708438087633,0.0
3682,6.649959624001136,0.0
3683,-1.1916797580890885,0.0
3684,-1.3588169165309614,0.0
3685,1.3902613838103948,0.0
3686,-0.7605670730562537,0.0
3687,0.23113848104847026,0.0
3688,0.008821812627398465,0.0
3689,0.060373595643687196,0.0
3690,0.012682175485348671,0.0
3691,-0.0998841817028579,0.0
3692,0.1241426576165021,0.0
3693,-0.008360774072091594,0.0
3694,0.0386133057191861,0.0
3695,0.005454525004660164,0.0
3696,-0.0014490698537284867,0.0
3697,-0.09779562364361606,0.0
3698,-0.054440609543713006,0.0
3699,-0.015830120225215454,0.0
3700,0.4470950026223705,0.0
3701,4.104729152318511,0.0
3702,6.510967945594976,0.0
3703,-1.2806794519835152,0.0
3704,-1.47819536053915,0.0
3705,1.3908193338854287,0.0
3706,-0.8604626961751803,0.0
3707,0.17805419805951286,0.0
3708,0.007368548222477428,0.0
3709,-0.05763792895908975,0.0
3710,-0.08877598721221482,0.0
3711,0.01194948565374225,0.0
3712,0.03072277211635353,0.0
3713,-0.06938508765589502,0.0
3714,0.042970694848464844,0.0
3715,-0.06579946216464462,0.0
3716,-0.08900711275715506,0.0
3717,0.02128613576980149,0.0
3718,0.02065533467158029,0.0
3719,-0.01312794689039692,0.0
3720,0.47167326976095436,0.0
3721,4.154470527430174,0.0
3722,6.547154048267618,0.0
3723,-1.2673341647772423,0.0
3724,-1.3803145657142721,0.0
3725,1.4210941306395126,0.0
3726,-0.7639646228994216,0.0
3727,0.22536789991430933,0.0
3728,-0.10332854573627301,0.0
3729,-0.09888067225859044,0.0
3730,-0.08834110647437857,0.0
3731,-0.11041893995705215,0.0
3732,-0.14473474047741813,0.0
3733,-0.12403150869084237,0.0
3734,-0.05209032119332944,0.0
3735,-0.08808883352778651,0.0
3736,-0.030884615537596243,0.0
3737,-0.10799124572592855,0.0
3738,-0.08579623220726,0.0
3739,-0.11225725436445526,0.0
3740,0.33084807532824856,0.0
3741,4.2026025829535945,0.0
3742,6.462300336229433,0.0
3743,-1.3368013312463198,0.0
3744,-1.3100253715170136,0.0
3745,1.442788702999819,0.0
3746,-0.7704356637007959,0.0
3747,0.21367335082157765,0.0
3748,-0.01338222920818604,0.0
3749,-0.02862124373072033,0.0
3750,-0.0346010933986084,0.0
3751,-0.13376710153641036,0.0
3752,-0.12629976550422242,0.0
3753,-0.07536929180570713,0.0
3754,-0.10898492513350805,0.0
3755,-0.010806096220671513,0.0
3756,-0.009771685907911172,0.0
3757,-0.016286412574949758,0.0
3758,-0.04650435763945052,0.0
3759,-0.05252472458411732,0.0
3760,0.4646234209435082,0.0
3761,4.148372391737214,0.0
3762,6.477860072810203,0.0
3763,-1.2788283228063042,0.0
3764,-1.4284081587066415,0.0
3765,1.3789194548822077,0.0
3766,-0.9032465517679912,0.0
3767,0.16700562935190633,0.0
3768,-0.08869530399371409,0.0
3769,0.009319332969167829,0.0
3770,-0.06326167043432485,0.0
3771,-0.09963538270552479,0.0
3772,0.03304401350832398,0.0
3773,0.03286717044347322,0.0
3774,-0.00045529080783174997,0.0
3775,-0.08920894529567809,0.0
3776,-0.0509568579502174,0.0
3777,-0.02031216342459599,0.0
3778,-0.06668671642274766,0.0
3779,-0.053546215187957324,0.0
3780,0.36121092260758175,0.0
3781,4.107453004606454,0.0
3782,6.3788283058439506,0.0
3783,-1.3652946593946156,0.0
3784,-1.3556566861648782,0.0
3785,1.3626556204497373,0.0
3786,-0.8175998223352788,0.0
3787,0.18899276108167393,0.0
3788,-0.09323073173150853,0.0
3789,-0.07918217122127227,0.0
3790,-0.0809502858882583,0.0
3791,-0.0908498288325323,0.0
3792,-0.00507075069769472,0.0
3793,0.016481316055937528,0.0
3794,-0.08964217544429284,0.0
3795,0.07643335069230131,0.0
3796,-0.08355230328329404,0.0
3797,-0.032679215713179895,0.0
3798,-0.0053279836686318145,0.0
3799,-0.016289207979643668,0.0
3800,0.3269588986901899,0.0
3801,4.1898829351133,0.0
3802,6.455041616367943,0.0
3803,-1.2595470591921343,0.0
3804,-1.2930215851990967,0.0
3805,1.3946701947555729,0.0
3806,-0.8822322651411998,0.0
3807,0.1774167064236035,0.0
3808,-0.06748304973624977,0.0
3809,-0.1033179397801373,0.0
3810,-0.03481314120114661,0.0
3811,-0.07967786640516125,0.0
3812,-0.06508656125973893,0.0
3813,-0.13827369467015188,0.0
3814,0.0020392027382017675,0.0
3815,-0.07192795229222285,0.0
3816,0.08660995881034739,0.0
3817,-0.055970564073333284,0.0
3818,-0.14999386141882015,0.0
3819,-0.0959120165652532,0.0
3820,0.470006668125233,0.0
3821,4.138573169241433,0.0
3822,6.3837517008405245,0.0
3823,-1.350733335601253,0.0
3824,-1.3771742487533243,0.0
3825,1.3493069649553107,0.0
3826,-0.8861793796888623,0.0
3827,0.21611170564787832,0.0
3828,-0.07240231753388221,0.0
3829,-0.18238299871384805,0.0
3830,-0.07848305252450033,0.0
3831,-0.02617547082453598,0.0
3832,-0.08340728968262727,0.0
3833,-0.005054787316081402,0.0
3834,-0.12530789998027544,0.0
3835,-0.027333442774634724,0.0
3836,-0.003087061346532971,0.0
3837,-0.05811498280615005,0.0
3838,0.0024653170954141365,0.0
3839,-0.00826484458740831,0.0
3840,0.3965337122835163,0.0
3841,4.286369153739638,0.0
3842,6.491537901100128,0.0
3843,-1.235490080447164,0.0
3844,-1.2709139438801889,0.0
3845,1.3135135955294877,0.0
3846,-0.7751103567636028,0.0
3847,0.24574893880774681,0.0
3848,-0.035695365597222084,0.0
3849,-0.09721464330536608,0.0
3850,0.023871851662923604,0.0
3851,0.06573670084429664,0.0
3852,-0.12841617898570834,0.0
3853,-0.06982299875128253,0.0
3854,-0.08317594705913317,0.0
3855,-0.0772696052805066,0.0
3856,-0.08234718201435048,0.0
3857,-0.13629238173467007,0.0
3858,-0.1132875181543399,0.0
3859,-0.11588471695222896,0.0
3860,0.3308829866564492,0.0
3861,4.018180085064204,0.0
3862,6.424370691215379,0.0
3863,-1.3379996055450305,0.0
3864,-1.3946508833824713,0.0
3865,1.2648605984339576,0.0
3866,-0.8694145127902116,0.0
3867,0.17388530566122695,0.0
3868,-0.1843784305981639,0.0
3869,-0.13783595099115928,0.0
3870,-0.07909997037145584,0.0
3871,-0.09648190861351362,0.0
3872,-0.0748475083288504,0.0
3873,-0.051292824677006854,0.0
3874,-0.009510084482031667,0.0
3875,-0.14439062226822222,0.0
3876,-0.04915139082428739,0.0
3877,-0.1153863666107195,0.0
3878,-0.08971862514075563,0.0
3879,-0.006624956136385918,0.0
3880,0.3288803832769111,0.0
3881,4.032660259847104,0.0
3882,6.387598414402233,0.0
3883,-1.4200261326552157,0.0
3884,-1.459843636293225,0.0
3885,1.3475326784877903,0.0
3886,-0.923793709316697,0.0
3887,0.170940923121301,0.0
3888,-0.09322535679945637,0.0
3889,-0.15535225909356323,0.0
3890,-0.050070979092693625,0.0
3891,-0.053848788223978074,0.0
3892,-0.04800730831809672,0.0
3893,0.005674430109933203,0.0
3894,-0.06117089091249281,0.0
3895,-0.07360727658858693,0.0
3896,0.03277933239652272,0.0
3897,0.025996230124995426,0.0
3898,-0.07967204110825782,0.0
3899,-0.11707097638843214,0.0
3900,0.3561598304918036,0.0
3901,4.10969317388,0.0
3902,6.421150920152162,0.0
3903,-1.2971296414550015,0.0
3904,-1.396006036775387,0.0
3905,1.312524377982713,0.0
3906,-0.7583112253549517,0.0
3907,0.14566009983788816,0.0
3908,-0.07425148286595058,0.0
3909,-0.005150251429830367,0.0
3910,0.024410317530303267,0.0
3911,0.049014496360159795,0.0
3912,-0.14762168867996361,0.0
3913,0.03322166304870408,0.0
3914,0.010264318937801718,0.0
3915,0.02708517990518756,0.0
3916,0.04544447752528117,0.0
3917,-0.050427718066676425,0.0
3918,0.03460629398268632,0.0
3919,-0.01320500744059058,0.0
3920,0.4950422728787064,0.0
3921,4.17981042879285,0.0
3922,6.581282222497409,0.0
3923,-1.2270329219944474,0.0
3924,-1.2527715628322282,0.0
3925,1.5035429831102698,0.0
3926,-0.712347890793752,0.0
3927,0.2716336787588022,0.0
3928,0.04046153609550008,0.0
3929,0.046546150570715164,0.0
3930,0.1602718306057776,0.0
3931,-0.020489445941292386,0.0
3932,0.05376976500781133,0.0
3933,0.09955523729761477,0.0
3934,0.029345565474342944,0.0
3935,0.060493596251310996,0.0
3936,0.07134383098435157,0.0
3937,-0.043382224639074374,0.0
3938,0.15294649233013236,0.0
3939,0.033925244387923936,0.0
3940,0.47596170406696703,0.0
3941,4.235920133852968,0.0
3942,6.582975005840571,0.0
3943,-1.38873353423444,0.0
3944,-1.387785976685028,0.0
3945,1.295288323903209,0.0
3946,-0.8191574211660922,0.0
3947,0.2655211196305878,0.0
3948,-0.11214964045443541,0.0
3949,-0.01676669843598367,0.0
3950,-0.06288951688322605,0.0
3951,-0.006865573371073479,0.0
3952,-0.02561818596657077,0.0
3953,0.056914654457632226,0.0
3954,-0.060308199786943545,0.0
3955,0.08189912678570901,0.0
3956,0.014588091891919012,0.0
3957,0.08058961428750805,0.0
3958,-0.046532327610170926,0.0
3959,0.04947774661172321,0.0
3960,0.40029503096265695,0.0
3961,4.184765006333753,0.0
3962,6.493600719434762,0.0
3963,-1.3423320958693539,0.0
3964,-1.3338742045619882,0.0
3965,1.310598527971482,0.0
3966,-0.8711397529170974,0.0
3967,0.23376826887087152,0.0
3968,-0.05924184780796767,0.0
3969,-0.04863868852381491,0.0
3970,0.002634477973375661,0.0
3971,-0.03150303756609364,0.0
3972,-0.02605481073110421,0.0
3973,-0.06366713956759679,0.0
3974,-0.008447264548993909,0.0
3975,-0.019207902852200302,0.0
3976,-0.014042832110810782,0.0
3977,0.026160264490144067,0.0
3978,-0.02847795074657862,0.0
3979,0.03796988518847659,0.0
3980,0.4255210184861914,0.0
3981,4.163022067484506,0.0
3982,6.489380710716782,0.0
3983,-1.3346079657917471,0.0
3984,-1.2307075418739482,0.0
3985,1.4337404456902443,0.0
3986,-0.827439231259507,0.0
3987,0.3253682616213661,0.0
3988,-0.026995490495872215,0.0
3989,-0.05005278604629281,0.0
3990,0.0569791754726757,0.0
3991,0.005082089637883067,0.0
3992,-0.06331543333175718,0.0
3993,-0.029640519940939802,0.0
3994,0.04046412937832808,0.0
3995,-0.034007907072008875,0.0
3996,-0.02509370429099791,0.0
3997,0.0020856200796218194,0.0
3998,-0.005787416416739348,0.0
3999,-0.09169741182585352,0.0
4000,0.29961088423835613,0.0
4001,4.169690903699293,0.0
4002,6.4189676237669895,0.0
4003,-1.450771687077914,0.0
4004,-1.4104220685560622,0.0
4005,1.4080013318174682,0.0
4006,-0.6984212792997566,0.0
4007,0.17962771520367443,0.0
4008,-0.10252567803547608,0.0
4009,0.008216503089574074,0.0
4010,0.004985969341676638,0.0
4011,0.013342358224467806,0.0
4012,0.037687326046853285,0.0
4013,0.09774915760840502,0.0
4014,0.007680459121916991,0.0
4015,0.11608835586022555,0.0
4016,0.07551762630865287,0.0
4017,0.10957150239773661,0.0
4018,0.025230010819015613,0.0
4019,0.052284208540472984,0.0
4020,0.4761867754444022,0.0
4021,4.326252915618544,0.0
4022,6.507504425015408,0.0
4023,-1.3034590557225971,0.0
4024,-1.3316059792258628,0.0
4025,1.376521389426666,0.0
4026,-0.6942728271714125,0.0
4027,0.22742300514488425,0.0
4028,0.013921743923894406,0.0
4029,-0.06406605541035909,0.0
4030,-0.003989146308308569,0.0
4031,-0.05398117594320792,0.0
4032,0.026643425952593853,0.0
4033,0.020547983602810998,0.0
4034,-0.06411632656204383,0.0
4035,0.08123545334321339,0.0
4036,-0.013293754391174641,0.0
4037,-0.0415773492765532,0.0
4038,-0.011217689773810678,0.0
4039,0.04372687420502543,0.0
4040,0.45114672809596174,0.0
4041,4.224953864958525,0.0
4042,6.542780316051079,0.0
4043,-1.3432847632067106,0.0
4044,-1.3000278578386963,0.0
4045,1.416299280374741,0.0
4046,-0.7555122356819585,0.0
4047,0.27437133821986837,0.0
4048,0.1037451296678417,0.0
4049,0.14405304498303834,0.0
4050,0.06786420622447532,0.0
4051,0.198308468083867,0.0
4052,0.03308232962913551,0.0
4053,0.07814151242216297,0.0
4054,0.1430424830490033,0.0
4055,0.016175029927909125,0.0
4056,0.030409168762669327,0.0
4057,-0.04025244836159674,0.0
4058,0.09114004324828469,0.0
4059,-0.05659225376556165,0.0
4060,0.4454469929996395,0.0
4061,4.160762201391661,0.0
4062,6.508127086074059,0.0
4063,-1.4435094043570558,0.0
4064,-1.3322840491286474,0.0
4065,1.2750114603295217,0.0
4066,-0.8114796100456371,0.0
4067,0.11248717815156183,0.0
4068,-0.11226275490466099,0.0
4069,0.05119167985634599,0.0
4070,-0.02872518164873355,0.0
4071,0.0012288920631767768,0.0
4072,0.04356098337901132,0.0
4073,0.06269683933151737,0.0
4074,-0.0349709759522743,0.0
4075,0.023616855260590437,0.0
4076,0.019117816688570714,0.0
4077,0.008469445656017646,0.0
4078,0.09253588791810823,0.0
4079,0.03254267650329867,0.0
4080,0.4823054523470308,0.0
4081,4.257299475504841,0.0
4082,6.5395832352747645,0.0
4083,-1.3492037832554287,0.0
4084,-1.2639530292325383,0.0
4085,1.4202934807465635,0.0
4086,-0.7224416125350347,0.0
4087,0.30686246713323057,0.0
4088,-0.0824542350761464,0.0
4089,0.04252467567909311,0.0
4090,0.1572250229222775,0.0
4091,0.02692344678260248,0.0
4092,0.10698692689887306,0.0
4093,0.03433898782543592,0.0
4094,0.08933916691475793,0.0
4095,0.029097675579764663,0.0
4096,0.1474926860938491,0.0
4097,0.04021600897067719,0.0
4098,0.0617765413105969,0.0
4099,0.04898002432521849,0.0
4100,0.3759350035900907,0.0
4101,4.207318243046532,0.0
4102,6.464257607304754,0.0
4103,-1.2755403176877436,0.0
4104,-1.2226584847195694,0.0
4105,1.4083752206599252,0.0
4106,-0.7708864685821993,0.0
4107,0.24571641886499646,0.0
4108,-0.03663118615581971,0.0
4109,-0.041428417973415496,0.0
4110,0.0779946988274437,0.0
4111,-0.03593172446836958,0.0
4112,0.06358774538823063,0.0
4113,-0.03824018195594206,0.0
4114,-0.011824990840537947,0.0
4115,-0.02760987308265911,0.0
4116,0.08736644645200715,0.0
4117,-0.011444990216601836,0.0
4118,0.0293555253963797,0.0
4119,0.04296895227344743,0.0
4120,0.5821596855883107,0.0
4121,4.200319524693811,0.0
4122,6.5493401258836546,0.0
4123,-1.263944213319857,0.0
4124,-1.2281497007205417,0.0
4125,1.3590441048913586,0.0
4126,-0.7226926909927593,0.0
4127,0.3263792693561499,0.0
4128,-0.03394304211148788,0.0
4129,0.015711730898216352,0.0
4130,0.02886441253569014,0.0
4131,0.044616123875626926,0.0
4132,-0.0026620184184916705,0.0
4133,0.0824130404964343,0.0
4134,0.016927733737150685,0.0
4135,-0.021501284476012655,0.0
4136,-0.07560953502454296,0.0
4137,0.05896673494643197,0.0
4138,0.07878944467590931,0.0
4139,-0.030237399197061622,0.0
4140,0.48860649222892705,0.0
4141,4.253888358245962,0.0
4142,6.537588386867769,0.0
4143,-1.405707425276825,0.0
4144,-1.2751543632616849,0.0
4145,1.3952437234336554,0.0
4146,-0.8189301706900628,0.0
4147,0.2801317540501415,0.0
4148,-0.05753771308125144,0.0
4149,-0.08733315917037318,0.0
