timestamp,value-0,is_anomaly
0,-1.482181619726001,0
1,-1.725116312724392,0
2,-1.553397733111176,0
3,0.17743349368608863,0
4,0.582033081761492,0
5,2.223323207419546,0
6,2.486936829033175,0
7,2.7399997786585195,0
8,4.143853145346276,0
9,4.586162742161137,0
10,4.934171484279325,0
11,4.094635501627117,0
12,3.1413807364664637,0
13,0.702801221061351,0
14,-0.7933376576622306,0
15,-1.8635163663660024,0
16,-3.680466141579741,0
17,-3.976031361996267,0
18,-5.143497550162698,0
19,-4.293661866636139,0
20,-3.4088730420877114,0
21,-3.009142579418617,0
22,-1.2026586893161995,0
23,-0.7308089233645463,0
24,-0.028184698712778067,0
25,-0.19241014221671415,0
26,-1.257786815211077,0
27,-1.3464270990957072,0
28,-1.9004427085798532,0
29,-1.901113062621527,0
30,-2.8796075483046,0
31,-2.877472747389258,0
32,-2.8604723518468687,0
33,-2.0162494247206073,0
34,-1.8824102335130606,0
35,-1.5437263207589431,0
36,-2.3164621187031798,0
37,-0.8225802807404801,0
38,-1.0318365417641837,0
39,-1.8857162205064666,0
40,-1.7750305050682804,0
41,-0.8311400782068669,0
42,-2.2159025723145387,0
43,-2.6424924852243055,0
44,-1.5669631144558211,0
45,-2.167329557452223,0
46,-2.1092649533113783,0
47,-1.348427080834108,0
48,-2.1541709278387837,0
49,-2.1766637014686148,0
50,-1.6507110337338662,0
51,-1.5673531275105277,0
52,-1.5340530439495532,0
53,-1.2646546128731595,0
54,-0.9660030110411447,0
55,-1.6601088679176708,0
56,-1.7610252651252454,0
57,-1.3001097655320686,0
58,-1.0090880333392769,0
59,-2.4665724268127445,0
60,-1.3950782428460458,0
61,-1.971787684884455,0
62,-0.76126017583757,0
63,-1.9579852360676575,0
64,-2.1635308820682626,0
65,-0.47824192971945245,0
66,-1.8664839264877646,0
67,-2.0140953592500574,0
68,-1.4442227253426658,0
69,-0.7765289994439523,0
70,-1.9530079291227695,0
71,-1.9517989128005695,0
72,-1.5957720812261005,0
73,-1.5160404962605674,0
74,-1.2365201367673269,0
75,-1.6111458505137264,0
76,-1.7975451854851097,0
77,-1.3265782417196852,0
78,-1.480883470585461,0
79,-1.1065234616702686,0
80,-1.7634276184767073,0
81,-1.5878891093595984,0
82,-1.8492964385747563,0
83,-1.7415566776872404,0
84,-1.9754546683976975,0
85,-2.221919905508051,0
86,-1.6827676986151447,0
87,-1.2002539385399047,0
88,-1.610522631827801,0
89,-1.2797268951248468,0
90,-2.2112105129906263,0
91,-1.6949620888603236,0
92,-1.6420336662501585,0
93,-1.188417714226054,0
94,-1.3338193966321048,0
95,-1.7741929125824905,0
96,-1.5672978807927989,0
97,-1.347438258659201,0
98,-1.6377991641177496,0
99,-1.1551093479868486,0
100,-2.7619324464545434,0
101,-1.411921594924569,0
102,-0.5878457692619357,0
103,0.00998747476752082,0
104,0.7616905844531658,0
105,1.721894256572286,0
106,2.957164363768175,0
107,4.129734770095264,0
108,5.344061100488091,0
109,5.437733233072866,0
110,6.07162610645793,0
111,4.486538679689131,0
112,2.5759631219194086,0
113,2.067021073684726,0
114,0.6714732015371339,0
115,-1.4571629580605778,0
116,-3.3776990906099984,0
117,-4.415690935322628,0
118,-4.891721845653866,0
119,-5.491660843363334,0
120,-2.8990555695530076,0
121,-2.1505032535980666,0
122,-2.3214193517519064,0
123,-0.7573672796342843,0
124,0.2282796691933393,0
125,-0.5948685157869409,0
126,0.08996859570334825,0
127,-0.5685264930956488,0
128,-1.6565131860107667,0
129,-0.6158488605618821,0
130,-2.878284610485009,0
131,-1.4742438307500847,0
132,-2.4847312604519063,0
133,-1.9500312135918343,0
134,-0.9403520604784386,0
135,-2.432686543009492,0
136,-1.386225082183857,0
137,-1.3701587617379163,0
138,-0.9174756649973677,0
139,-1.1129573363181162,0
140,-0.7275260082012915,0
141,-1.3013806738891371,0
142,-1.0096532691973066,0
143,-0.9883386526271309,0
144,-1.0028622093961819,0
145,-1.3581093490673246,0
146,-1.760641806227277,0
147,-0.31155348660040666,0
148,-1.7554687871746302,0
149,-1.1031957676980755,0
150,-1.5905487628751014,0
151,-1.2422300879444605,0
152,-1.2555331261439682,0
153,-1.4910716550358896,0
154,-1.4469552995759958,0
155,-1.5862942541802405,0
156,-1.4044500032652487,0
157,-1.1859952062152253,0
158,-1.5125124793368863,0
159,-1.583655946542373,0
160,-1.076454177473813,0
161,-0.26243769674250267,0
162,-1.6273323532602832,0
163,-1.5300560996793617,0
164,-1.5108091689299084,0
165,-0.5273995148599998,0
166,-1.654514592096414,0
167,-1.145661934902779,0
168,-1.4142570463762367,0
169,-1.2881643288576379,0
170,-1.3325512986360875,0
171,-1.0614254882311722,0
172,-0.8773013269150344,0
173,-1.4542203041274637,0
174,-0.8222122076149345,0
175,-0.971262872432481,0
176,-1.7777976498305121,0
177,0.12560196061392212,0
178,-1.6494237051442397,0
179,-1.7685391188148405,0
180,-1.931683253775834,0
181,-0.5419086479448283,0
182,-0.8892602143562176,0
183,-1.618811526285512,0
184,-1.1145649733225,0
185,-2.0343388341458586,0
186,-1.170936956180989,0
187,-1.6507225479825087,0
188,-1.9511564185921226,0
189,-2.3458834765769683,0
190,-0.7432030531733146,0
191,-1.2099600564125697,0
192,-1.264282692626552,0
193,-1.6421107234156476,0
194,-1.1764061263453018,0
195,-0.7182924839493479,0
196,-0.7420664103007669,0
197,-1.979472960204112,0
198,-1.132268827189308,0
199,-0.9290133455399997,0
200,-1.2511851592151,0
201,-1.6130988958465535,0
202,-0.2889034664356134,0
203,1.389902333975002,0
204,1.1450984858479634,0
205,2.6853640156790624,0
206,3.8901176317919903,0
207,4.339438567061865,0
208,5.829942182825045,0
209,5.224455157152246,0
210,5.561955244903431,0
211,4.979306311758249,0
212,4.128847886141124,0
213,3.012434798983967,0
214,1.560091065691938,0
215,-1.331301798329025,0
216,-3.1355275971216425,0
217,-3.6084700718924503,0
218,-4.138765727184137,0
219,-3.6044175355678214,0
220,-2.9567992210471026,0
221,-1.1481643213880233,0
222,-0.2998655407036605,0
223,0.45844997526612685,0
224,1.4807576035499714,0
225,0.8357641872485628,0
226,-0.1899929745358404,0
227,-0.6716732357417087,0
228,0.2785812584070739,0
229,-1.9212376175069394,0
230,-1.2221208553225775,0
231,-1.211577890526366,0
232,-1.8639445096150222,0
233,-0.5392149122247643,0
234,-0.21269776880854507,0
235,-0.3802319527414198,0
236,-1.140898680680626,0
237,1.043783838246405,0
238,-0.8249238301464148,0
239,-0.694842526530729,0
240,-0.7684028124807993,0
241,-1.1450404406867742,0
242,-1.2416739457051025,0
243,-1.2598277846236912,0
244,-1.049455199090969,0
245,-2.2364897390722893,0
246,-1.427525989791555,0
247,-0.7409997726878693,0
248,-0.4150956222934708,0
249,-1.8414769843326046,0
250,0.15829018416887877,0
251,-0.9368664261723192,0
252,-0.7879115173589119,0
253,-1.7380595883052885,0
254,-0.6036603543106513,0
255,-1.0343604944505493,0
256,-0.6322840925836265,0
257,-1.0923513929806796,0
258,-0.8316642153020134,0
259,-1.901024917974234,0
260,-1.1166707416999428,0
261,-1.029068250453928,0
262,-0.29531987447573993,0
263,-1.0391549516360994,0
264,-1.018632087239579,0
265,-0.702851900248238,0
266,-0.3333696885503604,0
267,-0.9547577030560992,0
268,-1.4863799328076246,0
269,-0.8688213335703596,0
270,-0.9271256795744043,0
271,-0.4343370908426129,0
272,-0.7612724750123017,0
273,-1.0808513635399433,0
274,-0.706204609232842,0
275,-1.0179900651097546,0
276,-0.9000661059295552,0
277,-0.626578900761818,0
278,-1.1112887438536643,0
279,-0.11114853189431353,0
280,-0.9281080904655833,0
281,-1.4054793183749466,0
282,-0.9976529578378877,0
283,-0.34644436969389975,0
284,-0.6489792484183295,0
285,-1.7182655122083086,0
286,-0.1082701297280185,0
287,-1.0556366873867253,0
288,-0.23116918419161545,0
289,-0.925339434641545,0
290,0.019688826830143648,0
291,-0.7963948124552188,0
292,-0.12758331844033508,0
293,-0.8052796035464205,0
294,0.13017462180832037,0
295,-0.5296390625922952,0
296,-0.1550761270141418,0
297,-2.0859370099195798,0
298,-0.36356282022603337,0
299,0.28460308911679055,0
300,-0.6436760811588156,0
301,0.27628171517117367,0
302,-1.0294301722896981,0
303,0.8885428004930609,0
304,2.211418913509726,0
305,2.5095702996103357,0
306,4.528206375502479,0
307,4.740105943229448,0
308,5.736792054161081,0
309,6.894584880414342,0
310,6.23939220306826,0
311,6.196928400231066,0
312,4.6109838867078565,0
313,3.586587568859194,0
314,1.2394719696612784,0
315,-0.8604258874091586,0
316,-1.391694646840186,0
317,-2.5338775892925263,0
318,-3.5568535899655345,0
319,-3.3562520515934042,0
320,-2.9789564197592897,0
321,-1.8540845680078268,0
322,-0.07392595541132138,0
323,0.6282912652293399,0
324,1.3812743978357853,0
325,0.8482254714255009,0
326,0.5218845706954274,0
327,-0.0661530756608274,0
328,-0.08532353130561321,0
329,-0.9134298139999557,0
330,-1.0749095957034902,0
331,-0.6371598866850989,0
332,-1.5299676015590715,0
333,-1.247124312558966,0
334,-0.8155416242273656,0
335,0.032968772352020254,0
336,-0.2463078268581015,0
337,-0.31468347069707986,0
338,-0.165512829064962,0
339,-0.7539186467730423,0
340,-1.1331561658934302,0
341,-0.374185091632176,0
342,-0.7656599205557482,0
343,-1.4179931628407747,0
344,-1.5932427217705902,0
345,0.13466363225910438,0
346,0.19698353466370078,0
347,0.5938490687997418,0
348,-0.11892578241280016,0
349,-0.0868150909348377,0
350,-0.19556713066155498,0
351,0.03524228376126919,0
352,-0.9160987610443316,0
353,-1.54354942562203,0
354,-1.443154498558701,0
355,-1.249614382975935,0
356,-0.2830743865232461,0
357,-1.0577682658517968,0
358,-1.2673743603965242,0
359,-0.3366211732741817,0
360,-0.023553443074697256,0
361,-0.36013157441219285,0
362,0.6648600367657304,0
363,-1.096358875371442,0
364,-1.0731768179452112,0
365,-0.3173661068192155,0
366,-0.5458542944748347,0
367,-0.6346427633712991,0
368,-0.07619863628010386,0
369,-0.26555367301202365,0
370,-0.9644887884987849,0
371,-0.7391947979051615,0
372,-0.6273254562327347,0
373,-0.8243762132092538,0
374,0.23881126271388708,0
375,-1.055224760766009,0
376,-0.8380748715740194,0
377,-0.3972109115465112,0
378,-0.17825170110253533,0
379,-1.1564954265185254,0
380,0.16277632491083094,0
381,-0.3452873747456469,0
382,-0.8451013501460654,0
383,-0.47014723268280634,0
384,-0.5268870912347107,0
385,-0.4199294168102036,0
386,-0.22113894367419495,0
387,-0.6961383793369831,0
388,-1.172399665269053,0
389,-1.355837094924866,0
390,-0.7577996797977459,0
391,-0.8269277508173953,0
392,-1.2321411345563102,0
393,-0.5929236976515484,0
394,0.09071657303303554,0
395,-0.3040888357544684,0
396,-1.3654376785971252,0
397,-0.4302475928748609,0
398,-0.9241432078098899,0
399,-1.24539394179451,0
400,-0.14115142731711366,0
401,-1.2366853473011883,0
402,0.759828430733553,0
403,2.4693082137880076,0
404,2.3329423406472354,0
405,2.6331961989522488,0
406,4.783312312095424,0
407,5.82696002555043,0
408,5.533674817552278,0
409,7.43765057200573,0
410,7.148713478208087,0
411,6.120393861922845,0
412,4.4456471426839705,0
413,3.46592452202018,0
414,1.8636682174221646,0
415,-0.7313228286591842,0
416,-1.0238765015198625,0
417,-3.4897049352509693,0
418,-3.5651525136171207,0
419,-3.4062461742429844,0
420,-2.8733821579801537,0
421,-1.7704777380702934,0
422,0.14903085242607544,0
423,1.9199526449001925,0
424,1.3350936046482988,0
425,1.694651844668444,0
426,1.4511387017105004,0
427,0.4909259579985632,0
428,0.6719340491379744,0
429,0.180543537810808,0
430,-1.3228270291085253,0
431,-0.853593054663022,0
432,-1.3079018237648947,0
433,0.049443537359851075,0
434,-0.9717066366196182,0
435,0.017683464204661006,0
436,0.3641030202840545,0
437,0.7977847515342722,0
438,0.885621592262125,0
439,0.7370752246863539,0
440,0.2630708454549215,0
441,0.27989099087374786,0
442,-0.011544461210493934,0
443,0.376628465129526,0
444,-0.04597119276795906,0
445,0.3180411003233534,0
446,-0.3935457813258622,0
447,-0.8147615232738706,0
448,-0.5166447425845038,0
449,0.011275360751922398,0
450,0.43716245830986067,0
451,-0.12771312214213748,0
452,-0.46616158760591786,0
453,1.2389171490827653,0
454,0.9276495938202954,0
455,-0.0998171487768876,0
456,-0.16873800972600134,0
457,0.8412908824627107,0
458,-0.9029013297558101,0
459,-0.7336178986671971,0
460,-0.4071121477441195,0
461,-0.23981542975780812,0
462,-0.4053283729181647,0
463,0.3989297111729137,0
464,0.06847353968125067,0
465,-0.12390166104039468,0
466,0.49564293948903315,0
467,0.6649573477907608,0
468,0.05990640169017189,0
469,0.001479216629880653,0
470,0.7776833123425949,0
471,0.3649141364292663,0
472,-0.5676515735846812,0
473,0.6890792434709683,0
474,0.4407005150722487,0
475,-0.02894596397382826,0
476,0.1244290153474241,0
477,0.6317851398563901,0
478,-0.1599605718224656,0
479,-0.48181482752857024,0
480,-0.5849709761415,0
481,-0.022093633254170734,0
482,0.5529270308530805,0
483,1.0717936102605108,0
484,-0.4387246413413955,0
485,0.9429384615518116,0
486,0.38008571142695874,0
487,1.018837247714231,0
488,0.11502545262235653,0
489,-0.567704585011372,0
490,-0.35170193190219107,0
491,-0.38751793660294276,0
492,-0.583905716408674,0
493,-0.06680369511896056,0
494,-0.30713103510513473,0
495,0.5489933103160483,0
496,-0.4851473958275466,0
497,0.5013762333972906,0
498,0.6219871451441265,0
499,0.9639021574843039,0
500,0.2770106034266848,0
501,1.5759843482899005,0
502,1.7945147263163923,0
503,1.9925486544275377,0
504,2.53647076507023,0
505,4.431439602370008,0
506,3.923460418695931,0
507,5.4455293217304845,0
508,5.8364636452350815,0
509,5.737944947291837,0
510,6.512533285905811,0
511,6.0125166548517495,0
512,5.798838630946566,0
513,3.8567366229132376,0
514,2.120858215738656,0
515,1.3432936497067824,0
516,-0.07728711011279166,0
517,-1.7379002606724439,0
518,-3.0136820654279166,0
519,-2.6712613239121388,0
520,-1.087066650609843,0
521,-0.9517037679262421,0
522,0.7172097315064355,0
523,1.515712524266164,0
524,1.5553241560426119,0
525,2.1325577478815063,0
526,1.8040927492886685,0
527,0.8032794834291379,0
528,0.7923496067494995,0
529,-0.4017639183297899,0
530,-0.20078964464697557,0
531,-0.408575293235952,0
532,-0.4072537623171631,0
533,0.10656222298383228,0
534,0.9547447622579711,0
535,0.7944318610717864,0
536,0.2061327442027321,0
537,0.25294674925093297,0
538,0.13249169191061022,0
539,0.7748827341847717,0
540,0.16337121680374078,0
541,0.06191394696861461,0
542,-0.5729495162729792,0
543,0.05307911999619325,0
544,1.1057689414910776,0
545,0.14199543555920804,0
546,-0.14875406786538947,0
547,0.14489316946633854,0
548,0.8312524996877922,0
549,0.3454736604455235,0
550,0.9109260867628092,0
551,-0.3051266658131101,0
552,-0.06172106192874366,0
553,-0.15423353153828467,0
554,1.2998180742104855,0
555,0.23943519223966747,0
556,-0.14222400550504802,0
557,0.308804613105061,0
558,1.0148307167488846,0
559,0.2944107588193103,0
560,0.7573562537864963,0
561,0.315627817020377,0
562,0.41579977827458,0
563,0.04907245396701197,0
564,0.022439912613758835,0
565,0.3788869248336372,0
566,0.6506309035751952,0
567,0.41634661588343685,0
568,0.8414246960915929,0
569,0.19500295046598345,0
570,0.07450985168037691,0
571,0.8496101927881153,0
572,0.48932685734690157,0
573,0.6574738772584741,0
574,1.0527728576293067,0
575,0.3799378380584809,0
576,0.5478416898838504,0
577,1.0501059951029452,0
578,0.2902736861801264,0
579,0.9652284570346875,0
580,0.826697390578466,0
581,0.22854179684246487,0
582,1.3653847766347877,0
583,0.5382503015051308,0
584,0.2825792987063199,0
585,0.43264812083606213,0
586,0.6602476978905589,0
587,1.3783515669854733,0
588,0.46258830553123237,0
589,0.7233898080546918,0
590,0.20390710660219594,0
591,0.5376474950110371,0
592,1.5851103899234025,0
593,0.6719952980263392,0
594,0.6329175055432716,0
595,0.8494867380279415,0
596,-0.20620737195938976,0
597,0.6179730516486496,0
598,2.2911462256206097,0
599,0.7246653529578169,0
600,1.0240081889365489,0
601,1.073765288441992,0
602,0.8858523058115391,0
603,1.9544302006110765,0
604,2.780207236479063,0
605,3.424723849490115,0
606,4.625553785229136,0
607,6.195962075089788,0
608,5.65914166232567,0
609,6.781636119211306,0
610,6.583530174999419,0
611,6.310559320139613,0
612,5.900704929790214,0
613,3.8231372340873078,0
614,3.0067186957226713,0
615,0.716128042065758,0
616,-1.4118459073616738,0
617,-2.1088895702744233,0
618,-2.7950892864513053,0
619,-2.1024300122092203,0
620,-1.8605704441351263,0
621,-0.4642650113862248,0
622,1.178486598030446,0
623,1.8615169481849865,0
624,2.4509774406682223,0
625,2.743450743886184,0
626,2.7970910924257684,0
627,1.6837452536102648,0
628,1.6668301491322972,0
629,0.872015366382717,0
630,0.05985571933759459,0
631,0.13491391824372023,0
632,-0.5995934136804512,0
633,-0.5891323658785779,0
634,0.10022478690862244,0
635,2.127477497709545,0
636,0.2140349794312516,0
637,0.5815304403043009,0
638,1.2348792388254428,0
639,0.29016474888914034,0
640,1.3118361018285618,0
641,0.3683972212087244,0
642,0.5451597214069843,0
643,1.037855839641566,0
644,1.2394392827380365,0
645,0.5235488936627817,0
646,0.03675289119458759,0
647,0.7497576334375925,0
648,1.408852453198887,0
649,0.9252171733595598,0
650,1.0117626159860134,0
651,1.087938278160891,0
652,0.9942608741248264,0
653,0.7736844628796308,0
654,1.6025955643756702,0
655,1.580255285842723,0
656,1.3275562100483964,0
657,0.7221408640202366,0
658,1.1011506505506474,0
659,1.1657511439426054,0
660,0.495601619770086,0
661,1.0835198484459092,0
662,0.9953687667747796,0
663,0.7840307408562642,0
664,1.162804053573365,0
665,1.0617609461831836,0
666,1.106495583515047,0
667,0.47253087866282084,0
668,0.656678050099559,0
669,2.3462028500339835,0
670,1.9553218021145715,0
671,1.5777324934969392,0
672,-0.20306705528818958,0
673,-0.018200615606381285,0
674,1.4651832836983958,0
675,0.8421413648290398,0
676,0.959187523741409,0
677,0.6777123443955994,0
678,1.3950821489158323,0
679,-0.8660549101304535,0
680,0.26167268168331465,0
681,1.0975758515017733,0
682,0.9333176204301582,0
683,1.4758028208271714,0
684,0.44691341773122734,0
685,1.504819283946942,0
686,1.449870307385521,0
687,0.07969638794137154,0
688,1.6396899218801082,0
689,0.6214644834644794,0
690,0.7183269529412061,0
691,1.383084529183224,0
692,0.6692119119408768,0
693,-0.06767368167230808,0
694,1.0263837181823645,0
695,0.584089044600609,0
696,0.5324742919909569,0
697,0.1304198044697279,0
698,1.4259177144669162,0
699,1.1023048615204927,0
700,1.0067042739624608,0
701,0.5708453776044341,0
702,2.541847743930866,0
703,2.519275335857575,0
704,2.9081612989931687,0
705,4.193098813723599,0
706,5.856869427053592,0
707,6.358599272231784,0
708,6.721944099577936,0
709,8.157408141240754,0
710,8.00163430720091,0
711,8.227966411273783,0
712,6.271941912090076,0
713,4.981632637075306,0
714,2.507849081001902,0
715,0.7707245581241091,0
716,-1.0631757193764964,0
717,-1.582038661409385,0
718,-2.310059507568446,0
719,-2.0397628834140287,0
720,-1.0267443430588215,0
721,-0.46633335124730846,0
722,1.0940534332227425,0
723,2.311291799604913,0
724,3.016804725050952,0
725,3.0857873601587653,0
726,2.955911699676465,0
727,2.0623384034274803,0
728,1.5188495391137997,0
729,1.6706529009497757,0
730,0.8674549664646196,0
731,0.41684785894014165,0
732,0.6798778028690367,0
733,0.2675439349760952,0
734,0.8025074518974936,0
735,2.2581749867211314,0
736,0.9313394660977827,0
737,2.356126030145875,0
738,0.3534763990306003,0
739,1.4680985074388309,0
740,0.9399844443442706,0
741,0.3545803955923536,0
742,0.900739324866664,0
743,0.6601378564060838,0
744,1.217288875325194,0
745,1.2523088448792663,0
746,1.0211084715168013,0
747,0.9672232636428023,0
748,1.0406700797037591,0
749,0.5557327803974048,0
750,0.5821003530947461,0
751,1.7476720922772817,0
752,2.140533808912303,0
753,1.1979105204301037,0
754,0.5445983565671275,0
755,1.4735456361457555,0
756,0.7811838566610703,0
757,1.5130609029673585,0
758,1.286032515337601,0
759,0.664507301561696,0
760,1.7237080010182426,0
761,1.883784985362327,0
762,2.073599595858728,0
763,1.3203894794240787,0
764,1.594548685439326,0
765,0.4420559495134281,0
766,1.1598726626576823,0
767,1.1147129063209293,0
768,0.16366253213149773,0
769,1.0720434537126162,0
770,1.5036395001511014,0
771,1.4203986645199456,0
772,1.3138074285464245,0
773,1.4042991280232642,0
774,0.8037045166159497,0
775,1.4219398800608731,0
776,0.3952985632634889,0
777,0.9616025285435121,0
778,0.9334713890043143,0
779,0.6743506241021854,0
780,1.8996565640953935,0
781,1.0543264050540564,0
782,1.9360517530423278,0
783,1.653012825233223,0
784,1.2359398042627,0
785,0.9747570930742288,0
786,1.527818747266582,0
787,0.7139888370771861,0
788,1.7419410886565534,0
789,0.9506544388463964,0
790,2.1371990410993593,0
791,1.3575609734564595,0
792,1.4709030999578965,0
793,1.6039474039815893,0
794,1.6042950524887594,0
795,0.4653247809613132,0
796,1.063503188511089,0
797,1.6912241948974511,0
798,0.6862502649067902,0
799,0.7512342650992907,0
800,1.3529640022350138,0
801,1.3302674977354707,0
802,2.718557786624798,0
803,2.345612405001697,0
804,3.7328191936456445,0
805,4.159324257175471,0
806,6.16113810023735,0
807,6.22563205114099,0
808,7.935231005824958,0
809,7.82014222363383,0
810,8.90937391377603,0
811,6.464274117678836,0
812,6.894896668215635,0
813,5.35797298312723,0
814,4.365143918526501,0
815,1.92708015628989,0
816,-0.26971051988354966,0
817,-1.3424049192139518,0
818,-2.4613335754048054,0
819,-1.5655217277102904,0
820,-0.6474069047182225,0
821,0.8421689624501469,0
822,1.1047383203561543,0
823,2.805992589550067,0
824,3.2536401397755195,0
825,3.5308514328585865,0
826,3.1002754421562644,0
827,3.1539362800212807,0
828,1.2478187889316685,0
829,1.9412206802555696,0
830,0.6663804869034214,0
831,1.095103909557634,0
832,0.982657053486031,0
833,0.9215043913654646,0
834,0.7644372087559422,0
835,2.0364902619069762,0
836,2.8098548523156484,0
837,2.078842069184958,0
838,1.1730747121325877,0
839,0.9375809238579271,0
840,0.7997001932532316,0
841,1.2923537448442342,0
842,1.6772247565072003,0
843,1.2324501867653295,0
844,1.4510214581790213,0
845,1.2009707131001666,0
846,2.108164193805539,0
847,1.4694943632519153,0
848,2.3121634321455,0
849,1.2581440405339723,0
850,2.0583722562274303,0
851,1.504448199646081,0
852,0.9548899013777338,0
853,1.2303331448848522,0
854,1.5469633359268753,0
855,1.5695741184220076,0
856,1.5296429396516948,0
857,2.1999871212794244,0
858,1.2856396080174626,0
859,2.1986322602635484,0
860,1.0416850521573735,0
861,2.099760400302304,0
862,1.4781726079534394,0
863,1.9022125771397673,0
864,1.7883955187383354,0
865,1.9066228179589089,0
866,1.6536670167044114,0
867,1.8350010372143384,0
868,1.4872263615000345,0
869,1.2592097389127945,0
870,1.9056472855900075,0
871,1.243118440454511,0
872,1.8579722406712014,0
873,2.1198183824807675,0
874,2.437149789512698,0
875,1.6495033614697214,0
876,2.0849130188864997,0
877,1.2800745599830996,0
878,1.296864494589209,0
879,2.0172997046093943,0
880,2.2033921094135565,0
881,1.468829635215839,0
882,1.0064654204488832,0
883,1.7313674456232613,0
884,2.275556738703331,0
885,1.7150671045914998,0
886,1.5150835233303306,0
887,2.145329708129517,0
888,2.181328252077914,0
889,2.1209369997485545,0
890,2.3184820730559133,0
891,1.2105850354505838,0
892,2.3169167660218255,0
893,1.2005096280501166,0
894,1.8881483670551655,0
895,1.5196730748128053,0
896,1.9309180647661994,0
897,1.220986493691862,0
898,1.4877459125249792,0
899,1.5680546859392865,0
900,2.125798110317721,0
901,1.9409737421994162,0
902,1.9575355553875533,0
903,2.818649123701655,0
904,3.743528621813394,0
905,4.105482620795444,0
906,6.069056212929821,0
907,6.805137556410085,0
908,7.212098127535094,0
909,8.203467089375122,0
910,8.73713313475682,0
911,8.337661598266598,0
912,7.380240264430821,0
913,5.34323785449235,0
914,3.9902191741613375,0
915,1.706461727563906,0
916,-0.5765516630620494,0
917,-1.1078080115700546,0
918,-1.4319326495604048,0
919,-1.5130551102011027,0
920,0.5274113729797638,0
921,1.4759442352981402,0
922,1.4380037662132776,0
923,1.9390549918270248,0
924,4.118274199389454,0
925,3.517466074791069,0
926,1.3207313721375031,0
927,2.1906099527738743,0
928,2.4623696964397537,0
929,1.0240105347407162,0
930,1.1018134246027063,0
931,1.1513365239482614,0
932,0.5388215117617734,0
933,0.6365013796680359,0
934,2.45377570468822,0
935,0.6535533741380904,0
936,1.2206182065604976,0
937,2.7540776245718415,0
938,1.838869707640415,0
939,1.7766922513183283,0
940,1.4017440773120615,0
941,1.8505849937944174,0
942,1.0454808876680743,0
943,2.347564389340708,0
944,0.6051198080552701,0
945,1.2071470963841204,0
946,1.305302242186283,0
947,1.0560647038264688,0
948,0.8582973178901722,0
949,2.619396650746296,0
950,1.8486699223414764,0
951,1.7307810766217366,0
952,1.02648977677707,0
953,2.3243712296192536,0
954,1.4950002854588456,0
955,1.29053392866851,0
956,1.7526168237263609,0
957,1.6764530570739447,0
958,2.9291782723301,0
959,1.6039605708319986,0
960,1.9839499903102569,0
961,1.9191148033918344,0
962,1.5130548022751484,0
963,1.8836576911811451,0
964,2.358312584881823,0
965,1.6151315107525896,0
966,1.5577213137840071,0
967,1.3179781600226763,0
968,2.5509608075671495,0
969,2.31849804459873,0
970,1.5669506550551289,0
971,1.3964747223419665,0
972,2.049347040488158,0
973,2.0947907609270704,0
974,2.6837066222186508,0
975,2.1203792127237104,0
976,1.9416664588251142,0
977,1.5123671391734075,0
978,1.1886529216727815,0
979,2.0350568933289694,0
980,2.33813755785332,0
981,2.0331454688233257,0
982,1.9348490455905856,0
983,1.1402889223602948,0
984,1.5862950944293674,0
985,1.3320418862290304,0
986,3.040454624685574,0
987,2.47404108557551,0
988,2.1065151469014993,0
989,1.6873816966865705,0
990,2.551532379160598,0
991,2.823127250158608,0
992,2.5359518786342385,0
993,1.0809221471654646,0
994,1.6812882519175687,0
995,2.1964272764860473,0
996,2.9706467722294514,0
997,1.7382386253166133,0
998,2.1866936528562158,0
999,2.3886229934672585,0
1000,2.2384096054207876,0
1001,2.0880579717811005,0
1002,2.725957687131405,0
1003,2.253156471246701,0
1004,4.0437579319789645,0
1005,5.1034927924044435,0
1006,6.79422803886784,0
1007,7.182228665948577,0
1008,8.452404239043839,0
1009,8.536619084889555,0
1010,9.187124426000992,0
1011,8.866762516678818,0
1012,7.117266515537544,0
1013,6.27069596564599,0
1014,3.7324413450865723,0
1015,1.375245075261373,0
1016,0.05250839068540181,0
1017,-0.4440242114865085,0
1018,-0.31098210987948116,0
1019,-0.49294361700493194,0
1020,0.40835266915328505,0
1021,0.8134601507524688,0
1022,2.2733111357408493,0
1023,2.9966986270687075,0
1024,3.5731850766232114,0
1025,4.523173575780758,0
1026,3.2506879334506324,0
1027,2.6684460995348966,0
1028,1.739790443032522,0
1029,2.6368650236614117,0
1030,1.43088908343428,0
1031,1.359324761428653,0
1032,0.9778296669698603,0
1033,1.6036737169383366,0
1034,1.6994307180624502,0
1035,2.2076991304223945,0
1036,2.6930692468493396,0
1037,2.7811102103005867,0
1038,2.5171750187238935,0
1039,2.419682385972649,0
1040,2.3723105383600647,0
1041,1.961890689785136,0
1042,1.729934032354037,0
1043,1.8068246862238848,0
1044,3.0473092460078206,0
1045,1.4137339594955234,0
1046,2.511123054560247,0
1047,2.4488778396162374,0
1048,2.7302854157650547,0
1049,1.8232572378825627,0
1050,2.333786056175808,0
1051,2.046607612279986,0
1052,2.1943976070453908,0
1053,1.7203238958852238,0
1054,2.430217115844079,0
1055,2.295035045285167,0
1056,2.0876848568530764,0
1057,2.1148105505611148,0
1058,2.1753076720532865,0
1059,1.7747375550235667,0
1060,2.481027520382433,0
1061,2.1520729846070705,0
1062,3.0194328956941034,0
1063,2.237416379191808,0
1064,3.2812066657906067,0
1065,3.288773578609356,0
1066,2.2344551404549393,0
1067,1.976117850677352,0
1068,3.08894407280299,0
1069,1.272434829715468,0
1070,2.509833607169864,0
1071,2.357513055668511,0
1072,3.011162534858663,0
1073,1.583678551033115,0
1074,2.85144330851097,0
1075,1.6938454385447514,0
1076,1.3219371061849252,0
1077,1.8907514268780337,0
1078,1.7987470632812506,0
1079,2.5410181048565756,0
1080,2.2793490265814667,0
1081,1.1005218916008022,0
1082,1.6587361515601287,0
1083,2.1796261828252264,0
1084,1.8578670795711407,0
1085,2.2173485810925477,0
1086,0.9441691833396505,0
1087,2.0155700908558436,0
1088,2.0640685780359194,0
1089,3.173065809225383,0
1090,2.9222014705639423,0
1091,1.3817419920545182,0
1092,1.2971751306120498,0
1093,1.8953672171196763,0
1094,2.8440366255414378,0
1095,2.2855254163612786,0
1096,2.952092313611144,0
1097,3.3083507534343712,0
1098,1.6542748525045055,0
1099,2.440734499469714,0
1100,1.6587836210398488,0
1101,1.98810034102842,0
1102,3.0720686630761733,0
1103,3.039920608347191,0
1104,4.20821746764997,0
1105,5.058655986147299,0
1106,6.39775726897493,0
1107,7.391172897328577,0
1108,9.335768179457006,0
1109,9.53589487619164,0
1110,9.596131009417988,0
1111,8.632485245827432,0
1112,7.088232307070806,0
1113,7.160016911337474,0
1114,4.606205307299279,0
1115,2.111191355963527,0
1116,0.7329739867756009,0
1117,0.27773098848429845,0
1118,-0.7487752302255344,0
1119,0.7997985255047366,0
1120,0.6837219365915224,0
1121,1.5635725144918764,0
1122,2.3230916133261434,0
1123,3.256607672800947,0
1124,4.071786715635101,0
1125,2.8748319362139982,0
1126,3.8604381415991353,0
1127,3.0583106881271833,0
1128,3.052936601016586,0
1129,2.7099935090484997,0
1130,2.2734040119102117,0
1131,1.7129406320658411,0
1132,1.6936911866664324,0
1133,1.5454774625029724,0
1134,2.7749615778721797,0
1135,2.42366227798062,0
1136,3.656602980636736,0
1137,3.3511974294032276,0
1138,3.357399436469334,0
1139,2.7175450934040306,0
1140,2.4915479228979627,0
1141,3.2805501200099156,0
1142,1.536161244770379,0
1143,2.5366015650237728,0
1144,2.8004048076301777,0
1145,2.154637494160502,0
1146,2.8785310609496926,0
1147,3.032231290487383,0
1148,3.105306687072368,0
1149,1.929974054642238,0
1150,2.199091024042574,0
1151,2.327864308928781,0
1152,1.636164133991079,0
1153,2.2324026417816936,0
1154,1.9422090061234907,0
1155,2.9927650749270582,0
1156,2.281015738955001,0
1157,3.5233097384944956,0
1158,3.306389538726154,0
1159,1.828207942015096,0
1160,2.596843112294011,0
1161,2.3064864138077388,0
1162,2.6779716703343555,0
1163,2.5889114152782753,0
1164,2.5815601256197853,0
1165,2.765546103547956,0
1166,2.879884360324216,0
1167,1.698626721238133,0
1168,2.4679293731778067,0
1169,2.660024941633724,0
1170,2.1649152997246035,0
1171,3.000289601890406,0
1172,2.2534056408998233,0
1173,2.4721084296236384,0
1174,2.301544643493767,0
1175,1.7867513656422522,0
1176,2.039629112139061,0
1177,2.8903383763383284,0
1178,3.1969897660247177,0
1179,2.920148483041474,0
1180,3.9501532220573243,0
1181,1.9612084168288497,0
1182,2.3889497647768927,0
1183,2.664474562421696,0
1184,2.3060528601280246,0
1185,2.9907620966439654,0
1186,3.0750159603617506,0
1187,2.206822263407722,0
1188,3.2225262657282667,0
1189,2.78819013180612,0
1190,2.27806915467489,0
1191,2.0688927672666035,0
1192,2.6117730177517746,0
1193,2.0918542452769193,0
1194,2.6181548538133157,0
1195,3.2297413576707448,0
1196,1.4987014525983078,0
1197,3.5443597257719355,0
1198,2.2324654877528873,0
1199,3.511838879559476,0
1200,3.2801301350945447,0
1201,3.3577336178503683,0
1202,2.916976515994739,0
1203,4.187934844246539,0
1204,4.798844126988552,0
1205,6.055563572598077,0
1206,7.065653972178227,0
1207,7.3904290474383805,0
1208,8.928839351504346,0
1209,9.458157351065129,0
1210,9.375544465847078,0
1211,9.48535305206034,0
1212,8.006194705040208,0
1213,7.889348086355007,0
1214,4.543019116621263,0
1215,2.3197885714679645,0
1216,1.0732215834755405,0
1217,1.0478802965544376,0
1218,-0.060954090638764225,0
1219,-0.8782228362929527,0
1220,-0.2482958147453913,0
1221,0.4235730581189734,0
1222,3.096976243575479,0
1223,4.221659227564761,0
1224,3.82339524685702,0
1225,3.974830964027881,0
1226,4.587536151608329,0
1227,3.443900573876214,0
1228,2.08314939753951,0
1229,2.67972389772149,0
1230,1.6159674596754083,0
1231,1.9193547271434848,0
1232,1.8203047718847705,0
1233,2.3903187111109374,0
1234,2.205990170769566,0
1235,2.545596954569954,0
1236,3.482559972466957,0
1237,2.75463565157904,0
1238,3.4920983047726972,0
1239,2.826979545679471,0
1240,2.48532544578837,0
1241,3.5850842210281018,0
1242,2.2595257432301197,0
1243,1.6964536209404804,0
1244,2.7182372049974233,0
1245,2.293409102478182,0
1246,2.99401957259197,0
1247,3.561752645404271,0
1248,2.8257262954331357,0
1249,2.8470627674433855,0
1250,3.3936011700664657,0
1251,2.7936712923927143,0
1252,3.035904636841989,0
1253,3.123256249461328,0
1254,2.4191972255979413,0
1255,3.136988105646648,0
1256,3.044808424814763,0
1257,3.374476292378152,0
1258,3.278169278845158,0
1259,3.402893284945382,0
1260,2.1307671481175356,0
1261,2.2893877118196486,0
1262,2.1248904092990752,0
1263,2.745909490584627,0
1264,1.3306994482120704,0
1265,3.2916466565167166,0
1266,2.48112136017117,0
1267,2.813132210707581,0
1268,2.6441571799662693,0
1269,2.174719559848084,0
1270,4.118117148904718,0
1271,3.488793647965451,0
1272,3.1559466113787664,0
1273,2.666385792077645,0
1274,3.7025998157034503,0
1275,2.1297708796119315,0
1276,2.616615332959096,0
1277,3.412492596194818,0
1278,1.9844935091650655,0
1279,2.5372122667014487,0
1280,2.7916772199521724,0
1281,3.274811816466902,0
1282,2.3070990692549946,0
1283,2.885814769218261,0
1284,2.814834823634062,0
1285,3.0846586285571123,0
1286,2.361550033750104,0
1287,2.5234617060096793,0
1288,2.8760630361087807,0
1289,2.716712551111908,0
1290,3.2749668895138306,0
1291,3.015891158597409,0
1292,3.52991567363949,0
1293,2.31955931369876,0
1294,3.0269089036557184,0
1295,3.5573785605724697,0
1296,3.9132151736685823,0
1297,2.752641576366667,0
1298,2.3862503709035776,0
1299,3.0852511493447365,0
1300,3.7060741287609096,0
1301,3.2412148726941594,0
1302,4.225804979064098,0
1303,4.912749285287303,0
1304,4.6816731054975484,0
1305,6.579076061051918,0
1306,5.886900164718037,0
1307,8.427343567816317,0
1308,8.983027744665439,0
1309,9.783162084414158,0
1310,9.876748634562631,0
1311,8.478349099094602,0
1312,7.81210762992221,0
1313,7.055454042731246,0
1314,5.839365619618683,0
1315,4.288820508297281,0
1316,2.231029482685593,0
1317,0.244934999543017,0
1318,-0.7061647489100968,0
1319,-0.7071345694588889,0
1320,0.9641040513173933,0
1321,1.768315138500398,0
1322,2.9664943052084594,0
1323,3.7316782004797497,0
1324,5.307257191990945,0
1325,3.7781782797125683,0
1326,4.985696798896422,0
1327,3.869212808289469,0
1328,3.041964840931786,0
1329,3.6998435539790853,0
1330,2.7681827395466483,0
1331,2.15075932446602,0
1332,2.46463037972217,0
1333,1.8301134668940144,0
1334,3.540204040359357,0
1335,2.892502355520905,0
1336,4.0536401837780645,0
1337,2.274239627273354,0
1338,4.402507616495426,0
1339,2.9612528932976523,0
1340,2.955853381318633,0
1341,2.6096637873304336,0
1342,2.371927196662827,0
1343,3.0275146684002845,0
1344,3.005639023280983,0
1345,2.9488022368724036,0
1346,2.341272374621319,0
1347,3.637743444060482,0
1348,2.234467539581487,0
1349,2.4459114661651498,0
1350,3.066749568156694,0
1351,3.1681753704424107,0
1352,3.6389837695504745,0
1353,3.160138040667975,0
1354,2.8116076807922736,0
1355,2.8368304957595387,0
1356,2.842792564917918,0
1357,3.5786382607064318,0
1358,2.3568264407722945,0
1359,3.652471127467469,0
1360,2.8452280108819643,0
1361,2.828166551239025,0
1362,2.372901092323113,0
1363,3.853573972528922,0
1364,2.493056564362449,0
1365,3.254937575715884,0
1366,3.28436282406809,0
1367,3.05653562960142,0
1368,2.610672195744873,0
1369,2.9418425787591054,0
1370,4.31305321721195,0
1371,3.0230715268690034,0
1372,2.9824826278121446,0
1373,3.55174685635488,0
1374,3.3068059838529953,0
1375,3.4384253364324566,0
1376,3.002762205321083,0
1377,2.6669699044974555,0
1378,3.5727156317368314,0
1379,2.8864320297949124,0
1380,2.696765407452414,0
1381,3.1673673292457747,0
1382,3.459024362547799,0
1383,2.947287026281983,0
1384,3.553567543522162,0
1385,3.1636716373713103,0
1386,3.6365482006311605,0
1387,3.4169123294165082,0
1388,2.833221644601718,0
1389,2.4990938465687687,0
1390,2.876087893485579,0
1391,3.251820805691847,0
1392,3.3631132977138916,0
1393,3.7019706164279365,0
1394,3.099723107217197,0
1395,2.683300145548144,0
1396,3.9985894454707696,0
1397,2.9947981094480007,0
1398,3.156935174787834,0
1399,2.7488350364494334,0
1400,3.7673317647536826,0
1401,3.4116451424592986,0
1402,4.3665134410609445,0
1403,4.600637139037399,0
1404,5.196808184257833,0
1405,5.509104030316336,0
1406,7.169636257184372,0
1407,8.985975804999347,0
1408,9.55844091788185,0
1409,9.861775195843514,0
1410,10.380896803080846,0
1411,9.347159534186009,0
1412,8.327670264224585,0
1413,7.436644488369659,0
1414,5.7237353241314395,0
1415,4.073693112529656,0
1416,3.3932686047750478,0
1417,0.17420817487544937,0
1418,1.0284886231736827,0
1419,-0.802747062642732,0
1420,0.5818241438677267,0
1421,1.7396901749300688,0
1422,2.9603104010658186,0
1423,3.447005067046674,0
1424,4.545971324119153,0
1425,4.738914561013612,0
1426,4.230893650098704,0
1427,3.8139981277621597,0
1428,3.4817681450821727,0
1429,2.4261916975916824,0
1430,3.0690478944535915,0
1431,2.683614390298823,0
1432,2.2017569215999826,0
1433,3.406025040929044,0
1434,2.4355401585267438,0
1435,2.87569725494916,0
1436,3.2606783813372817,0
1437,3.660830764058914,0
1438,3.327848585420136,0
1439,3.000584836178338,0
1440,3.354873266619483,0
1441,3.6729499737207996,0
1442,2.9673701200769687,0
1443,3.4890044362174453,0
1444,2.1972472261488307,0
1445,3.6201736252004535,0
1446,3.047005493832032,0
1447,3.720078115200253,0
1448,3.727454354193021,0
1449,3.3117109912581637,0
1450,4.057226793848272,0
1451,3.276378815918458,0
1452,3.1327605965658556,0
1453,1.8092469085804823,0
1454,2.6745055785688336,0
1455,2.910482626616761,0
1456,2.5564346337150736,0
1457,3.7222163714373258,0
1458,3.2157341858986404,0
1459,3.3259073616965846,0
1460,2.8462672301896994,0
1461,3.402602166298559,0
1462,3.7007131997579403,0
1463,3.6950992693045954,0
1464,3.2421828434515025,0
1465,2.878445907384297,0
1466,3.107814975686512,0
1467,3.296375840231038,0
1468,2.8464314795333028,0
1469,3.7500734951088095,0
1470,3.070545264299613,0
1471,3.111942793566633,0
1472,4.085684316974383,0
1473,2.3004513284864387,0
1474,2.669109497986844,0
1475,3.2062687810458628,0
1476,2.838285429663763,0
1477,3.223806698956223,0
1478,3.8418611842751837,0
1479,3.072560707293963,0
1480,3.155651657164195,0
1481,3.363402839057007,0
1482,2.5057109450941515,0
1483,3.6316533073257053,0
1484,3.438933732102245,0
1485,3.867220313159494,0
1486,3.2106238514131897,0
1487,3.1097287674370966,0
1488,3.390779164442096,0
1489,3.7228563090124824,0
1490,3.335901017080909,0
1491,3.8596023255754233,0
1492,3.8570434220434278,0
1493,3.3337166751576746,0
1494,4.383261024431282,0
1495,3.3354867742725163,0
1496,3.8171668877924643,0
1497,3.8631539006992393,0
1498,3.521349216281876,0
1499,3.736228423860038,0
1500,3.639432601994479,0
1501,4.002777904584267,0
1502,3.784945797820723,0
1503,5.116949011676018,0
1504,5.944583175878552,0
1505,6.6007269026102,0
1506,7.316032385228896,0
1507,9.595328438542342,0
1508,9.263374419521574,0
1509,10.687141575115414,0
1510,11.168999098483305,0
1511,10.272040404399345,0
1512,8.908923171957404,0
1513,6.6765961370263165,0
1514,4.276972679714602,0
1515,3.4970903357514014,0
1516,2.7807746921991456,0
1517,0.904501349340368,0
1518,1.2461442277016022,0
1519,0.42534057484216836,0
1520,1.3359287189393192,0
1521,2.6085054313654616,0
1522,2.5344663837710972,0
1523,4.621754471790483,0
1524,4.5872062933494995,0
1525,6.037548459199764,0
1526,5.322027585182596,0
1527,4.448518245073006,0
1528,4.56285684542266,0
1529,3.7057065163356384,0
1530,2.8175845100101484,0
1531,2.7069633790042382,0
1532,3.3396260366232653,0
1533,3.2904199466241404,0
1534,3.389079521431552,0
1535,4.238738713295321,0
1536,3.4899205541182963,0
1537,3.5923053196053707,0
1538,3.609899167859514,0
1539,3.927719456937068,0
1540,3.702630084347878,0
1541,3.0706494638629516,0
1542,2.618606156914877,0
1543,4.0516129386877635,0
1544,3.5735086843206236,0
1545,2.9674771504100916,0
1546,3.661363708287311,0
1547,2.885604395452681,0
1548,2.8261726228724773,0
1549,4.1387707088850325,0
1550,3.154457684108258,0
1551,2.3759747763423915,0
1552,3.0292410311074853,0
1553,3.9342250716847813,0
1554,3.673738422979786,0
1555,3.5610515930616415,0
1556,3.281196553955115,0
1557,4.139842891495528,0
1558,3.10353576977707,0
1559,3.8151392455224276,0
1560,4.940049133311342,0
1561,3.6427837666250573,0
1562,2.804738535995759,0
1563,4.464811281038228,0
1564,3.9292838129495227,0
1565,3.7442156686287356,0
1566,3.8440617619828257,0
1567,3.902850131909145,0
1568,2.667777630292531,0
1569,3.4395402366570176,0
1570,4.2651949538155325,0
1571,3.670137161613292,0
1572,3.3107897909370037,0
1573,2.8962566162820726,0
1574,3.3935845285607638,0
1575,3.9053281663004498,0
1576,3.3569239904052566,0
1577,2.6383079759221233,0
1578,3.3565642408226255,0
1579,3.120654997064095,0
1580,2.6502225415984335,0
1581,3.5840778202259274,0
1582,3.656766286073519,0
1583,3.267473013398605,0
1584,3.488026371843083,0
1585,4.1800612726517725,0
1586,4.166062992231325,0
1587,4.514232630840586,0
1588,3.498598541735992,0
1589,2.7998845503271155,0
1590,3.3241233338144065,0
1591,4.070842785167444,0
1592,3.840427390071793,0
1593,4.0174972689603115,0
1594,3.9429073898200397,0
1595,3.755710080580351,0
1596,3.8106116908179146,0
1597,3.4652536968358327,0
1598,3.5174288857506264,0
1599,3.897525884013712,0
1600,3.2142612038306546,0
1601,3.8851147553052283,0
1602,4.061116817759826,0
1603,4.625564463765533,0
1604,5.430896020109951,0
1605,6.954143653089638,0
1606,8.675078734064764,0
1607,8.656296363778313,0
1608,9.662442016448537,0
1609,10.62406718615258,0
1610,10.692906233495046,0
1611,9.679711128622092,0
1612,9.21149315269355,0
1613,8.414832311455328,0
1614,6.674601027524982,0
1615,4.495901526557698,0
1616,2.020649387219195,0
1617,2.5058467975315377,0
1618,1.0240645888806634,0
1619,0.725651442099565,0
1620,1.500078906069552,0
1621,2.0862214111922253,0
1622,2.7958029915430718,0
1623,3.6015107290680124,0
1624,4.636139231752085,0
1625,5.894537751556461,0
1626,6.133340936523317,0
1627,4.469022290090076,0
1628,3.655094475749438,0
1629,2.3741692490913744,0
1630,3.084748377814919,0
1631,3.4158357993442428,0
1632,3.4822499247092344,0
1633,3.036277154242009,0
1634,3.2353267384052433,0
1635,4.078943891801523,0
1636,4.2073751795664025,0
1637,4.1146982293253815,0
1638,4.8072358635394306,0
1639,4.4753479893945975,0
1640,4.008687315216605,0
1641,3.746673772150442,0
1642,4.046144353773137,0
1643,3.5621038590737837,0
1644,3.9045281233656524,0
1645,3.3377540113494204,0
1646,3.3457134197498877,0
1647,3.344095732366553,0
1648,4.206720757510829,0
1649,3.2817016993760735,0
1650,3.2531934393343107,0
1651,4.0587352189783426,0
1652,2.4597359796989178,0
1653,4.61737088751433,0
1654,3.7225933528613298,0
1655,4.090806084823775,0
1656,2.5547522022417013,0
1657,3.6420338625867754,0
1658,4.033712428581575,0
1659,3.6733724055291934,0
1660,4.171697836992746,0
1661,3.064835165951244,0
1662,3.7578264417652885,0
1663,4.154435294927501,0
1664,2.6667136605108133,0
1665,3.3417447365093587,0
1666,3.745609696620793,0
1667,3.3866279993111648,0
1668,3.406665372708839,0
1669,3.0401810805375185,0
1670,3.5000614916949315,0
1671,3.956202388481079,0
1672,4.68557284547724,0
1673,3.6076651818819307,0
1674,4.029152984206858,0
1675,3.9146785803417528,0
1676,3.598205787599916,0
1677,3.916091085492202,0
1678,3.8379025603670986,0
1679,3.9730455263394195,0
1680,3.540923044355372,0
1681,2.924415686085373,0
1682,4.03739735693794,0
1683,3.455857868806232,0
1684,3.324660726881752,0
1685,4.234193270630055,0
1686,3.2424444107389174,0
1687,4.192406558735877,0
1688,3.535180491617709,0
1689,3.65872262043937,0
1690,3.9089874043214197,0
1691,3.8588148555484754,0
1692,3.5586595139885673,0
1693,4.766657915178338,0
1694,3.9784800720644955,0
1695,3.5303537281808604,0
1696,3.92166692845,0
1697,3.857350126084204,0
1698,4.022344918244364,0
1699,3.215625350783913,0
1700,4.712244874089001,0
1701,4.483861589782823,0
1702,4.133885519325198,0
1703,5.725954184187165,0
1704,6.832139554685407,0
1705,6.675693463996604,0
1706,8.120650936750598,0
1707,8.904707805761735,0
1708,10.046107879685046,0
1709,11.251559307834118,0
1710,9.887523182065644,0
1711,11.650008211060435,0
1712,9.333438484598235,0
1713,7.89900499104149,0
1714,5.742520259483673,0
1715,5.080642415060837,0
1716,3.3015562864409755,0
1717,1.7458475404768143,0
1718,1.1112945016563525,0
1719,-0.26104960869198734,0
1720,1.3856390842003332,0
1721,2.416789974954923,0
1722,3.0578184764542957,0
1723,4.8997894251759515,0
1724,5.929065323444579,0
1725,4.968286906948562,0
1726,5.883672958013954,0
1727,4.6321086372348335,0
1728,4.6108435467354445,0
1729,4.068517067050633,0
1730,3.7457727449848255,0
1731,4.026472244133491,0
1732,2.6687602852628913,0
1733,3.5336246799951665,0
1734,4.823969992510944,0
1735,4.023698937910712,0
1736,3.5554840814588884,0
1737,3.690129415689234,0
1738,4.41182216268573,0
1739,5.25579888660898,0
1740,4.337523226916462,0
1741,4.093549682772946,0
1742,3.9207015337665325,0
1743,4.473729094775725,0
1744,4.63573415142788,0
1745,3.3994165907291425,0
1746,3.646933008127755,0
1747,3.502556941004876,0
1748,4.634056821284878,0
1749,4.083019686962937,0
1750,4.161320442856207,0
1751,4.342662235748383,0
1752,3.1829963089621005,0
1753,4.107867338769111,0
1754,4.505396382442001,0
1755,4.497537391760683,0
1756,4.242415935461457,0
1757,3.8360542676775933,0
1758,3.274096008306072,0
1759,3.9674378716898167,0
1760,4.407596341558558,0
1761,4.9175353158922315,0
1762,4.00421228547575,0
1763,4.87962867111725,0
1764,4.181191029360643,0
1765,3.580598249959497,0
1766,3.8760873102020463,0
1767,5.356037970276784,0
1768,4.06862551964978,0
1769,3.694264134505242,0
1770,4.480801664697204,0
1771,4.562723438586173,0
1772,4.363294339479678,0
1773,3.3590425575476646,0
1774,3.2628385293866335,0
1775,4.4297431164023715,0
1776,4.309162734301358,0
1777,4.200488062399829,0
1778,4.464446617116728,0
1779,3.7681560544140376,0
1780,4.53096569961278,0
1781,4.100666928262944,0
1782,4.463267671434421,0
1783,4.482683960289652,0
1784,3.951004328785056,0
1785,3.7788754000235643,0
1786,4.673968587350204,0
1787,4.126277209651359,0
1788,3.7028886319015113,0
1789,3.724113833327748,0
1790,4.055114779329843,0
1791,3.514836924525731,0
1792,3.837484541100179,0
1793,3.298300080939747,0
1794,4.600460057520162,0
1795,4.209692792145345,0
1796,4.01147945421001,0
1797,5.054377177474787,0
1798,4.204559689305017,0
1799,4.0153733660101265,0
1800,4.298193048905269,0
1801,4.353102674628856,0
1802,5.248242647701123,0
1803,6.38715071462261,0
1804,6.454172760393905,0
1805,7.367982384205462,0
1806,8.392570804092685,0
1807,9.59874332024145,0
1808,9.828319760785565,0
1809,10.80866370661072,0
1810,11.449296997817905,0
1811,10.978382099804207,0
1812,9.79512746292475,0
1813,8.76330898180449,0
1814,7.02489739100217,0
1815,4.353077222962853,0
1816,2.639488550659545,0
1817,0.8968042220541901,0
1818,1.1473978848136563,0
1819,1.4154251963570506,0
1820,1.343207885500286,0
1821,3.910505739267376,0
1822,3.2241377312442654,0
1823,6.10097201603772,0
1824,5.0379606772719825,0
1825,5.198472244958471,0
1826,6.018848133407597,0
1827,5.53413224038302,0
1828,5.024706978652543,0
1829,4.728351989011608,0
1830,3.9831675564973597,0
1831,3.811349223585817,0
1832,3.02372602751434,0
1833,3.851957406679377,0
1834,4.095177090099066,0
1835,3.800623245098099,0
1836,3.992116060443014,0
1837,4.613172609904515,0
1838,4.690238758198371,0
1839,3.689521098096652,0
1840,3.168028403975097,0
1841,4.670595845904704,0
1842,3.385377042769666,0
1843,3.9864667671994454,0
1844,4.454892755351013,0
1845,4.269603766939852,0
1846,3.934950210260223,0
1847,4.262663755323721,0
1848,4.54183625028415,0
1849,3.859930147082024,0
1850,3.9399490094065888,0
1851,4.150571398352011,0
1852,4.324298271521739,0
1853,4.291974302692374,0
1854,4.469516766003334,0
1855,3.896183376119729,0
1856,4.687097852277708,0
1857,5.205152127028911,0
1858,3.964504698345943,0
1859,4.011131122415634,0
1860,4.034162004803684,0
1861,4.036269162727281,0
1862,3.6436651473911894,0
1863,4.070609124295952,0
1864,4.298938128481325,0
1865,4.7355240570637696,0
1866,5.212867541473038,0
1867,3.786055683863572,0
1868,4.0921830241262205,0
1869,4.649681343757922,0
1870,4.333457376901561,0
1871,4.695215285138798,0
1872,4.587099495262504,0
1873,3.99957482805342,0
1874,4.723547199212464,0
1875,3.7678370420607528,0
1876,3.4923367819129885,0
1877,4.068219576943522,0
1878,4.657123773954888,0
1879,4.388754466862744,0
1880,4.0759541959622405,0
1881,4.576362054103856,0
1882,4.008839689492894,0
1883,3.8927008712856086,0
1884,4.212387426510791,0
1885,3.811677759182602,0
1886,4.232880096303544,0
1887,4.426241243759129,0
1888,4.652223839854938,0
1889,4.25897758127668,0
1890,4.1847367332808645,0
1891,3.9742814587723285,0
1892,3.6623096374357846,0
1893,4.518363150524278,0
1894,4.091942969570997,0
1895,4.256928822911272,0
1896,3.66989878775001,0
1897,4.0463262979041525,0
1898,4.333352911276709,0
1899,5.327220515360356,0
1900,4.586117788281686,0
1901,4.670874907713558,0
1902,5.213028725126681,0
1903,5.86818772128002,0
1904,6.282763575626234,0
1905,7.061913594173575,0
1906,8.755273818191316,0
1907,9.729510632018716,0
1908,11.10746844422841,0
1909,10.798171607039107,0
1910,12.090615902801895,0
1911,9.947061848165546,0
1912,9.912452315565886,0
1913,8.889224344110895,0
1914,7.013012063207036,0
1915,5.4270234733016665,0
1916,3.548632020592243,0
1917,1.4268741377203789,0
1918,1.4426164107282733,0
1919,1.8595344675987153,0
1920,2.6748346093988347,0
1921,2.7385123891401544,0
1922,3.7739368029983273,0
1923,4.6597015134140545,0
1924,6.473636154878835,0
1925,5.778940575791928,0
1926,6.325839646584155,0
1927,4.859231693678373,0
1928,5.261368515303145,0
1929,4.711375244770472,0
1930,5.5057304489397785,0
1931,3.7394401853781765,0
1932,3.3375471595017796,0
1933,2.812790887526331,0
1934,4.093731061377497,0
1935,4.668788827391459,0
1936,5.110919824089321,0
1937,4.3563501899753865,0
1938,5.217402688452115,0
1939,4.488618496324164,0
1940,5.13152850191484,0
1941,4.487838411411001,0
1942,3.557580288966994,0
1943,4.666697541870584,0
1944,5.819104704983808,0
1945,5.672739413788845,0
1946,4.8911901383755,0
1947,4.650472203037674,0
1948,4.938000174283164,0
1949,4.6450715552874415,0
1950,4.976861978281057,0
1951,4.565119493160298,0
1952,5.483930901586811,0
1953,5.005194990673978,0
1954,3.3283254590125124,0
1955,3.8824687901857047,0
1956,3.8091296240024644,0
1957,4.622536861061478,0
1958,4.494621133515955,0
1959,4.4885909164370865,0
1960,3.4577080648103773,0
1961,4.10705338345367,0
1962,4.422658538871326,0
1963,4.111408953307923,0
1964,4.473240595342779,0
1965,5.186210224163924,0
1966,5.464277534478252,0
1967,4.017843745669234,0
1968,4.331296576741122,0
1969,3.8570200759852584,0
1970,5.128509820306363,0
1971,5.41506333772205,0
1972,5.318061615006827,0
1973,5.093995899214497,0
1974,4.373866990328056,0
1975,4.436167767365869,0
1976,3.8936316091552308,0
1977,4.0526476372890485,0
1978,4.853440897802715,0
1979,4.884505436369531,0
1980,4.670191572974207,0
1981,4.842986330606659,0
1982,3.8392660538507988,0
1983,5.304406374726969,0
1984,4.444831976413345,0
1985,4.590839444616624,0
1986,4.023975465135337,0
1987,3.3692294487790284,0
1988,5.2103599721009495,0
1989,4.343314438400806,0
1990,4.755765438185289,0
1991,5.372501019897891,0
1992,4.798394075300401,0
1993,5.022638876116218,0
1994,4.450255393118731,0
1995,4.7659819011812266,0
1996,4.42770337704375,0
1997,4.789801176041261,0
1998,4.4516302579880485,0
1999,4.952005222461428,0
2000,3.8555136209207084,0
2001,4.7233795081960395,0
2002,6.305650299991054,0
2003,6.110171996779515,0
2004,6.395785477809021,0
2005,7.20768664085327,0
2006,8.013589807994336,0
2007,10.565391817235161,0
2008,9.696791671261003,0
2009,11.725227430756632,0
2010,12.160426777413548,0
2011,12.023491951933618,0
2012,9.668946124464771,0
2013,8.83387968691984,0
2014,6.635807897057079,0
2015,5.499060591418995,0
2016,3.5743880773457235,0
2017,3.2690403618171824,0
2018,1.9867427518328387,0
2019,1.5822876915171245,0
2020,2.808035824210547,0
2021,2.9865959105824462,0
2022,3.905808727130405,0
2023,5.400778505347244,0
2024,6.330250386100001,0
2025,6.712346286252833,0
2026,5.770242662584291,0
2027,5.808794337303436,0
2028,4.907348417304406,0
2029,5.128574000124944,0
2030,3.470558790732665,0
2031,4.3445896404790245,0
2032,3.6602480157704855,0
2033,4.569358931437999,0
2034,4.537771035734052,0
2035,5.356913713175641,0
2036,4.935385591721142,0
2037,4.393117959587501,0
2038,4.778646240194917,0
2039,5.359919869696746,0
2040,4.830583046163088,0
2041,4.272738067620602,0
2042,5.469066567615045,0
2043,4.440947358789605,0
2044,3.9188407402612007,0
2045,4.481148276121083,0
2046,5.1813858008518405,0
2047,5.793344218146927,0
2048,4.078599633826154,0
2049,5.784624320390149,0
2050,5.439845370521181,0
2051,5.5167277094443525,0
2052,4.759992558163432,0
2053,5.284528807238827,0
2054,4.319390720626536,0
2055,4.344727196773761,0
2056,4.4991998905000425,0
2057,4.680462552836689,0
2058,3.920714793585274,0
2059,5.565947077617725,0
2060,4.644352034230974,0
2061,4.6385195319875026,0
2062,5.004230660716878,0
2063,4.176854063174238,0
2064,4.329240618560231,0
2065,5.617305098203108,0
2066,4.027434562368132,0
2067,5.302625301389502,0
2068,4.495756689501859,0
2069,4.393809238100411,0
2070,4.450683008636229,0
2071,5.894714697444841,0
2072,5.116780671466861,0
2073,4.936299497522716,0
2074,5.125022178297813,0
2075,3.5575376727800037,0
2076,4.63198561455029,0
2077,6.067076104665027,0
2078,4.037177465153693,0
2079,5.306911294390911,0
2080,5.650731892390004,0
2081,4.797352075009467,0
2082,4.857407293851777,0
2083,4.209413564265827,0
2084,5.009050710558552,0
2085,4.441941797881008,0
2086,4.285839629080385,0
2087,4.847617286730043,0
2088,4.69147344226399,0
2089,5.290519987193144,0
2090,4.097738418019641,0
2091,6.4363698243064915,0
2092,4.728375508524988,0
2093,4.75322444451826,0
2094,4.462384704694792,0
2095,4.753657313234333,0
2096,4.48217882031051,0
2097,4.864764613751272,0
2098,4.720711189585614,0
2099,5.252795145207545,0
2100,3.7483126136620153,0
2101,5.873801572131054,0
2102,5.175571164829697,0
2103,6.378087606003204,0
2104,6.469410470561771,0
2105,8.003666225961744,0
2106,8.645098192307453,0
2107,10.579152215661413,0
2108,10.488091454613201,0
2109,11.388973189829652,0
2110,12.602635367374782,0
2111,11.19277406334786,0
2112,9.79602009660384,0
2113,8.665997383628268,0
2114,7.330606272325454,0
2115,4.837046733947843,0
2116,3.379546221687497,0
2117,2.1820601346998356,0
2118,1.8216072204282865,0
2119,1.9626497949708726,0
2120,2.1868832964105067,0
2121,3.79857766761732,0
2122,4.261129698487956,0
2123,6.031584527707016,0
2124,5.745446927068052,0
2125,6.992811878748354,0
2126,6.696572033085425,0
2127,6.575067369535155,0
2128,5.54837193388871,0
2129,4.864610650874734,0
2130,4.799778354318645,0
2131,4.170587330398617,0
2132,4.401821583705612,0
2133,4.446980798322687,0
2134,4.2742453677497885,0
2135,6.226570688005147,0
2136,5.6423017093161025,0
2137,5.180520217033476,0
2138,5.033612580627458,0
2139,5.0034305213908805,0
2140,4.925964568398594,0
2141,4.795533680461984,0
2142,4.525973577870262,0
2143,3.9443614784419796,0
2144,3.7930318297562975,0
2145,5.632089224217574,0
2146,5.132810957371813,0
2147,4.465068899092197,0
2148,5.73520947179236,0
2149,5.170081423944883,0
2150,4.338949816714931,0
2151,4.692120542683369,0
2152,4.349200216662275,0
2153,5.4407893987137665,0
2154,4.753232484835579,0
2155,5.101084079497817,0
2156,5.018199225865894,0
2157,5.0325094544613584,0
2158,6.15349210154613,0
2159,5.345804705159455,0
2160,4.6467500896389415,0
2161,5.469051279114533,0
2162,4.789998857094481,0
2163,5.061929426300013,0
2164,5.234385983474845,0
2165,4.34137324660079,0
2166,5.531296211348044,0
2167,5.149620619149661,0
2168,4.333231515098482,0
2169,3.8302614879075088,0
2170,4.962820842354024,0
2171,4.977614584940721,0
2172,4.676803167061645,0
2173,4.205812904882988,0
2174,4.55462388968816,0
2175,4.452075384946996,0
2176,5.525744651026285,0
2177,4.5975880852294955,0
2178,5.665796789607405,0
2179,4.0860011341408065,0
2180,5.287352615294311,0
2181,5.218862112228766,0
2182,5.171400546940017,0
2183,5.2471733567958,0
2184,4.805181381132279,0
2185,5.068695414995715,0
2186,4.749378448785146,0
2187,4.499435011372372,0
2188,5.293641233586536,0
2189,4.6773042879763835,0
2190,4.841738572526268,0
2191,5.104661837232317,0
2192,5.5838555173008775,0
2193,4.693817552982873,0
2194,5.636392839454334,0
2195,5.08962865119093,0
2196,5.087907928023504,0
2197,4.93606675246462,0
2198,5.46356433979887,0
2199,5.126065486987087,0
2200,5.742723230174847,0
2201,5.107757570314478,0
2202,5.373372503782447,0
2203,7.091654477425903,0
2204,6.823156774747793,0
2205,9.104726775835664,0
2206,9.670526527179485,0
2207,10.395461664222726,0
2208,11.014178764824408,0
2209,11.15484385057795,0
2210,11.833619124968497,0
2211,11.398324514681187,0
2212,10.376741776263247,0
2213,9.879861191451184,0
2214,6.914578507192015,0
2215,6.2832822963354555,0
2216,3.880605892864655,0
2217,2.317819306689213,0
2218,2.5942657903874595,0
2219,2.5259096438000945,0
2220,3.1821076099354344,0
2221,2.78362568050941,0
2222,4.1263452914078815,0
2223,5.664316349985832,0
2224,6.217143450471793,0
2225,6.4105026284028925,0
2226,6.8066875113453165,0
2227,6.535098077795577,0
2228,5.1928005992052535,0
2229,5.076202751232247,0
2230,4.038935508129725,0
2231,3.7450636147026515,0
2232,4.263996402231945,0
2233,4.87642582512032,0
2234,5.273300740503092,0
2235,4.703499845758002,0
2236,5.322981535280614,0
2237,5.446618203257741,0
2238,5.808548506580509,0
2239,5.198912335188347,0
2240,5.082032044586582,0
2241,5.709603066129469,0
2242,4.863883091807887,0
2243,4.233625213037047,0
2244,5.06580499453225,0
2245,5.88793253278916,0
2246,5.731413178666761,0
2247,5.300089693814693,0
2248,5.077579017974833,0
2249,4.974255192414744,0
2250,4.427457211322864,0
2251,5.755398770322711,0
2252,5.000295879976264,0
2253,5.160132575083804,0
2254,3.9089709527731964,0
2255,6.3375262373895005,0
2256,6.003591041033896,0
2257,5.322401868913625,0
2258,5.6828177006036,0
2259,4.9376080186743785,0
2260,5.271573002670241,0
2261,5.088330771382063,0
2262,5.78826913806271,0
2263,5.205319633021148,0
2264,5.002997609331577,0
2265,5.67811735087223,0
2266,5.2862218889849935,0
2267,4.677732397299756,0
2268,5.135153587185497,0
2269,4.721553126013548,0
2270,4.636768149396883,0
2271,4.77148790304982,0
2272,5.237552985805715,0
2273,4.3828340274312785,0
2274,4.535119521963424,0
2275,5.480954548724004,0
2276,5.114969848500517,0
2277,4.739438655383047,0
2278,5.403913754311556,0
2279,5.11651817212077,0
2280,5.38963031717714,0
2281,5.815873994671014,0
2282,5.5561764396572855,0
2283,4.403997672153491,0
2284,5.218663488457897,0
2285,4.444544166050599,0
2286,4.997946027589789,0
2287,4.797550855104759,0
2288,5.545199614388207,0
2289,5.129947489150504,0
2290,5.120841308822933,0
2291,5.241909648898996,0
2292,5.0046050281665595,0
2293,5.79718860716614,0
2294,5.219555101426742,0
2295,4.964943293479408,0
2296,4.673531448256621,0
2297,4.631065565024437,0
2298,5.125948538671303,0
2299,5.582701706235591,0
2300,5.226428636568912,0
2301,5.900845218593883,0
2302,5.497769741058835,0
2303,6.684447712673117,0
2304,7.347633656848908,0
2305,8.31661491503932,0
2306,9.294921331351029,0
2307,11.330326952314461,0
2308,11.217524509338958,0
2309,12.129232705941764,0
2310,11.682172135733882,0
2311,11.317234601851993,0
2312,11.559454545207442,0
2313,9.55652539137034,0
2314,7.639960552955708,0
2315,5.867773215217147,0
2316,4.323612238739633,0
2317,2.4648465634838446,0
2318,2.753992779472309,0
2319,1.2319790737047813,0
2320,2.580147976964383,0
2321,4.586844974754392,0
2322,5.072199425182452,0
2323,5.297004410049875,0
2324,6.042657428656332,0
2325,7.139649422301797,0
2326,5.957240319432973,0
2327,7.475858108323698,0
2328,6.085148755722503,0
2329,4.2987149990811515,0
2330,4.9061628875709005,0
2331,4.315733584847008,0
2332,4.799306633800709,0
2333,3.928335869832788,0
2334,4.239108749345687,0
2335,5.511505835626909,0
2336,5.431846973304176,0
2337,5.407334531310661,0
2338,4.497519394926497,0
2339,5.20391198258433,0
2340,5.582849099928891,0
2341,6.152466274286264,0
2342,5.35703559825295,0
2343,5.08660233802253,0
2344,5.307104872246844,0
2345,5.8648362600907245,0
2346,5.137893171664322,0
2347,6.308453922630316,0
2348,5.103203383136118,0
2349,5.1798335449275035,0
2350,5.354661898789171,0
2351,5.129255954863347,0
2352,4.14682176944041,0
2353,5.141844271291563,0
2354,4.1796172419943005,0
2355,4.793427632208147,0
2356,5.556970249246761,0
2357,5.384473252998518,0
2358,5.61480191213916,0
2359,5.160724700224455,0
2360,5.957494937480338,0
2361,5.5183737264299815,0
2362,5.2781189848923855,0
2363,5.695685963242476,0
2364,5.398939774605546,0
2365,5.199069030976119,0
2366,5.606659618299292,0
2367,5.836262049375909,0
2368,4.900515639819606,0
2369,5.514573049598686,0
2370,5.688026522807732,0
2371,5.2436488043908644,0
2372,5.786394754346046,0
2373,4.95862319309251,0
2374,5.78277048414934,0
2375,5.230940289162194,0
2376,4.574195433746578,0
2377,5.560619074606674,0
2378,5.246743292909269,0
2379,5.545186035053739,0
2380,5.1920382397854015,0
2381,5.369712330386377,0
2382,4.321849828129746,0
2383,5.774775491591849,0
2384,5.159887930368088,0
2385,5.9327155830896405,0
2386,5.348761873161197,0
2387,5.980913565427142,0
2388,6.344346817832226,0
2389,5.800780208621614,0
2390,4.687265102211905,0
2391,6.053133211387102,0
2392,5.020065194569122,0
2393,5.535361948844988,0
2394,5.597503184789454,0
2395,4.932976355104442,0
2396,5.005293750565206,0
2397,5.071097828243575,0
2398,6.192806091721664,0
2399,5.788565323161022,0
2400,5.340507054121323,0
2401,5.971460197720027,0
2402,6.994078625284612,0
2403,6.608938212082165,0
2404,7.429838228423762,0
2405,7.689538854621958,0
2406,8.632753870675709,0
2407,10.117516988247917,0
2408,11.572747616623346,0
2409,11.712089756550768,0
2410,12.49710835190957,0
2411,11.405145340643353,0
2412,10.809350098431498,0
2413,9.584632197981332,0
2414,8.734054160820225,0
2415,6.345416247774484,0
2416,4.03365208458905,0
2417,3.390611353166287,0
2418,2.294991028516377,0
2419,2.4634167250537966,0
2420,3.0871642739448406,0
2421,3.7215734296502596,0
2422,4.9300820201302,0
2423,6.038206514114414,0
2424,6.483366859604255,0
2425,6.7863110872254255,0
2426,6.301430050929267,0
2427,5.997492258132279,0
2428,6.379346141511455,0
2429,5.112184706249625,0
2430,3.8078536918136834,0
2431,5.0829873436164466,0
2432,5.228066900619905,0
2433,5.306115396324437,0
2434,3.952677629490938,0
2435,4.78272150163562,0
2436,5.4341652118113215,0
2437,5.505023741447559,0
2438,4.6442226047865365,0
2439,5.364439649679975,0
2440,5.153938916259164,0
2441,5.707081520798651,0
2442,5.219419990820917,0
2443,4.865178729009874,0
2444,5.211582361909426,0
2445,5.898946657804971,0
2446,5.043436315890694,0
2447,5.630569451778498,0
2448,5.308343911870686,0
2449,5.6269786012946,0
2450,5.359200696753608,0
2451,5.896914769212582,0
2452,4.8951717490416495,0
2453,5.24324242781119,0
2454,5.771719860466364,0
2455,4.623450557635004,0
2456,5.1270920682085945,0
2457,4.967802054233713,0
2458,5.355849977435099,0
2459,5.497278751572432,0
2460,4.696018632580719,0
2461,5.1066094079961095,0
2462,5.028672159362784,0
2463,5.712997815978014,0
2464,5.063315782904528,0
2465,5.0902364716335295,0
2466,6.265904676826888,0
2467,5.245557917248268,0
2468,5.89661713730322,0
2469,4.791273675827837,0
2470,5.586928868009389,0
2471,5.591831681597121,0
2472,6.577748685666597,0
2473,5.761003085671886,0
2474,5.233872983449523,0
2475,5.124903322594522,0
2476,6.412744035219487,0
2477,5.46825636755026,0
2478,6.082729498564234,0
2479,4.5614356562148926,0
2480,4.878051886713993,0
2481,5.266254289931042,0
2482,5.901649966087489,0
2483,5.292387201377283,0
2484,5.807818907661657,0
2485,6.194001632008514,0
2486,5.569389328424486,0
2487,4.74781443269542,0
2488,5.2967964176238524,0
2489,6.010001986303793,0
2490,5.785737918552296,0
2491,5.629278483407657,0
2492,6.746132577981586,0
2493,4.371420784914678,0
2494,4.9239755567529535,0
2495,5.457504370817145,0
2496,5.800412025804419,0
2497,5.352990780067142,0
2498,6.128606170485374,0
2499,5.086916735632765,0
2500,5.218855436373338,0
2501,6.232468548041651,0
2502,6.2045740381241465,0
2503,7.471206071288771,0
2504,7.1725846681183345,0
2505,8.291349610428988,0
2506,9.741765283212795,0
2507,11.130895659151737,0
2508,11.48197757391679,0
2509,11.918439635175869,0
2510,12.078602928579382,0
2511,12.801502585487054,0
2512,10.914236037454526,0
2513,10.046598807417801,0
2514,8.38849187837949,0
2515,6.126689830039492,0
2516,4.005632213259297,0
2517,2.307451095921829,0
2518,3.415178229558371,0
2519,2.4125982978131373,0
2520,3.536421396788292,0
2521,3.8927715119090913,0
2522,4.846336023084778,0
2523,6.349943687997259,0
2524,7.745837195176571,0
2525,7.478393657068381,0
2526,7.205632318489345,0
2527,6.282173533750221,0
2528,5.997824468166945,0
2529,6.1578014026010734,0
2530,4.836714065856718,0
2531,4.700595243820683,0
2532,4.614828022119518,0
2533,5.3540604789714745,0
2534,5.341238141896042,0
2535,5.049453359922425,0
2536,5.891689093018156,0
2537,5.925913267251311,0
2538,6.50180299552394,0
2539,5.870025606211413,0
2540,5.741970627696906,0
2541,4.931666895116436,0
2542,5.179664796159357,0
2543,5.428435575576076,0
2544,6.300653411204062,0
2545,6.3457215134365645,0
2546,5.4125975398540955,0
2547,5.482585308570769,0
2548,6.149149968633233,0
2549,6.217858769901172,0
2550,5.485820745232579,0
2551,5.702017116163755,0
2552,5.101323842276798,0
2553,5.382388742319375,0
2554,5.729667520824768,0
2555,5.340975181959985,0
2556,5.840677833906338,0
2557,4.908729327743174,0
2558,5.651024574316777,0
2559,5.903108554180912,0
2560,5.21893096471466,0
2561,5.501931098802411,0
2562,5.744397135585114,0
2563,4.894383641840709,0
2564,5.083239498974647,0
2565,5.696651707542708,0
2566,5.3262212050574265,0
2567,5.739284912322399,0
2568,4.821203745266668,0
2569,5.164074744051098,0
2570,5.115304348079849,0
2571,5.9909503222808205,0
2572,5.715513127745603,0
2573,5.818807657028349,0
2574,6.039144393292121,0
2575,5.683766448092692,0
2576,6.05739832638907,0
2577,6.078977984661697,0
2578,5.713625629502985,0
2579,5.616886295354553,0
2580,5.770107031686487,0
2581,5.535558679495589,0
2582,5.460618164182572,0
2583,5.627331868452509,0
2584,5.400809299305004,0
2585,5.720915897434303,0
2586,5.1471060457143025,0
2587,5.941913150778327,0
2588,6.267728187465836,0
2589,5.596507130152513,0
2590,5.947606359268975,0
2591,6.354154939990159,0
2592,4.9718237342507186,0
2593,6.457759493231527,0
2594,5.737643977629345,0
2595,5.892876458796288,0
2596,5.79186429845062,0
2597,5.701140566436123,0
2598,6.22575050875654,0
2599,5.573891270424599,0
2600,6.609092826983252,0
2601,5.957483112069965,0
2602,6.481021376407526,0
2603,7.402782178832462,0
2604,7.404884113020243,0
2605,8.486012159181183,0
2606,8.683635306898125,0
2607,10.617387368539845,0
2608,11.681007687815484,0
2609,12.2689689517176,0
2610,12.599639139152947,0
2611,12.570439522891386,0
2612,12.015405814589554,0
2613,9.39954763816289,0
2614,8.287918146681356,0
2615,6.624695655900694,0
2616,5.452092633682103,0
2617,3.085839802489992,0
2618,3.0320596512487406,0
2619,2.5825734579330453,0
2620,3.324087981846861,0
2621,4.337905170234918,0
2622,4.574478845737148,0
2623,6.238363472976425,0
2624,6.672588509423495,0
2625,7.342867748850943,0
2626,6.697673930992437,0
2627,6.850939554860368,0
2628,5.803159891321023,0
2629,5.530198236222327,0
2630,4.616132626209022,0
2631,4.683525275704598,0
2632,5.017902740574156,0
2633,5.461951748982578,0
2634,4.958791615439953,0
2635,6.382268929508459,0
2636,5.874262209109267,0
2637,6.4757751613237495,0
2638,5.754376722924908,0
2639,6.176116779226752,0
2640,5.596249139149588,0
2641,5.5812448511368435,0
2642,5.571198525062842,0
2643,5.440117717441704,0
2644,5.7273399219772045,0
2645,5.503637040120229,0
2646,5.526047671867135,0
2647,6.607043453519779,0
2648,5.475828806172666,0
2649,5.47573800418171,0
2650,6.305202870718196,0
2651,5.4435328120500435,0
2652,5.790538806124754,0
2653,5.189160928811123,0
2654,6.256551896680346,0
2655,5.793324008247648,0
2656,6.235671820755917,0
2657,5.667169681256843,0
2658,6.472710561174722,0
2659,5.75100442323613,0
2660,6.154417600901058,0
2661,5.45829794588887,0
2662,6.2744818459472524,0
2663,6.094964193545026,0
2664,5.5540601940158805,0
2665,6.7376760620659155,0
2666,5.864918971674328,0
2667,5.764454701067917,0
2668,5.5934947003372155,0
2669,6.259011489972979,0
2670,5.952901327989849,0
2671,5.786446254188702,0
2672,5.403653424960518,0
2673,5.02499290826571,0
2674,5.4650258247210886,0
2675,4.853253990182381,0
2676,5.595812759848686,0
2677,5.170104580514631,0
2678,5.196586736506622,0
2679,7.004655070561303,0
2680,5.442545004403666,0
2681,5.953880693344811,0
2682,6.42286872548984,0
2683,5.8192694853822395,0
2684,5.531444517922143,0
2685,6.967958052362264,0
2686,5.392023413709245,0
2687,5.579763089594376,0
2688,5.233517963699911,0
2689,5.805236438859757,0
2690,5.720955534801646,0
2691,5.297951952973404,0
2692,5.751724289330717,0
2693,5.997407256948377,0
2694,6.222790985586835,0
2695,5.638714813040986,0
2696,5.4527314185154205,0
2697,5.401438054892777,0
2698,6.370240908282376,0
2699,4.974225860104582,0
2700,5.34876111954953,0
2701,6.114883485245981,0
2702,6.917274717440919,0
2703,7.898718843829083,0
2704,6.503409044647229,0
2705,8.265436798949302,0
2706,9.353193107206808,0
2707,10.514717209620743,0
2708,11.500619783720092,0
2709,12.54130279088512,0
2710,13.294378845979521,0
2711,12.034711905369127,0
2712,11.960664374486836,0
2713,9.58755278946316,0
2714,8.962161449679138,0
2715,6.5758620915941925,0
2716,5.774728078654202,0
2717,3.499904560000476,0
2718,3.227519734043714,0
2719,3.230735775435775,0
2720,4.20259584436427,0
2721,5.14826930946184,0
2722,5.946094830502262,0
2723,6.61057486555821,0
2724,7.277751622476549,0
2725,8.186862103337319,0
2726,7.018646650129442,0
2727,6.813839546315398,0
2728,6.144112305341401,0
2729,5.126852442830793,0
2730,5.513985883821905,0
2731,5.2790731366404655,0
2732,5.02166449671139,0
2733,5.366679638135425,0
2734,6.223526912547395,0
2735,5.9382034186802075,0
2736,6.271405818131157,0
2737,5.516733524193419,0
2738,6.181938262596421,0
2739,5.922521476908635,0
2740,4.995289854417723,0
2741,6.364263777162281,0
2742,6.2793173343118065,0
2743,5.953930361042548,0
2744,5.749340642037908,0
2745,6.3464866122929955,0
2746,6.3375920717426295,0
2747,5.599446121919918,0
2748,6.52083452958919,0
2749,5.257402082532482,0
2750,6.532113933416603,0
2751,5.630233590143643,0
2752,5.852120752735324,0
2753,5.065768497383005,0
2754,5.518447020617164,0
2755,5.887414094158042,0
2756,6.0270548343046535,0
2757,6.180974774644394,0
2758,6.630318750485332,0
2759,6.046593355635094,0
2760,5.665532035044952,0
2761,5.426545131318939,0
2762,7.00385416928132,0
2763,6.0456173587120245,0
2764,5.936738309924231,0
2765,5.999832657852385,0
2766,6.717483440635071,0
2767,6.347550378603853,0
2768,5.588002991777993,0
2769,5.703706739818908,0
2770,6.778968831764362,0
2771,6.277677710767227,0
2772,6.557350226679959,0
2773,6.75176249476073,0
2774,5.607941506804391,0
2775,6.026743544678514,0
2776,6.752162434278435,0
2777,6.007803160814019,0
2778,6.816221401309194,0
2779,5.597791639734637,0
2780,5.79380547444082,0
2781,5.987461734386554,0
2782,5.891806758111301,0
2783,6.983969321472453,0
2784,6.133572973678687,0
2785,6.074967095097186,0
2786,5.816802660204852,0
2787,5.952942166287326,0
2788,6.134472746135781,0
2789,6.228753481298626,0
2790,5.665487882013444,0
2791,6.4035407778580655,0
2792,6.507505854474899,0
2793,5.860320655139749,0
2794,6.026347367422134,0
2795,5.625362404380622,0
2796,6.812571671101089,0
2797,6.192378373716254,0
2798,6.404671181730827,0
2799,5.856208678114336,0
2800,6.871410806136075,0
2801,7.117326936545212,0
2802,6.987155844207381,0
2803,7.6853314501901915,0
2804,8.357800015230236,0
2805,8.360557151687132,0
2806,9.591261285507118,0
2807,11.029483788467662,0
2808,12.246883400022849,0
2809,13.335581352773104,0
2810,13.309140886768454,0
2811,12.170341973200633,0
2812,12.583422368294867,0
2813,10.477924198296545,0
2814,8.421370907467345,0
2815,6.4922776752673155,0
2816,5.44696594653184,0
2817,3.6281412467247125,0
2818,2.5751755270826497,0
2819,4.453782437068503,0
2820,3.52083205647232,0
2821,3.903620759195008,0
2822,5.392300007531624,0
2823,7.306001166853592,0
2824,7.12065427942689,0
2825,7.174639617800297,0
2826,7.620447710593924,0
2827,7.409072805110891,0
2828,6.991060851085331,0
2829,6.212633081309833,0
2830,5.563960712706723,0
2831,4.898499705335786,0
2832,4.817973801936845,0
2833,4.57550593791365,0
2834,5.085249886906526,0
2835,6.697719720243164,0
2836,5.8408252397489075,0
2837,6.722825102053637,0
2838,7.110741360684655,0
2839,6.838839285663039,0
2840,5.782714963863316,0
2841,5.88627437179503,0
2842,6.2282179730161085,0
2843,6.91793703521241,0
2844,5.284015860604967,0
2845,5.937638063920617,0
2846,5.72360949749324,0
2847,5.325849191131287,0
2848,6.455639515300177,0
2849,6.827580667996257,0
2850,6.31384497426208,0
2851,5.951226396939857,0
2852,6.315170303981136,0
2853,6.822714949420115,0
2854,5.5171230749225,0
2855,6.122075250441532,0
2856,5.903380817344229,0
2857,6.456246862912369,0
2858,6.603070172198402,0
2859,6.223742134552038,0
2860,5.247642105466535,0
2861,6.909860906602124,0
2862,6.723058906167352,0
2863,5.868675912736363,0
2864,6.273196267842589,0
2865,5.863094723568229,0
2866,5.7712554451725016,0
2867,5.5190252866826395,0
2868,6.823529375292722,0
2869,6.032105367374534,0
2870,5.73325535548498,0
2871,6.040059716036,0
2872,6.3945092952517495,0
2873,5.453673490562807,0
2874,6.366155442268527,0
2875,6.36629238034418,0
2876,6.501414401932294,0
2877,5.546563503573688,0
2878,5.709564533325106,0
2879,7.375004398518851,0
2880,6.408203767727319,0
2881,5.984127159635756,0
2882,5.745537910891367,0
2883,5.005738368876786,0
2884,6.7730683489096934,0
2885,6.1199176356288065,0
2886,6.578800488429398,0
2887,6.37243093623943,0
2888,5.628965354151642,0
2889,6.105860497289752,0
2890,5.804157603072455,0
2891,6.132802473738984,0
2892,6.409864985614868,0
2893,5.300275720924023,0
2894,6.070409601870655,0
2895,6.0419630230940555,0
2896,5.928106899892687,0
2897,6.086663839466683,0
2898,6.47392876289418,0
2899,6.386077713113594,0
2900,6.752530667436124,0
2901,6.825183287910507,0
2902,7.0494959356952,0
2903,7.93416936414663,0
2904,8.532843260000634,0
2905,9.191321207519923,0
2906,9.989573649737494,0
2907,11.196490514258983,0
2908,11.965103777367531,0
2909,12.341574909393255,0
2910,12.297057980027063,0
2911,12.481338606769132,0
2912,11.588051777222162,0
2913,10.252938588626254,0
2914,7.9064855450100024,0
2915,7.447092876577247,0
2916,5.083042445875392,0
2917,5.254944088583105,0
2918,2.7549427048340047,0
2919,2.0742379368862323,0
2920,3.8224100133211367,0
2921,5.225705602228181,0
2922,4.802072345033987,0
2923,6.784625997000181,0
2924,8.238705257123991,0
2925,7.547198622465736,0
2926,9.253032479381677,0
2927,6.650699441673328,0
2928,6.952563571120552,0
2929,5.769096345216723,0
2930,5.105119994612001,0
2931,5.753242684824372,0
2932,4.826639706783895,0
2933,4.897709867224766,0
2934,5.699727020040111,0
2935,6.034132128371073,0
2936,6.223436619552237,0
2937,7.154123782347017,0
2938,7.166279436026339,0
2939,5.913348172090698,0
2940,6.572997865385958,0
2941,6.00925993513087,0
2942,5.412174508557316,0
2943,6.779976593899367,0
2944,6.63204398480827,0
2945,5.937326857055326,0
2946,5.70020468222298,0
2947,5.670960364800834,0
2948,5.3914952724408645,0
2949,6.949767050526252,0
2950,5.730538767941764,0
2951,6.522382555975335,0
2952,6.235899454655699,0
2953,6.6577660764244735,0
2954,6.53821551300934,0
2955,6.227778209648034,0
2956,5.484062407190968,0
2957,6.103216194636096,0
2958,5.484660577728879,0
2959,6.470289127749422,0
2960,6.705279081937871,0
2961,5.175804707408727,0
2962,6.710571738091339,0
2963,5.139781077831234,0
2964,6.038737113199594,0
2965,7.061891609101311,0
2966,5.611476947889208,0
2967,5.1531418865394185,0
2968,5.532823282328693,0
2969,6.0877656473382356,0
2970,6.169720537587832,0
2971,6.737529798746204,0
2972,6.621911947265842,0
2973,6.146592234182299,0
2974,6.051648618284875,0
2975,7.161312826881561,0
2976,5.4027932339707245,0
2977,5.857702577959498,0
2978,5.757635287523813,0
2979,5.131595522342955,0
2980,6.3913525157907936,0
2981,6.240626891511551,0
2982,6.372219377377294,0
2983,6.469894073258707,0
2984,6.281188662010985,0
2985,6.207807680893103,0
2986,5.9586231344141005,0
2987,7.223389753734689,0
2988,6.491237072567352,0
2989,6.426704655331809,0
2990,5.930488935175073,0
2991,5.791246582322197,0
2992,6.239098898109572,0
2993,6.170808652251732,0
2994,5.627982032711448,0
2995,6.309205290577898,0
2996,6.154052103657712,0
2997,5.590680156161255,0
2998,4.607207101970797,0
2999,6.308010943377492,0
3000,6.289657514167888,0
3001,6.468266056541182,0
3002,7.702810762681366,0
3003,7.900458994281476,0
3004,8.005901475900764,0
3005,8.402484898505787,0
3006,9.95960136331122,0
3007,11.72794497506331,0
3008,11.89011578436683,0
3009,12.868124329742017,0
3010,12.067717638906077,0
3011,12.304752801766252,0
3012,11.909235850340913,0
3013,10.33855079017495,0
3014,7.96049768928063,0
3015,6.971716052049884,0
3016,6.0885283014230565,0
3017,4.083005977510781,0
3018,3.2977008347113372,0
3019,2.546545189728188,0
3020,2.6143499483899757,0
3021,4.472336289580013,0
3022,4.672077328008877,0
3023,6.368926648970232,0
3024,7.831478724739455,0
3025,7.534782471676744,0
3026,7.303669661495221,0
3027,7.191682782592656,0
3028,6.688220111176541,0
3029,6.516197464684833,0
3030,6.626824609061838,0
3031,5.567488418117136,0
3032,6.186331613195554,0
3033,4.722175604679024,0
3034,5.688609198684077,0
3035,6.270634855279018,0
3036,6.392440107537779,0
3037,5.97348402699085,0
3038,6.793716705247558,0
3039,6.48349070802074,0
3040,6.635446786420862,0
3041,6.153340149418109,0
3042,6.883482741367691,0
3043,7.375271857875768,0
3044,5.740203026708528,0
3045,5.72834806608917,0
3046,5.315055010772236,0
3047,5.655391271401894,0
3048,6.3893278864501655,0
3049,6.2965855641536495,0
3050,6.497142208358464,0
3051,6.649002512541548,0
3052,6.723330733497378,0
3053,5.978547665512369,0
3054,5.682209854941442,0
3055,6.944689615526557,0
3056,6.043077656990599,0
3057,5.966596329664823,0
3058,6.398809766694311,0
3059,6.736218912748077,0
3060,5.589823490447372,0
3061,6.391426003605231,0
3062,5.8179717837550635,0
3063,6.6601362557589905,0
3064,6.2917695094786135,0
3065,7.364066636934147,0
3066,6.487747234347657,0
3067,6.885743546304934,0
3068,6.479115790774146,0
3069,6.509485109657272,0
3070,6.332545066223353,0
3071,7.235007539293409,0
3072,6.032116547348776,0
3073,6.697445500292427,0
3074,5.814548081736333,0
3075,6.778874935091625,0
3076,6.26987082469577,0
3077,5.933323491221233,0
3078,5.991051480487944,0
3079,6.038953490129784,0
3080,5.690283988823704,0
3081,4.924278789773594,0
3082,6.086072411626767,0
3083,6.814452725732415,0
3084,6.147378219712123,0
3085,5.436157845309451,0
3086,6.0620492319868,0
3087,6.583238694325996,0
3088,5.7201044292899335,0
3089,5.084470029840716,0
3090,6.465590454441437,0
3091,7.056817205001548,0
3092,6.195485735325707,0
3093,5.912638615076378,0
3094,6.489882678658009,0
3095,6.192693791943844,0
3096,6.089219352606746,0
3097,5.816744893005062,0
3098,6.196348837989671,0
3099,7.34351568923688,0
3100,6.60669866191032,0
3101,6.330404180482815,0
3102,7.652154173380891,0
3103,8.252133350339816,0
3104,8.469076755024973,0
3105,9.63323310087397,0
3106,10.306429569955204,0
3107,11.308130756531142,0
3108,11.858846959450922,0
3109,11.60009003466304,0
3110,13.834755768069364,0
3111,13.10204260057596,0
3112,11.866881879352269,0
3113,11.142374586559288,0
3114,9.21854806263466,0
3115,7.5868646431784565,0
3116,5.861835110151885,0
3117,4.539505716035635,0
3118,3.6179827971930014,0
3119,3.0063291951381808,0
3120,4.171497276654312,0
3121,4.629122985218947,0
3122,5.075939429920141,0
3123,7.7557026242513665,0
3124,7.258302549552244,0
3125,7.763337971401631,0
3126,8.036553461529381,0
3127,7.80045689672858,0
3128,6.863605602937211,0
3129,6.450503207310906,0
3130,5.481637999013634,0
3131,5.183890943376676,0
3132,5.431328538886594,0
3133,5.950986074992644,0
3134,6.300241497090026,0
3135,6.783938661712585,0
3136,6.383806175036492,0
3137,5.897165649483247,0
3138,6.297285267677307,0
3139,6.738483647043134,0
3140,6.23681346244856,0
3141,5.820263653376348,0
3142,6.1570511938338655,0
3143,6.159612457143972,0
3144,5.802489266225477,0
3145,6.173966562217414,0
3146,6.469547233797353,0
3147,6.501280268228097,0
3148,6.032858470133875,0
3149,6.059406728040626,0
3150,5.672677621508846,0
3151,6.445288804378102,0
3152,5.5965647092150945,0
3153,5.994050763156066,0
3154,7.146600577619452,0
3155,6.2826231185625785,0
3156,6.832184735777871,0
3157,6.452360691437852,0
3158,5.528458508707913,0
3159,6.168414048028026,0
3160,5.912749881829257,0
3161,6.285724053730128,0
3162,6.549809266592257,0
3163,6.149458035077705,0
3164,6.8175125060337685,0
3165,5.916324920485713,0
3166,7.182481262403212,0
3167,6.917652833492392,0
3168,6.298285960634891,0
3169,6.484135147962475,0
3170,6.142826366282198,0
3171,6.243366069685858,0
3172,7.430087598133689,0
3173,6.94765559040523,0
3174,6.193257434234497,0
3175,5.525179170798743,0
3176,6.715397990337478,0
3177,6.3332122771075525,0
3178,5.9509324139630975,0
3179,6.69335070594303,0
3180,6.205310328379076,0
3181,5.0063267692658755,0
3182,7.2576142051028265,0
3183,5.810863604679884,0
3184,6.168663847443437,0
3185,6.585797107531262,0
3186,6.292997652869325,0
3187,5.602994216836277,0
3188,6.288759584224417,0
3189,6.971754914050536,0
3190,6.819197328076384,0
3191,6.498317086782806,0
3192,5.813443594982139,0
3193,7.183131137975792,0
3194,6.279819839939973,0
3195,6.255991917165329,0
3196,6.030824596924183,0
3197,5.927130093860188,0
3198,6.595436033258085,0
3199,6.2807075496491045,0
3200,6.324807393980157,0
3201,6.9712350745206155,0
3202,6.642961966449006,0
3203,6.829996960545838,0
3204,8.188795974075138,0
3205,9.788200095347282,0
3206,9.408233102798928,0
3207,10.930438486854875,0
3208,12.33991689083583,0
3209,12.812332847804484,0
3210,13.394827403742573,0
3211,13.35928240719255,0
3212,13.29004781277167,0
3213,11.10116155773485,0
3214,8.683433066535798,0
3215,6.950030131181027,0
3216,4.674466426373758,0
3217,5.284301032031989,0
3218,4.6472970045063455,0
3219,3.5862771301692478,0
3220,3.6293231169821794,0
3221,5.113024780443775,0
3222,6.218508662737294,0
3223,6.78957746187081,0
3224,7.374316611642984,0
3225,7.60413112632974,0
3226,7.412569692270026,0
3227,7.102106805293202,0
3228,7.739038340176219,0
3229,4.547207902008574,0
3230,5.344810104279125,0
3231,5.474901582531396,0
3232,6.052495869597658,0
3233,5.129794116175487,0
3234,5.936547764660461,0
3235,7.031074690526891,0
3236,6.526096977529158,0
3237,6.231029977296792,0
3238,6.821918276537271,0
3239,6.644245855689294,0
3240,6.7575137283851205,0
3241,6.071272927476542,0
3242,6.649024771527663,0
3243,6.945049406017549,0
3244,6.467626872971434,0
3245,6.84136455529351,0
3246,5.7052652179954,0
3247,6.279854991671476,0
3248,6.405769672546252,0
3249,6.900271312562992,0
3250,6.32957048117395,0
3251,7.158963577956272,0
3252,6.0168433537676895,0
3253,6.163663902764072,0
3254,6.580100750123451,0
3255,6.256789542165456,0
3256,6.898134688928532,0
3257,6.147054747181091,0
3258,6.414368930536518,0
3259,6.578284346261024,0
3260,6.936930487841283,0
3261,6.8504587705058295,0
3262,6.994450677346613,0
3263,6.36763060729621,0
3264,6.544281226555523,0
3265,6.647576449671987,0
3266,6.603480787757529,0
3267,6.62333699270282,0
3268,7.080849206824055,0
3269,6.63860733397048,0
3270,6.273840447798972,0
3271,7.206254600608748,0
3272,6.428400311053752,0
3273,5.921538090653908,0
3274,6.330906445840504,0
3275,6.300187720685852,0
3276,6.9508671207113135,0
3277,6.801219080334148,0
3278,6.899676271670948,0
3279,5.921166440831129,0
3280,6.60586961629243,0
3281,6.237338343906792,0
3282,7.208124151362215,0
3283,5.713366427303269,0
3284,6.260702525775818,0
3285,6.177073382051688,0
3286,6.569872627701417,0
3287,6.758205590303537,0
3288,6.401189409948303,0
3289,6.558902515591138,0
3290,6.706329170502512,0
3291,7.337469184507019,0
3292,6.849400758369792,0
3293,6.592761711417505,0
3294,6.709902360237716,0
3295,6.72342684436938,0
3296,7.214490849914701,0
3297,5.702711600835962,0
3298,6.514169213565694,0
3299,7.11235045054365,0
3300,6.313446482372198,0
3301,7.499045013420144,0
3302,7.420194879903069,0
3303,7.128818090257971,0
3304,8.85208520164634,0
3305,10.648108469444313,0
3306,10.310057312871873,0
3307,12.110776461153929,0
3308,12.817249827144831,0
3309,12.712069199922807,0
3310,13.09826935927806,0
3311,13.447039608678974,0
3312,12.542102743396711,0
3313,11.376842433189037,0
3314,9.919314388297485,0
3315,6.728571069233712,0
3316,4.982245558907218,0
3317,4.731920613217561,0
3318,3.7690385434260336,0
3319,3.878727852704672,0
3320,4.2670923578046995,0
3321,4.395492028317329,0
3322,5.878147165201116,0
3323,7.304877520892315,0
3324,7.172902053199944,0
3325,8.816116078444406,0
3326,7.352206037936249,0
3327,7.482355254360878,0
3328,7.299488520820669,0
3329,7.05923762223175,0
3330,5.908868915831911,0
3331,5.006953748888649,0
3332,5.853660841517372,0
3333,6.170227023160758,0
3334,5.5744546845424,0
3335,6.008346635949386,0
3336,6.537317272902734,0
3337,7.163019549305795,0
3338,6.424832216435842,0
3339,7.246582575331388,0
3340,5.905117879735151,0
3341,7.223063734800115,0
3342,6.7352390971225855,0
3343,5.695386761185167,0
3344,6.8149467181876275,0
3345,6.596917109791956,0
3346,7.189341370471488,0
3347,7.350653456954892,0
3348,6.34168247950908,0
3349,7.163730625794125,0
3350,6.68088871283741,0
3351,5.784318935144528,0
3352,6.133426465750095,0
3353,6.99975355617141,0
3354,5.890530416165194,0
3355,6.181471776743551,0
3356,6.185512657696194,0
3357,7.511712488779467,0
3358,6.320595838359411,0
3359,7.102811234548161,0
3360,7.323033583395573,0
3361,6.57783181265453,0
3362,6.204107739810445,0
3363,7.163933344957092,0
3364,6.37121497555713,0
3365,6.336704891550909,0
3366,7.397669887429092,0
3367,6.196042879902277,0
3368,6.359677558839616,0
3369,6.8565329692206625,0
3370,7.02202670075619,0
3371,6.08490743561928,0
3372,7.289890314406776,0
3373,6.413463930595746,0
3374,7.284094133507997,0
3375,7.252138611190976,0
3376,7.112814886260998,0
3377,6.263420358294374,0
3378,7.355928036407855,0
3379,6.7768000588111175,0
3380,6.580541789553527,0
3381,7.416159060041463,0
3382,6.887172693789877,0
3383,7.419365521254722,0
3384,6.740289466656404,0
3385,7.15036252922482,0
3386,6.923883318279236,0
3387,5.853863360773046,0
3388,6.892106334474909,0
3389,5.824763076595464,0
3390,6.433837513832739,0
3391,6.613786451256731,0
3392,6.2956109695094495,0
3393,6.698860627033647,0
3394,6.042631888076206,0
3395,6.272952841711276,0
3396,5.782820017948487,0
3397,6.377938696706473,0
3398,6.9785872583825554,0
3399,6.055826344458269,0
3400,5.344834033280532,0
3401,7.2333726743676,0
3402,6.414405837435012,0
3403,7.437030234142835,0
3404,8.860324582184955,0
3405,8.65306326664686,0
3406,10.674147902268693,0
3407,10.284809597676132,0
3408,12.006345671686145,0
3409,12.861623333842788,0
3410,14.124545982076917,0
3411,13.410923959016761,0
3412,13.004282763352451,0
3413,11.955854547496353,0
3414,9.410003464734032,0
3415,8.318075017817527,0
3416,6.306804718716149,0
3417,4.174860163078396,0
3418,3.2036328227167536,0
3419,2.817190430837969,0
3420,4.9278841693054005,0
3421,4.943915851938474,0
3422,6.331483750694853,0
3423,7.830607472397266,0
3424,8.602347747660286,0
3425,7.656569848119045,0
3426,8.735639047248165,0
3427,7.097225503963878,0
3428,7.024291509929354,0
3429,7.373283665217989,0
3430,5.419152520661163,0
3431,6.238854167915124,0
3432,6.6449886615966784,0
3433,6.207747757370987,0
3434,6.075744525469395,0
3435,6.25035445221801,0
3436,7.360081524215647,0
3437,8.224027010647998,0
3438,7.281641344372447,0
3439,6.81385238506863,0
3440,5.534709886412877,0
3441,5.9004640622795295,0
3442,6.378083199472167,0
3443,7.496997984615124,0
3444,7.416816622431751,0
3445,6.8974738930103365,0
3446,6.098371522770142,0
3447,7.249712700936818,0
3448,6.606412538718706,0
3449,6.19930173447382,0
3450,6.1869356110195515,0
3451,7.692497579240103,0
3452,6.7968297139017375,0
3453,6.340411426544341,0
3454,6.046574136971309,0
3455,6.507954216470456,0
3456,6.45350475068471,0
3457,6.911090077178828,0
3458,6.833814280971932,0
3459,6.666403352942638,0
3460,7.35201252884532,0
3461,7.508275904341659,0
3462,6.29417969659931,0
3463,6.9859677493620955,0
3464,6.8861732957075015,0
3465,6.589526296088779,0
3466,7.042915754964225,0
3467,6.656472020960467,0
3468,6.367077898288464,0
3469,6.315957135482206,0
3470,7.196685639455596,0
3471,5.904850219004832,0
3472,7.220616722441348,0
3473,6.467929157287447,0
3474,6.980004408113785,0
3475,6.973356572783267,0
3476,6.741639538397371,0
3477,6.948749555526,0
3478,8.843137793378126,0
3479,6.626378359025141,0
3480,6.936519912622788,0
3481,7.128618699315504,0
3482,6.3001042293531775,0
3483,7.208872988274743,0
3484,6.781080177198124,0
3485,6.7982390408751385,0
3486,7.3012393800353745,0
3487,6.5282717706617515,0
3488,5.916000939941475,0
3489,7.224278967722896,0
3490,6.633210452759183,0
3491,8.077410686093769,0
3492,6.694821759026244,0
3493,7.053566461412697,0
3494,7.0962719334862285,0
3495,7.175473498406787,0
3496,8.030585514222317,0
3497,6.3004581857526345,0
3498,6.876957455897816,0
3499,6.319735432064612,0
3500,6.499270341612824,0
3501,6.671657255040397,0
3502,7.6466019442465925,0
3503,7.593710897229385,0
3504,7.775632130285873,0
3505,8.924059669733676,0
3506,9.915382612036806,0
3507,11.086483052238535,0
3508,12.728419821974825,0
3509,13.758263601830162,0
3510,13.333607114884655,0
3511,13.939855882201464,0
3512,13.430762601011377,0
3513,10.819682386691543,0
3514,9.41355706250934,0
3515,7.5428004375037325,0
3516,6.2894635561796095,0
3517,5.218621404207058,0
3518,3.835045508060955,0
3519,3.6925844438857944,0
3520,4.641137662341134,0
3521,4.900736772797932,0
3522,6.856676292002026,0
3523,7.1044089405486295,0
3524,7.777830400044278,0
3525,9.097245284771539,0
3526,8.259719319179391,0
3527,8.198357480410458,0
3528,8.562209480512125,0
3529,7.083176999799191,0
3530,6.396996987487965,0
3531,5.966103478140094,0
3532,6.411875313917457,0
3533,6.339294861259858,0
3534,6.134444509765237,0
3535,6.532898249152402,0
3536,6.696071404280426,0
3537,6.432809916757965,0
3538,7.6136184416847765,0
3539,7.427580323328795,0
3540,6.347701666602987,0
3541,7.081739152190485,0
3542,6.957368086613791,0
3543,6.759513195961985,0
3544,7.2378530139497945,0
3545,7.073103093745772,0
3546,7.0074632670470995,0
3547,6.468610326419906,0
3548,7.862786302525356,0
3549,7.725132865347019,0
3550,6.320919975270189,0
3551,6.146899147303904,0
3552,7.379401660965396,0
3553,6.638929124382752,0
3554,6.424390305371833,0
3555,6.797886469852078,0
3556,6.383839695923814,0
3557,6.314918475117601,0
3558,6.40758422684327,0
3559,7.20700358129927,0
3560,6.27497552075906,0
3561,7.112222972373934,0
3562,7.159707598010962,0
3563,7.190013697393627,0
3564,6.59704183251895,0
3565,6.722282648749918,0
3566,6.693240420161386,0
3567,5.98224829186086,0
3568,6.8528858196446745,0
3569,6.658243050785792,0
3570,6.778801378634332,0
3571,6.620608743998324,0
3572,6.57939744248035,0
3573,7.702360241444817,0
3574,6.426875797495082,0
3575,6.467181543360188,0
3576,6.723487400967693,0
3577,7.680521582527683,0
3578,6.160342094908949,0
3579,6.888337417528239,0
3580,7.333900273408962,0
3581,6.950767936358807,0
3582,5.790572871914274,0
3583,6.079764688522724,0
3584,7.418276171855938,0
3585,7.299974980120594,0
3586,6.984274223929124,0
3587,5.859325251711091,0
3588,6.964590207544714,0
3589,6.530848451615576,0
3590,6.448250557859509,0
3591,6.5799849184280585,0
3592,7.223565710691615,0
3593,6.8871589201566366,0
3594,6.444255558063806,0
3595,6.155000452859816,0
3596,6.727075676922702,0
3597,6.958677345877365,0
3598,6.9740833015303245,0
3599,5.964316281651897,0
3600,6.904572993286037,0
3601,7.977553118258665,0
3602,6.326618363895984,0
3603,7.051958788332205,0
3604,8.073346073095733,0
3605,8.699871590190117,0
3606,10.941502357278575,0
3607,11.959286027571853,0
3608,13.456150807071964,0
3609,13.403593689737853,0
3610,13.586483256378102,0
3611,14.206143777641305,0
3612,13.358025612701248,0
3613,11.287865771906802,0
3614,10.4394425899861,0
3615,8.341616526106131,0
3616,6.680620661063744,0
3617,5.026143479524498,0
3618,3.335742198248073,0
3619,3.144043143190913,0
3620,4.407934024117234,0
3621,5.555035463999358,0
3622,6.613690791278925,0
3623,7.124354207671556,0
3624,8.102570633313714,0
3625,8.408642600414822,0
3626,7.792855580891058,0
3627,7.922958691221133,0
3628,7.6590118480587535,0
3629,7.162630190184102,0
3630,7.212204171667668,0
3631,6.478821142682332,0
3632,6.026449655726198,0
3633,6.01153126702642,0
3634,5.025236637903989,0
3635,6.741735145779833,0
3636,7.2409717451504925,0
3637,7.30761043642246,0
3638,7.748759871693796,0
3639,6.979642773911392,0
3640,6.353897140440887,0
3641,6.184290609365947,0
3642,6.6443669431666015,0
3643,7.535628474114759,0
3644,7.228331065470026,0
3645,7.370396986812943,0
3646,7.171232565921137,0
3647,6.345666571608635,0
3648,6.4016253920329085,0
3649,5.973994060003537,0
3650,7.36056387849288,0
3651,7.408660625157912,0
3652,6.517689552964684,0
3653,5.5660995942493185,0
3654,7.051616729950205,0
3655,6.128476156831696,0
3656,6.324275708776523,0
3657,6.275774207502899,0
3658,6.034992333498381,0
3659,6.343583453705353,0
3660,7.006388654971308,0
3661,7.395751304736737,0
3662,7.198823004603348,0
3663,6.253239659565886,0
3664,6.032209175496352,0
3665,7.2696671470836245,0
3666,6.574745653047508,0
3667,7.047143597008449,0
3668,6.180105166557218,0
3669,7.8717959204940655,0
3670,7.048986650595772,0
3671,6.945940038189743,0
3672,6.7566004174234005,0
3673,6.538717460965033,0
3674,6.960328442117276,0
3675,6.570885784486562,0
3676,7.0419632339003995,0
3677,7.050248084816627,0
3678,6.973412810512525,0
3679,6.9291215483889195,0
3680,7.013581878833988,0
3681,6.667659573075532,0
3682,6.482409507207994,0
3683,6.953896422279264,0
3684,6.670710112802574,0
3685,6.360035687140008,0
3686,7.226299100852032,0
3687,6.5722676881540405,0
3688,6.760897510284942,0
3689,7.170376549225521,0
3690,6.714338196590272,0
3691,7.147590841930991,0
3692,7.831397160241125,0
3693,6.58234439056594,0
3694,6.917822900249816,0
3695,7.466531512273575,0
3696,7.2001622690206135,0
3697,6.856928630954155,0
3698,7.07273878318342,0
3699,6.475895471842558,0
3700,5.800221846144156,0
3701,7.851098784516594,0
3702,7.788978213702644,0
3703,7.644222066510464,0
3704,9.310562090511858,0
3705,9.626884265015894,0
3706,10.83834742118456,0
3707,11.48673130954124,0
3708,12.074610595219678,0
3709,13.449467329230327,0
3710,13.872646559099202,0
3711,13.931246681788224,0
3712,12.35897416811828,0
3713,11.90978163616564,0
3714,11.051043684486046,0
3715,8.566848247831752,0
3716,5.890260194169359,0
3717,5.15963137379767,0
3718,3.6291823971181665,0
3719,3.064826750102925,0
3720,4.7821749249643855,0
3721,3.8598960701631517,0
3722,5.333615207977888,0
3723,7.218952264887239,0
3724,8.12396657990129,0
3725,9.205382969250143,0
3726,8.503049515500367,0
3727,7.616609474259532,0
3728,7.024991438888751,0
3729,6.792347151459202,0
3730,6.044370700906593,0
3731,6.129011170655989,0
3732,5.681709905655964,0
3733,6.405671947892918,0
3734,7.06044349777452,0
3735,6.678975928514471,0
3736,7.866869664689441,0
3737,6.655267751084328,0
3738,7.947395502359188,0
3739,6.767858561644882,0
3740,6.920304632365496,0
3741,8.038546348723283,0
3742,6.667641226216802,0
3743,7.16449967199857,0
3744,7.249905463103538,0
3745,6.3549956058836,0
3746,6.545773204997362,0
3747,6.129886551500917,0
3748,7.108184176063141,0
3749,7.203337117610578,0
3750,7.054342712605628,0
3751,7.228373500977806,0
3752,6.5888953728346245,0
3753,6.724934300895981,0
3754,6.367863625172484,0
3755,6.649570428888429,0
3756,6.316641938029782,0
3757,6.844261960697271,0
3758,6.058233315269179,0
3759,7.134092367590923,0
3760,6.127246101829369,0
3761,6.890012433987487,0
3762,6.848557504957846,0
3763,7.5413855049690675,0
3764,7.054813195801015,0
3765,6.93193571728818,0
3766,6.3232910915199545,0
3767,6.873967503223285,0
3768,6.453284616588639,0
3769,6.742273202511698,0
3770,6.509983548480764,0
3771,7.513278052693305,0
3772,6.72015984776008,0
3773,7.077698952420341,0
3774,6.746236842867696,0
3775,6.6404418748011995,0
3776,6.480089296764883,0
3777,7.0090582570795075,0
3778,7.301502139752921,0
3779,6.515722042808163,0
3780,6.837681880445382,0
3781,7.49563944338466,0
3782,7.384178178775058,0
3783,7.2790508799156735,0
3784,6.559226888444275,0
3785,6.986846715020815,0
3786,6.702956552415562,0
3787,7.272404966144372,0
3788,8.041499565997619,0
3789,7.169568372895307,0
3790,6.829327647957974,0
3791,6.7820463883765525,0
3792,6.629096208409466,0
3793,6.07077775892294,0
3794,6.768537528388959,0
3795,7.132131595062126,0
3796,7.004580135160058,0
3797,6.620921003597337,0
3798,7.331819619051237,0
3799,6.630877712008984,0
3800,7.6131984120772085,1
3801,6.578206760224157,1
3802,7.44985512324603,1
3803,6.165401290415396,1
3804,6.993366948179844,1
3805,7.097846406741066,1
3806,6.492096386233985,1
3807,7.261295245148476,1
3808,6.25273099142056,1
3809,7.351460299375491,1
3810,7.790169361967993,1
3811,6.7611803339388175,1
3812,5.9880410674822455,1
3813,6.5048213178711585,1
3814,6.749899168905126,1
3815,7.403049883348494,1
3816,7.175586827320266,1
3817,6.579038073692446,1
3818,6.9012815109011,1
3819,7.04435536012732,1
3820,6.850929624360684,1
3821,7.345325546677117,1
3822,6.931209516644759,1
3823,8.089783770390177,1
3824,7.252823895580058,1
3825,7.729211210629042,1
3826,7.178707597247167,1
3827,7.829731725277173,1
3828,7.824617201163543,1
3829,7.082455560286144,1
3830,7.316675991933406,1
3831,8.111730914918178,1
3832,7.02023472527953,1
3833,7.216592744105372,1
3834,6.911315136680593,1
3835,7.463592046774629,1
3836,7.135180182075686,1
3837,6.389967974798766,1
3838,6.800794483537023,1
3839,8.008850348930814,1
3840,6.348150023811251,1
3841,7.09718922690752,1
3842,7.694971818344141,1
3843,7.182585791334619,1
3844,7.449320481136117,1
3845,7.490873739256228,1
3846,7.527806470822259,1
3847,7.586696634458171,1
3848,7.7783852674147065,1
3849,6.781534765188558,1
3850,6.224825213414994,1
3851,6.496985250900553,1
3852,7.531406935041191,1
3853,7.641693268186712,1
3854,5.987829032307341,1
3855,7.633435814742296,1
3856,7.303256948012477,1
3857,6.346421065512198,1
3858,6.622300718502089,1
3859,7.483978814845328,1
3860,7.790703157282249,1
3861,7.577435783059766,1
3862,8.324430068590363,1
3863,7.363320984543392,1
3864,7.053305356054923,1
3865,6.040327868324406,1
3866,6.517127501056622,1
3867,5.967518322408775,1
3868,6.884990128005704,1
3869,6.528411287301679,1
3870,7.782923942013631,1
3871,8.051781222636688,1
3872,8.177564030831578,1
3873,8.73073241940757,1
3874,8.041944792610163,1
3875,8.626578695864241,1
3876,7.895066312023473,1
3877,6.297971850391214,1
3878,4.671155733015256,1
3879,4.000855800413996,1
3880,4.072654587735063,1
3881,3.3772305355186596,1
3882,5.056425149347959,1
3883,7.109558121618225,1
3884,9.317324336768731,1
3885,9.997483621319425,1
3886,11.798618705491872,1
3887,13.479529652205827,1
3888,13.99228663372067,1
3889,14.419595222925171,1
3890,13.862227955087995,1
3891,12.911982150924343,1
3892,12.049812790274462,1
3893,11.046925392762418,1
3894,8.81135975822058,1
3895,8.470202465386267,1
3896,8.167521158882874,1
3897,7.836926092221089,1
3898,7.829953861020749,1
3899,6.251345964835483,1
3900,6.850790931416542,0
3901,7.328027169139158,0
3902,7.785699466499771,0
3903,7.208689835043462,0
3904,8.608516256736024,0
3905,9.938747988035765,0
3906,10.9594033435287,0
3907,12.1091647653584,0
3908,12.968298522945743,0
3909,13.577040606324871,0
3910,14.29963412034654,0
3911,14.077996094426142,0
3912,12.995543584764615,0
3913,11.665394184604242,0
3914,11.014854121568774,0
3915,8.721677940114175,0
3916,6.654416055591135,0
3917,4.668072179410536,0
3918,4.753463356786863,0
3919,4.52436140773426,0
3920,4.616109668199231,0
3921,5.253237544456015,0
3922,6.047445092197536,0
3923,6.987262703927374,0
3924,8.747123544188847,0
3925,8.998858046619072,0
3926,8.12439896641903,0
3927,7.411581730899359,0
3928,7.230038661248246,0
3929,7.40921691728909,0
3930,7.779392265382364,0
3931,6.260407228499117,0
3932,5.735076399506365,0
3933,7.244806551575797,0
3934,7.026748787340236,0
3935,7.294203212729101,0
3936,7.2284500797961435,0
3937,7.290445707894977,0
3938,7.466390275352934,0
3939,7.8303941611053185,0
3940,8.000953599113146,0
3941,7.4021539326636105,0
3942,7.56360478660274,0
3943,7.001587059086265,0
3944,7.1135417615703584,0
3945,7.835406514499726,0
3946,7.622853056259505,0
3947,6.623254940199798,0
3948,7.357093391558691,0
3949,6.548267219517916,0
3950,6.705793127555332,0
3951,7.6230142686177595,0
3952,6.872102639290696,0
3953,7.12305631860355,0
3954,7.461994933162047,0
3955,6.253580983504402,0
3956,7.622941028090198,0
3957,6.915269430157935,0
3958,7.577502645592179,0
3959,7.198451860906074,0
3960,7.148325148809534,0
3961,7.619516886314872,0
3962,6.966262038540952,0
3963,7.337352819562324,0
3964,6.863658748798605,0
3965,7.66257480920492,0
3966,6.292999640691601,0
3967,6.813619603657928,0
3968,7.487175875793726,0
3969,6.780834602877074,0
3970,7.431464930080638,0
3971,7.255261681482883,0
3972,7.801310158663184,0
3973,7.08702370647355,0
3974,6.323786586231713,0
3975,6.739004136041834,0
3976,8.415436548124635,0
3977,6.968623655960824,0
3978,7.230370314066383,0
3979,7.624853031937038,0
3980,6.902975658738436,0
3981,7.70943589199384,0
3982,6.925886577238185,0
3983,7.003817908146114,0
3984,7.873687454576501,0
3985,6.901526577190776,0
3986,7.289257598090196,0
3987,7.154621617973883,0
3988,7.0983849272971105,0
3989,7.025241668826386,0
3990,7.58895291819127,0
3991,7.212419706624092,0
3992,6.820073831086657,0
3993,7.574256059218607,0
3994,7.16743457761576,0
3995,7.713792756562937,0
3996,6.751098065138087,0
3997,7.180076004968667,0
3998,7.368811469696186,0
3999,7.32460612732587,0
4000,7.766756735329892,0
4001,7.878772194053677,0
4002,8.29518384333457,0
4003,8.453381169602784,0
4004,8.767378069332405,0
4005,9.219384918008041,0
4006,10.811273810093512,0
4007,11.19347916967347,0
4008,13.386815537276114,0
4009,14.072971435545613,0
4010,14.166279322275116,0
4011,14.038615163883211,0
4012,13.197107922682022,0
4013,12.152912318906566,0
4014,11.315542901311588,0
4015,8.621451251914493,0
4016,6.1086882921167955,0
4017,5.472262932472268,0
4018,5.103671706957643,0
4019,3.7043877034104606,0
4020,4.260851860952854,0
4021,5.203462309116777,0
4022,6.2229210066481695,0
4023,7.477330460115233,0
4024,7.7619757775925216,0
4025,8.896669746689726,0
4026,8.762632877794356,0
4027,8.557746717479453,0
4028,7.810353131190479,0
4029,6.890590986306278,0
4030,6.715117294460973,0
4031,6.603909117006205,0
4032,6.486501228122617,0
4033,6.29910615771212,0
4034,7.1847202171030435,0
4035,6.36458476586445,0
4036,6.7472652344702855,0
4037,8.04395197863567,0
4038,8.24046083890587,0
4039,7.3513824635803395,0
4040,7.612128483255987,0
4041,7.3591603894185615,0
4042,6.487698460258017,0
4043,7.6714147432208675,0
4044,6.435642912401479,0
4045,7.373104080739068,0
4046,7.6354388334420085,0
4047,7.34376449176006,0
4048,7.476477320379285,0
4049,6.990888533745403,0
4050,6.846039284990384,0
4051,6.820449348751588,0
4052,7.041001294611106,0
4053,7.10748717539279,0
4054,7.457084422627209,0
4055,7.040382035760088,0
4056,6.432353790312117,0
4057,6.964790150012121,0
4058,6.933361620684862,0
4059,6.6251488126845,0
4060,6.614468869422128,0
4061,8.03621211689983,0
4062,7.373426093728537,0
4063,7.218161015168483,0
4064,7.850364292965522,0
4065,8.416998133962352,0
4066,7.958901501741971,0
4067,8.239495835264188,0
4068,6.674354472790192,0
4069,6.448639065476999,0
4070,6.079946720620867,0
4071,7.089385259202969,0
4072,8.073219846407724,0
4073,7.960762128962054,0
4074,7.675499188502149,0
4075,8.169684399184542,0
4076,6.793368937628444,0
4077,7.5706391793338765,0
4078,7.398357055702361,0
4079,7.575769129237449,0
4080,8.209921833694553,0
4081,7.898959633544881,0
4082,7.482440799668956,0
4083,7.204166184244858,0
4084,8.139473231187743,0
4085,6.913739857512805,0
4086,6.773820803625343,0
4087,6.896772232266187,0
4088,6.685831401750889,0
4089,7.605804209362671,0
4090,7.065657103774039,0
4091,7.6864459070511755,0
4092,6.765002226077849,0
4093,7.459033822866311,0
4094,7.675998204654242,0
4095,6.89085034247424,0
4096,7.240153154667417,0
4097,7.609410401026292,0
4098,7.727405841877801,0
4099,7.095955060843987,0
4100,6.5081575371224005,0
4101,6.892330379097434,0
4102,7.727488334985537,0
4103,8.975957878912345,0
4104,9.091289968642965,0
4105,9.896985237132139,0
4106,9.966982699465442,0
4107,11.444605994615273,0
4108,13.283587047199926,0
4109,14.292704726518394,0
4110,14.52995233442536,0
4111,12.801506066941906,0
4112,12.614501932568462,0
4113,12.399774474272224,0
4114,10.81629248163934,0
4115,8.961278526111537,0
4116,6.473433564723555,0
4117,4.971395198810846,0
4118,4.291617229055402,0
4119,3.977871699775874,0
4120,4.878252517060131,0
4121,4.675148403254815,0
4122,5.731814341411807,0
4123,7.137277182261826,0
4124,8.076174976769694,0
4125,9.681480018708786,0
4126,8.907748720730272,0
4127,8.26533922925078,0
4128,8.502645506465623,0
4129,7.613994224553492,0
4130,7.394382536777249,0
4131,6.9492664189516455,0
4132,7.263836676251941,0
4133,6.570772308016345,0
4134,7.173387300290291,0
4135,7.283851567793654,0
4136,7.542698303054755,0
4137,7.6408326189135805,0
4138,7.201848646308146,0
4139,8.163059298959622,0
4140,8.227301423297325,0
4141,7.548298109259659,0
4142,7.4982763733130415,0
4143,7.346186995301506,0
4144,7.122869759174281,0
4145,7.143137127500093,0
4146,8.229457826635905,0
4147,6.988512160019739,0
4148,7.1963395203634954,0
4149,7.70505850468101,0
4150,6.646505208005906,0
4151,7.362561121702883,0
4152,8.120867299763264,0
4153,7.633908087959959,0
4154,6.330853818703122,0
4155,7.187843120195321,0
4156,7.246153760760038,0
4157,7.04922058161284,0
4158,6.70976132962424,0
4159,7.125966649654875,0
4160,8.003395876810417,0
4161,6.7634448193001955,0
4162,7.502193963816835,0
4163,7.066953940163664,0
4164,7.387643305934212,0
4165,7.576159265693069,0
4166,6.819944281236551,0
4167,8.719963092502311,0
4168,6.747622368121748,0
4169,7.359235395992874,0
4170,7.135841319577176,0
4171,6.845380952924473,0
4172,7.2784897582497985,0
4173,7.867081848148853,0
4174,7.076411410568861,0
4175,8.151414938616355,0
4176,7.308900272862332,0
4177,7.007748225395065,0
4178,7.446978807206236,0
4179,8.238574046544178,0
4180,7.420643633415973,0
4181,7.814567358202478,0
4182,8.44098203158708,0
4183,7.3527860462699,0
4184,7.983367220464145,0
4185,6.74247808832371,0
4186,7.279441818932504,0
4187,6.726867694417883,0
4188,7.729278185313853,0
4189,7.160652457664323,0
4190,6.953176445955829,0
4191,6.725651296469514,0
4192,7.600798178645661,0
4193,7.798285535010422,0
4194,7.854317021276068,0
4195,7.083747345337556,0
4196,6.8416731889721465,0
4197,7.694133637475679,0
4198,7.908149929515319,0
4199,7.213514391168803,0
4200,6.987279634173294,0
4201,7.865772177863481,0
4202,7.9882343197753505,0
4203,7.785558288521427,0
4204,8.539377443569235,0
4205,9.949653202050403,0
4206,11.520143641975546,0
4207,11.196274090948116,0
4208,13.136146931271414,0
4209,13.442416560126045,0
4210,14.302710684496612,0
4211,14.796854346746613,0
4212,13.552687642689383,0
4213,12.485519880819794,0
4214,11.47073175804454,0
4215,9.722438715514405,0
4216,6.45332581960032,0
4217,5.500727392119365,0
4218,6.252708047661041,0
4219,3.532888412218316,0
4220,4.837636513603169,0
4221,5.237732344634045,0
4222,6.051960679692106,0
4223,8.045608890417753,0
4224,10.046730014731354,0
4225,9.334187952351257,0
4226,8.553990101721604,0
4227,8.794098896331858,0
4228,7.672855388170987,0
4229,8.694008198586568,0
4230,8.01673120014554,0
4231,7.57957598414133,0
4232,6.8527280618529725,0
4233,6.67376000518212,0
4234,6.897573451980764,0
4235,7.43557985725436,0
4236,7.585107918421436,0
4237,7.257296851517248,0
4238,7.826223831829902,0
4239,7.113516197430214,0
4240,7.798728639406882,0
4241,6.700058018369073,0
4242,7.062419895027945,0
4243,7.12630354438388,0
4244,6.809212222952701,0
4245,7.338223495113196,0
4246,7.175559436662748,0
4247,6.976334990460214,0
4248,7.121040562356566,0
4249,8.104004097328058,0
4250,7.7412745122947895,0
4251,7.004886727477757,0
4252,7.214380909205625,0
4253,8.314060759163333,0
4254,7.493000484595114,0
4255,7.583321859050455,0
4256,7.114238615587824,0
4257,7.705721004759382,0
4258,7.495821686875114,0
4259,6.953513484539599,0
4260,6.7766517844412855,0
4261,7.586497813140982,0
4262,7.558713107334667,0
4263,7.414988004148671,0
4264,7.19305078290027,0
4265,6.697359176764588,0
4266,7.229372014366925,0
4267,7.726188307527029,0
4268,7.4599869299068144,0
4269,6.0721580293040445,0
4270,7.610896779280014,0
4271,7.52916868590554,0
4272,7.406448174060637,0
4273,8.227871963897417,0
4274,7.577740307230883,0
4275,7.273141728412886,0
4276,8.0040670041378,0
4277,7.554943758267002,0
4278,6.578834135342292,0
4279,7.298052187511947,0
4280,6.278815033958832,0
4281,7.212095364012666,0
4282,7.708142530050507,0
4283,7.278083847114537,0
4284,7.519584487260536,0
4285,7.539412463499452,0
4286,7.837113855491006,0
4287,6.6865284147873085,0
4288,6.910724094134505,0
4289,8.105404700562927,0
4290,7.933181360581585,0
4291,6.778627820056344,0
4292,7.746189531353545,0
4293,6.622744566552095,0
4294,7.525959468255501,0
4295,7.2985094959237715,0
4296,7.309070673710071,0
4297,7.176629681531128,0
4298,7.6858610651999015,0
4299,8.206689532359857,0
4300,7.6390603694057395,0
4301,7.471582763181728,0
4302,7.913193727965064,0
4303,7.750586702865759,0
4304,10.118828995793727,0
4305,10.560099140533634,0
4306,11.118740088554194,0
4307,11.545219183757753,0
4308,13.782369866752347,0
4309,13.392501334010948,0
4310,14.036201331555533,0
4311,15.432219462122028,0
4312,13.40762844106244,0
4313,12.772104748795307,0
4314,10.807300800837687,0
4315,9.409596882797349,0
4316,7.591267110057632,0
4317,5.965691076883127,0
4318,5.137117659422966,0
4319,4.718311787341886,0
4320,4.951155595308183,0
4321,5.828081918162687,0
4322,7.028341884787015,0
4323,7.468787241869839,0
4324,8.73422639643093,0
4325,9.980548994709,0
4326,8.383136074718266,0
4327,8.820901770212583,0
4328,8.684831769161834,0
4329,7.559035966319169,0
4330,7.629151730858862,0
4331,7.2430804634360895,0
4332,6.2778850873836545,0
4333,5.945601936274565,0
4334,7.369852134050191,0
4335,8.235951144167014,0
4336,7.2232657749996285,0
4337,7.488363831513559,0
4338,8.322997676533403,0
4339,7.641940295626115,0
4340,7.835686705314333,0
4341,8.204277091813669,0
4342,8.576576216110738,0
4343,7.3296957785969274,0
4344,6.6644785250569605,0
4345,7.610042890885258,0
4346,7.166329103094748,0
4347,8.180027788388443,0
4348,6.858685390101596,0
4349,8.007328389803947,0
4350,8.384789503905958,0
4351,6.843264253952765,0
4352,7.13136859068324,0
4353,7.23455848507674,0
4354,7.451119614260538,0
4355,6.87996279656293,0
4356,7.932546671649119,0
4357,7.779489708828582,0
4358,7.197484572913816,0
4359,7.255766492333445,0
4360,7.454183132906182,0
4361,7.636888879292987,0
4362,7.386432773843908,0
4363,7.350407182598918,0
4364,7.372718988207109,0
4365,7.40262746117459,0
4366,8.026578910348864,0
4367,8.799928441035386,0
4368,8.048307776740486,0
4369,6.453192800692037,0
4370,7.342806172640797,0
4371,7.23626545260606,0
4372,8.063609937181946,0
4373,7.272514811538449,0
4374,7.640057149939379,0
4375,6.155999205199986,0
4376,8.468540020859145,0
4377,8.025581134709094,0
4378,6.8147138247649846,0
4379,7.583678279970933,0
4380,7.828420816291379,0
4381,7.836641715205547,0
4382,7.114170659785193,0
4383,7.2574187724879735,0
4384,8.100303228687327,0
4385,7.056843361670458,0
4386,7.484088925503856,0
4387,7.4051915427525605,0
4388,7.319924097545791,0
4389,7.12484728848492,0
4390,7.770132559565816,0
4391,7.043797879513568,0
4392,6.817964514918719,0
4393,6.792169878277541,0
4394,8.460894297473072,0
4395,7.417045822528425,0
4396,7.776024289767954,0
4397,8.39778202104148,0
4398,7.514536235066527,0
4399,7.0853578747142425,0
4400,7.89807300065369,0
4401,7.988791764441265,0
4402,8.637034328746473,0
4403,8.04640175760991,0
4404,8.714322017297993,0
4405,10.7156423983375,0
4406,10.381579718132087,0
4407,12.273217631324584,0
4408,13.433935854796458,0
4409,13.31814597037652,0
4410,14.224544925793271,0
4411,14.316168239385888,0
4412,14.334752621820007,0
4413,11.967868740229626,0
4414,10.590029727852214,0
4415,10.106102047653412,0
4416,7.853155501446376,0
4417,6.422855178996656,0
4418,4.801526994292898,0
4419,4.399196534094967,0
4420,4.71608866839195,0
4421,5.680383874916474,0
4422,7.045775701343524,0
4423,7.7818742303446315,0
4424,9.322046684832511,0
4425,9.443742954575468,0
4426,7.814446173485859,0
4427,8.068789244117466,0
4428,8.573446230034888,0
4429,8.190413546105244,0
4430,7.9174652753754025,0
4431,7.219219580950128,0
4432,5.776532163603786,0
4433,6.579868781603307,0
4434,5.947381649609008,0
4435,7.323082262594618,0
4436,7.7601433256589445,0
4437,8.210130050849699,0
4438,7.846445737462558,0
4439,7.904438507666422,0
4440,7.903030393212042,0
4441,7.942841996975329,0
4442,7.48658793539864,0
4443,7.681675851778426,0
4444,7.9730478788424035,0
4445,7.560497808954646,0
4446,7.66123735326143,0
4447,7.61807727143867,0
4448,7.19842100507067,0
4449,7.932111432444815,0
4450,7.633267984029034,0
4451,6.347615220692268,0
4452,8.367754641625375,0
4453,7.527419604174026,0
4454,7.690874596198295,0
4455,7.654109981034771,0
4456,7.615321248490983,0
4457,7.670349862991834,0
4458,7.096730853359141,0
4459,6.822579860129478,0
4460,7.023219399999497,0
4461,6.883348367110164,0
4462,7.478411664001973,0
4463,7.859853620601468,0
4464,6.795931969255723,0
4465,7.557733186076211,0
4466,7.285518635625566,0
4467,8.692766405603104,0
4468,6.330037954481502,0
4469,7.936226097382848,0
4470,7.837253000207636,0
4471,7.614977913477531,0
4472,6.620451080329847,0
4473,6.707377148948177,0
4474,6.980886846114288,0
4475,7.004502539855601,0
4476,7.071863666220021,0
4477,8.009023669409828,0
4478,8.375155195883373,0
4479,8.513484725906403,0
4480,8.179844657927532,0
4481,7.986104043766979,0
4482,7.499444418046963,0
4483,7.391478041341193,0
4484,8.144462425853584,0
4485,7.565657857495839,0
4486,7.0349646840584645,0
4487,7.053762299787917,0
4488,7.1119461160470205,0
4489,6.646429723621832,0
4490,7.892517573984205,0
4491,7.8831680722582895,0
4492,7.1314577679304705,0
4493,7.2943443993183354,0
4494,7.750875107227037,0
4495,7.08392053777508,0
4496,8.622606553408925,0
4497,8.163046139292009,0
4498,7.96142445543447,0
4499,8.326161240577761,0
4500,7.9702769002097575,0
4501,6.765599506195348,0
4502,8.032877933665054,0
4503,8.861352117565382,0
4504,9.282759619883212,0
4505,9.272821518867605,0
4506,10.791552397551344,0
4507,11.863779204643574,0
4508,12.893632078951821,0
4509,14.2770026655758,0
4510,14.137112546234203,0
4511,14.041580378095919,0
4512,13.595315513277306,0
4513,12.69165789736427,0
4514,10.97454339325371,0
4515,9.771822740771496,0
4516,7.305484233724676,0
4517,5.14470856235064,0
4518,4.8961693523027385,0
4519,4.966112661334642,0
4520,4.903844393821203,0
4521,6.479319248154624,0
4522,7.077056110690773,0
4523,8.177931086162218,0
4524,9.311958891258879,0
4525,9.380421429208166,0
4526,8.678516392697134,0
4527,8.372802724268757,0
4528,8.974670396001668,0
4529,8.22036487573718,0
4530,6.955365865091144,0
4531,6.948106171980836,0
4532,7.267348508229856,0
4533,7.683447251038981,0
4534,7.733426520295685,0
4535,7.476940327211271,0
4536,7.528552375545244,0
4537,7.228003939280415,0
4538,8.731032365556045,0
4539,7.263318163207045,0
4540,7.23753667462225,0
4541,7.820005937015017,0
4542,7.917060557623345,0
4543,6.7191621970032305,0
4544,8.613570703276192,0
4545,8.64345166430372,0
4546,8.149613638624386,0
4547,7.610210453284983,0
4548,8.461440923232063,0
4549,8.873326937052095,0
4550,7.803181512389515,0
4551,7.672074922357156,0
4552,8.501207303395722,0
4553,7.8462431428765935,0
4554,7.58436647359927,0
4555,7.020369967807926,0
4556,8.126564845598912,0
4557,7.646538684801589,0
4558,8.738594236103859,0
4559,7.189926175628838,0
4560,7.375446182422587,0
4561,7.83179093201055,0
4562,7.572256439010528,0
4563,7.774024903106788,0
4564,7.5727104018501485,0
4565,7.626773322036504,0
4566,7.686665526239232,0
4567,8.34904231677018,0
4568,7.888444863360019,0
4569,7.8013044503783044,0
4570,8.517319991469863,0
4571,7.605869781196166,0
4572,7.61970293434843,0
4573,7.3121488170090245,0
4574,7.806148919088643,0
4575,7.21572824866116,0
4576,7.624156653999945,0
4577,7.6939995289822,0
4578,7.407121706049681,0
4579,8.540035111238073,0
4580,7.529286923011232,0
4581,7.599528226800459,0
4582,7.410578852183057,0
4583,7.66717039875175,0
4584,7.451134086794982,0
4585,7.418930986741777,0
4586,7.8775372629041565,0
4587,7.649636472493266,0
4588,8.36227428250288,0
4589,8.074220339983015,0
4590,8.01768989990367,0
4591,7.746314941532811,0
4592,6.949082205845565,0
4593,7.261702625121867,0
4594,8.252671203237346,0
4595,7.928008084326808,0
4596,7.714100093269414,0
4597,7.845908662208783,0
4598,8.04151420041707,0
4599,7.724578071205496,0
4600,7.84403821315508,0
4601,7.887606738628883,0
4602,8.226068585361926,0
4603,8.272230038376527,0
4604,10.7028421119051,0
4605,9.38421192452935,0
4606,10.669276193773069,0
4607,12.323316451498314,0
4608,14.058745996995196,0
4609,14.532057114262905,0
4610,13.87622866269683,0
4611,15.40092599113887,0
4612,13.972756227656387,0
4613,13.312545001811554,0
4614,12.087504508339283,0
4615,9.404298908266846,0
4616,7.565550859855625,0
4617,5.653718787511489,0
4618,4.330135210096165,0
4619,4.524979933155041,0
4620,6.026461347134242,0
4621,5.107278600741488,0
4622,6.918936036542933,0
4623,8.012293307945978,0
4624,9.39159239342729,0
4625,9.15234531860527,0
4626,8.99716897623827,0
4627,8.022285973519399,0
4628,8.807324009849268,0
4629,8.75108611275564,0
4630,7.473971459732001,0
4631,7.218399351159606,0
4632,7.354745875148039,0
4633,7.280648348538099,0
4634,6.819357397888331,0
4635,8.105663113063121,0
4636,7.698724915994324,0
4637,7.753487325972431,0
4638,7.9165161450934916,0
4639,7.900846188856815,0
4640,7.629609542882785,0
4641,8.214186031519672,0
4642,7.472626236911253,0
4643,8.58296825122416,0
4644,7.480615005080456,0
4645,8.64347823545432,0
4646,8.114746626495222,0
4647,8.127151491849892,0
4648,7.662157289752917,0
4649,7.099239243569212,0
4650,6.286040189434624,0
4651,7.606726404349651,0
4652,8.293451100820679,0
4653,7.049547015005283,0
4654,7.818033861961521,0
4655,7.117262825437108,0
4656,7.694380210885212,0
4657,7.290538240979391,0
4658,7.540513196703183,0
4659,6.858743013555012,0
4660,6.963289978343065,0
4661,7.876591534150855,0
4662,8.103011881910184,0
4663,8.1274083019845,0
4664,7.9158455565459205,0
4665,8.114986833556038,0
4666,8.120056532934493,0
4667,7.132659434249301,0
4668,7.327898486830922,0
4669,7.6693232759478365,0
4670,8.055614901937801,0
4671,7.268748644882365,0
4672,7.8597987005128305,0
4673,8.075344703082928,0
4674,7.94981443858284,0
4675,7.460860237077098,0
4676,7.288085040562627,0
4677,8.072722238669261,0
4678,8.432095321779723,0
4679,8.154945253315212,0
4680,7.386366120243937,0
4681,7.008646256125574,0
4682,7.2793297147918015,0
4683,7.268140621410012,0
4684,7.504252428053361,0
4685,7.550079019809821,0
4686,8.392650300795326,0
4687,7.467004703087414,0
4688,8.60028185124763,0
4689,7.768311989259148,0
4690,8.864316544529085,0
4691,7.50690148396737,0
4692,7.834930339813232,0
4693,7.904825244346809,0
4694,7.622337001393796,0
4695,8.133308354148392,0
4696,8.2801400591373,0
4697,7.6781192770928675,0
4698,7.890428204378123,0
4699,7.496180481376396,0
4700,8.558426886157719,0
4701,7.573536896972806,0
4702,8.19324167839162,0
4703,8.962056582096707,0
4704,8.960400516276316,0
4705,10.24966831810791,0
4706,11.649899036049792,0
4707,12.33177388888997,0
4708,13.364231772555357,0
4709,13.625588977487142,0
4710,14.385876430349551,0
4711,14.15886339329436,0
4712,14.435479875842711,0
4713,13.394062915267865,0
4714,10.907286455362211,0
4715,9.64155976444676,0
4716,7.816290282486097,0
4717,5.794519026343321,0
4718,5.83186176462666,0
4719,4.649735964031139,0
4720,5.4587047358414775,0
4721,6.293754298505828,0
4722,6.898358132066383,0
4723,7.792649364646705,0
4724,9.131154118681026,0
4725,10.237024963879236,0
4726,8.276410882054773,0
4727,8.895365329177622,0
4728,8.785552808016444,0
4729,7.59128385765135,0
4730,8.364369851246703,0
4731,6.668881145836893,0
4732,6.0719732946530085,0
4733,7.057772023485972,0
4734,7.530229632917626,0
4735,7.036127023700115,0
4736,7.889070913654053,0
4737,7.55952025954224,0
4738,8.344114016389705,0
4739,7.602241450926718,0
4740,7.790522230824568,0
4741,7.942291041672199,0
4742,8.06429087582441,0
4743,7.03550452885269,0
4744,7.8284878078234135,0
4745,8.020906163067469,0
4746,7.4726510204538235,0
4747,7.422501122005474,0
4748,7.331757962787656,0
4749,8.142030215643896,0
4750,7.483608846975976,0
4751,7.698618981009406,0
4752,7.450635117259159,0
4753,8.517734861347943,0
4754,7.438096797104167,0
4755,7.56385088884294,0
4756,7.272081926987635,0
4757,7.479128394955978,0
4758,8.224700668868875,0
4759,7.217063700710209,0
4760,7.875530130688079,0
4761,7.866402654896429,0
4762,7.985276809159475,0
4763,7.9182890188835096,0
4764,7.776806491467988,0
4765,7.015410239749634,0
4766,7.782255956040804,0
4767,6.793246982363598,0
4768,8.499457844499354,0
4769,8.643613190857039,0
