timestamp,value-0,is_anomaly
0,-2.3969466541265234,0.0
1,-0.42155608850454196,0.0
2,-1.7552722726765069,0.0
3,0.05214651586951624,0.0
4,0.7320587327983408,0.0
5,1.6829337100133854,0.0
6,2.7195809110953575,0.0
7,3.711597317750456,0.0
8,4.763884320845596,0.0
9,4.4709384120051014,0.0
10,5.731224446151174,0.0
11,4.378559940787648,0.0
12,2.5333106403318957,0.0
13,0.8776391728176924,0.0
14,-0.678436066287555,0.0
15,-2.3226831290751617,0.0
16,-3.573775806095693,0.0
17,-4.794351392651256,0.0
18,-5.013722270710778,0.0
19,-5.098665631405408,0.0
20,-4.239345720887237,0.0
21,-2.7085390889344394,0.0
22,-2.1327032712063456,0.0
23,-0.9198794396379819,0.0
24,0.2576115157194907,0.0
25,-0.17635332933552705,0.0
26,-1.0630305400420725,0.0
27,-1.5628375377570896,0.0
28,-1.3533722968604593,0.0
29,-1.8730356615148138,0.0
30,-2.683271349035226,0.0
31,-2.991849352325829,0.0
32,-2.2743538181021967,0.0
33,-2.604575924836432,0.0
34,-1.6949667693901815,0.0
35,-2.00082298160865,0.0
36,-1.6846488655948613,0.0
37,-1.0075974861479997,0.0
38,-2.0274187446790854,0.0
39,-1.9429664977704673,0.0
40,-2.063222112647316,0.0
41,-2.0529722417784964,0.0
42,-2.0492987590410854,0.0
43,-1.7895690899582446,0.0
44,-1.117025833382916,0.0
45,-1.2688560178377701,0.0
46,-1.7829071343706857,0.0
47,-1.7562133950319998,0.0
48,-1.1292354350315632,0.0
49,-1.2738163028525933,0.0
50,-1.9936349298916773,0.0
51,-1.3767922848533454,0.0
52,-1.476925297442251,0.0
53,-1.6995957859011872,0.0
54,-2.0223981824834576,0.0
55,-2.0526519337969327,0.0
56,-2.7266336976188206,0.0
57,-1.6437823653063863,0.0
58,-2.615455164953724,0.0
59,-1.216578524112737,0.0
60,-2.3794216081480304,0.0
61,-0.39162441363091094,0.0
62,-1.850558346346031,0.0
63,-2.6614334587535216,0.0
64,-0.760409641695382,0.0
65,-1.5765019351598093,0.0
66,-1.5369521535236745,0.0
67,-2.3455793236624802,0.0
68,-1.741212490564475,0.0
69,-2.3543650824551943,0.0
70,-2.4274358578675472,0.0
71,-1.1326703879589706,0.0
72,-1.5822130008875719,0.0
73,-1.82473795815179,0.0
74,-2.3200790705750554,0.0
75,-0.7899164614089378,0.0
76,-1.2732516328068604,0.0
77,-1.1777943519938547,0.0
78,-1.3097181072208117,0.0
79,-2.5653724135571325,0.0
80,-0.9734187000966058,0.0
81,-2.5930651247162535,0.0
82,-1.5463949602782472,0.0
83,-1.8415210553504626,0.0
84,-1.8009429728999986,0.0
85,-1.377216989040213,0.0
86,-1.9597309173334732,0.0
87,-1.6118861748431785,0.0
88,-0.5195029013592993,0.0
89,-2.1022882719688827,0.0
90,-2.003527794422567,0.0
91,-1.5141275236023704,0.0
92,-1.3715787874170544,0.0
93,-2.414117079103288,0.0
94,-1.0847941107736552,0.0
95,-1.820208851850997,0.0
96,-1.275977196029925,0.0
97,-1.6890179891887627,0.0
98,-0.5839154670553037,0.0
99,-1.0333284030319414,0.0
100,-0.5219442872896768,0.0
101,-0.8710233582613409,0.0
102,-1.2343617908192952,0.0
103,0.10709615079479962,0.0
104,0.4776717833719679,0.0
105,1.6240662142647013,0.0
106,3.0196229881145373,0.0
107,4.654080847709512,0.0
108,4.8627066329134365,0.0
109,5.2101934608485285,0.0
110,5.370604552412166,0.0
111,4.369455813182073,0.0
112,3.2927780368204465,0.0
113,1.0594428147518373,0.0
114,0.5077427121547942,0.0
115,-1.9456295561061845,0.0
116,-3.120686801881545,0.0
117,-5.003555399525134,0.0
118,-4.07399111500648,0.0
119,-3.9737633738309195,0.0
120,-2.6305539318773845,0.0
121,-1.647332173717698,0.0
122,-1.328314506960686,0.0
123,0.25047462705476664,0.0
124,-0.09291085327889448,0.0
125,0.7055159243165764,0.0
126,0.7139704963337393,0.0
127,0.39455711776290636,0.0
128,-1.7741895384265691,0.0
129,-1.432228559342316,0.0
130,-2.516494332142953,0.0
131,-3.0826780013014607,0.0
132,-1.9395322375366308,0.0
133,-1.6360025034018248,0.0
134,-1.3009598295207239,0.0
135,-0.8285821509777093,0.0
136,-0.8963504676934996,0.0
137,-1.0700177560206765,0.0
138,-0.8293204022061536,0.0
139,-2.0329350048631314,0.0
140,-0.8758037467871728,0.0
141,-0.841614700542616,0.0
142,-1.6184073411196787,0.0
143,-1.8565507404982222,0.0
144,-1.2807767976174709,0.0
145,-1.7913202375064123,0.0
146,-1.0949272054200465,0.0
147,-1.4122746748417518,0.0
148,-2.4724314934114817,0.0
149,-1.1166817248816698,0.0
150,-1.967128171425194,0.0
151,-1.2810029335613893,0.0
152,-1.8134691418057063,0.0
153,-0.9686005114187651,0.0
154,-1.3983392784215751,0.0
155,-1.4917006599073694,0.0
156,0.12848058007076515,0.0
157,-2.1992726841105568,0.0
158,-0.7768209969099084,0.0
159,-1.6522940319920634,0.0
160,-1.0796403816469868,0.0
161,-0.9525863637626044,0.0
162,-2.53388358854017,0.0
163,-1.2528151107584002,0.0
164,-1.0176313067029352,0.0
165,-0.6706341669597073,0.0
166,-0.7289784851684551,0.0
167,-1.1581981727999953,0.0
168,-0.6569812951734522,0.0
169,-0.7119020167930573,0.0
170,-0.26541249906736275,0.0
171,-1.2881135675710877,0.0
172,-1.7015455151103676,0.0
173,-1.9054160527875128,0.0
174,-1.0650518654875538,0.0
175,-1.4831927093675583,0.0
176,-0.4692955656426647,0.0
177,-0.9722409499375091,0.0
178,-1.3304162307471408,0.0
179,-1.2534297596808035,0.0
180,-1.2625940679875367,0.0
181,-1.4486212072782017,0.0
182,-0.38135554539358973,0.0
183,-1.411033464806993,0.0
184,-1.8640145330865132,0.0
185,-1.9776144762374075,0.0
186,-2.197605962336465,0.0
187,-0.6292649787768853,0.0
188,-1.3150633763881547,0.0
189,-1.6486009176351466,0.0
190,-1.7088093326242602,0.0
191,-0.5979972008629599,0.0
192,-1.2316116497282574,0.0
193,-1.1205626670346975,0.0
194,-0.8423444261583747,0.0
195,-0.8065943832000319,0.0
196,-1.524047602328059,0.0
197,-1.2626823538177008,0.0
198,-1.4403925592973357,0.0
199,-1.1965420356769274,0.0
200,-1.9132503649034276,0.0
201,-0.26407285669415304,0.0
202,-0.15588700959259394,0.0
203,0.5547165146204666,0.0
204,1.6325768911160254,0.0
205,1.8937285348146284,0.0
206,3.9182354871254255,0.0
207,4.060322290178695,0.0
208,5.326617038026667,0.0
209,5.925373969662173,0.0
210,6.139326577408787,0.0
211,5.66863164978804,0.0
212,4.405270743455125,0.0
213,2.1872392551692137,0.0
214,1.29545252912476,0.0
215,-1.2719273617401246,0.0
216,-2.480122126679589,0.0
217,-3.4929524632989493,0.0
218,-3.294956229345403,0.0
219,-4.028327709414209,0.0
220,-3.946908403141068,0.0
221,-1.616300970190146,0.0
222,-1.211038087043838,0.0
223,-0.5125068728521697,0.0
224,0.04317969155369994,0.0
225,1.1075722635014764,0.0
226,-0.0818996436252577,0.0
227,0.13237772069160458,0.0
228,0.04958497330879941,0.0
229,-0.5432749448184705,0.0
230,-1.706591716126589,0.0
231,-1.7526471673424795,0.0
232,-1.1389814032542027,0.0
233,-1.7950068530176524,0.0
234,-1.0823194985539677,0.0
235,0.6021545864908169,0.0
236,0.4191028968689402,0.0
237,-0.785610543846922,0.0
238,-0.8634719474515714,0.0
239,-1.5539049698283776,0.0
240,-0.8121459313376782,0.0
241,-1.5281729995340754,0.0
242,-0.6448589095044361,0.0
243,-0.5195534092141917,0.0
244,0.3450210216908979,0.0
245,-0.7741268941170233,0.0
246,-0.5392273796353904,0.0
247,-0.4956344835082417,0.0
248,-0.9636259299124484,0.0
249,-1.4377499050951668,0.0
250,-0.6222043897736024,0.0
251,-1.5447816035569977,0.0
252,-1.2811810001305877,0.0
253,-0.636901395105314,0.0
254,-1.0390031650700526,0.0
255,-1.1685052848785151,0.0
256,-0.645232272154642,0.0
257,-1.3116886415899707,0.0
258,-0.4335903316168368,0.0
259,-0.11557982574377407,0.0
260,-0.7651781149685155,0.0
261,-0.6824400414820238,0.0
262,-0.0677025496250433,0.0
263,-0.9427509511258895,0.0
264,-0.8232989268230971,0.0
265,-0.600755202717067,0.0
266,-0.6919220969473909,0.0
267,-0.9013050976684721,0.0
268,-1.387599654437025,0.0
269,-0.547740698163485,0.0
270,-0.16421999293702128,0.0
271,0.09834427589487518,0.0
272,-0.8683306414481557,0.0
273,-0.36553487244372246,0.0
274,-0.5230760343378913,0.0
275,-0.7572991867590929,0.0
276,-0.9510108664038405,0.0
277,-1.5658316520056696,0.0
278,-0.3006918536030914,0.0
279,-0.7414134033206216,0.0
280,-0.7076094895887877,0.0
281,-0.29007311731640584,0.0
282,-1.3710764042863568,0.0
283,-0.5809437496284526,0.0
284,-1.1580694552579482,0.0
285,0.006701370352381164,0.0
286,-0.6553195763525271,0.0
287,-1.1515449191861105,0.0
288,-0.6051817870686599,0.0
289,-1.263655457728967,0.0
290,-0.4371257262522814,0.0
291,-0.5917691281573334,0.0
292,-1.4661082674215145,0.0
293,-0.6427263907939058,0.0
294,-0.45983735997472697,0.0
295,-0.7408264975519715,0.0
296,-1.1919202597045193,0.0
297,-0.6448282015216841,0.0
298,-0.563324447668627,0.0
299,-0.20530461729862037,0.0
300,-0.5594244859089308,0.0
301,-0.34477066846219195,0.0
302,1.1478111332888798,0.0
303,0.29650452964733387,0.0
304,2.5569798980794625,0.0
305,2.094979979674023,0.0
306,3.7090642387276738,0.0
307,4.087803789355329,0.0
308,5.47702173588906,0.0
309,5.746939911426776,0.0
310,5.428566848998701,0.0
311,5.932384966000214,0.0
312,5.2060683068689535,0.0
313,2.261812153053677,0.0
314,1.2687189993950305,0.0
315,-1.3057742146293192,0.0
316,-1.8916857341017908,0.0
317,-3.2519795589486495,0.0
318,-3.880132558162246,0.0
319,-3.532953716802536,0.0
320,-2.287073587033364,0.0
321,-1.2080934267646086,0.0
322,-0.5989764642942893,0.0
323,-0.16006088175674904,0.0
324,1.2555716719816796,0.0
325,0.7585440995512555,0.0
326,1.1971461232649503,0.0
327,0.23644253064088172,0.0
328,0.4939411087748222,0.0
329,-0.41707247623629107,0.0
330,-0.9183276691619279,0.0
331,-1.228583493248049,0.0
332,-1.0851994739368367,0.0
333,0.3898438755265123,0.0
334,-0.9488119553062905,0.0
335,-1.1379423743735386,0.0
336,0.8213457334779541,0.0
337,-0.027159455709997227,0.0
338,-0.12931168115374764,0.0
339,-0.6106986280211758,0.0
340,0.002074203285932684,0.0
341,-0.7548066857405402,0.0
342,-0.31777739638552244,0.0
343,-1.1997678327009562,0.0
344,0.15388620537334458,0.0
345,-0.15174912153530296,0.0
346,-1.202563561765992,0.0
347,-0.6591273852950018,0.0
348,-0.10787943398253932,0.0
349,-0.052973987757100334,0.0
350,-0.1466033709897011,0.0
351,0.5782616796556025,0.0
352,-0.4455817100399816,0.0
353,-0.48161039654005156,0.0
354,-0.662865648095879,0.0
355,-0.9375380402991952,0.0
356,-0.8206362407992259,0.0
357,-0.4935005479837092,0.0
358,0.4017911383159925,0.0
359,-0.7182992464299051,0.0
360,0.11940712681726562,0.0
361,-0.9787335840149838,0.0
362,-0.2939533220670993,0.0
363,-0.8210919200875046,0.0
364,-0.555285249261668,0.0
365,-0.6139334462052228,0.0
366,0.13201977461755013,0.0
367,-0.5757741012138278,0.0
368,0.037463720368101854,0.0
369,-0.5090464430393975,0.0
370,0.24380398155702854,0.0
371,-0.330384421680344,0.0
372,-0.7026843161061264,0.0
373,-0.44186953652188576,0.0
374,0.3320723849084688,0.0
375,-1.1221515529450705,0.0
376,-0.797710405925654,0.0
377,-0.5909271353663252,0.0
378,0.824199334093004,0.0
379,-1.0539975410445128,0.0
380,0.051643152377627954,0.0
381,-0.7455541563128556,0.0
382,0.23960443035155357,0.0
383,-0.39225997590225836,0.0
384,0.5009880285309063,0.0
385,0.7627934466185409,0.0
386,0.2344177815181014,0.0
387,-0.30772104946592777,0.0
388,0.39487937630553016,0.0
389,-0.30113662642510897,0.0
390,0.1317459208854609,0.0
391,-0.5355825408933874,0.0
392,-0.7248605861465676,0.0
393,0.1885235199868051,0.0
394,-0.3033482719435626,0.0
395,0.11521094554445918,0.0
396,-0.8520361960266933,0.0
397,-0.5253143317686931,0.0
398,0.24444086557863298,0.0
399,-0.07507521455884489,0.0
400,-0.35753502950483074,0.0
401,1.1670866943983504,0.0
402,1.0104568266667564,0.0
403,1.3134185807216894,0.0
404,2.6603806560852212,0.0
405,2.7831076175321594,0.0
406,4.5926802529321336,0.0
407,6.55648691535782,0.0
408,6.557860425243004,0.0
409,6.285931064114096,0.0
410,6.32324836209356,0.0
411,5.576119726380254,0.0
412,4.898193826145823,0.0
413,3.361162409658831,0.0
414,1.4416265990810038,0.0
415,-0.38925278618892245,0.0
416,-2.341355052075636,0.0
417,-2.2243251843241283,0.0
418,-3.16783656231034,0.0
419,-2.290645040542566,0.0
420,-1.720120299363958,0.0
421,-0.8405819046084964,0.0
422,0.43559048995941646,0.0
423,0.8229263584321093,0.0
424,1.260539704967264,0.0
425,1.3283018384930592,0.0
426,0.7413989553422599,0.0
427,0.6604315313759029,0.0
428,1.1621447085118124,0.0
429,-0.756211989443477,0.0
430,-0.22979155163164355,0.0
431,-0.528150892362971,0.0
432,-0.6809553839225765,0.0
433,0.20484701179939319,0.0
434,-0.17246817537787798,0.0
435,-0.008521920421448725,0.0
436,-0.03444036483243518,0.0
437,-0.512045443680656,0.0
438,0.5541405718979792,0.0
439,-0.695717636699497,0.0
440,-0.17386958351815315,0.0
441,-1.1848864416971425,0.0
442,-0.24331251615672078,0.0
443,-0.8402362991778787,0.0
444,0.5911745359025485,0.0
445,-0.26596341118187594,0.0
446,0.9257739103922015,0.0
447,-0.13309147356274065,0.0
448,0.6621777920083046,0.0
449,0.17370730641329724,0.0
450,-0.15338279149916342,0.0
451,-0.6727340898941745,0.0
452,0.5985910804969559,0.0
453,-0.307448529017628,0.0
454,-0.27512521975177007,0.0
455,-0.2888226631284234,0.0
456,0.5119047435700801,0.0
457,0.2206442205469999,0.0
458,0.5794394634927609,0.0
459,0.40398741415988926,0.0
460,0.39601536907613466,0.0
461,-0.41875162310168706,0.0
462,0.3096036858639178,0.0
463,0.3875308123512008,0.0
464,-0.6314368490900976,0.0
465,0.1632990016979713,0.0
466,-0.4995640580010894,0.0
467,0.6160854381418619,0.0
468,0.17750181271683402,0.0
469,0.16779686908405128,0.0
470,-0.3434309521102385,0.0
471,-0.701322495499159,0.0
472,-0.20243557381582122,0.0
473,-0.40854628790315195,0.0
474,-0.17212614205108281,0.0
475,-0.3086822978357469,0.0
476,0.040776198318613614,0.0
477,0.1580959066004649,0.0
478,0.8976072095656162,0.0
479,0.5287848467789847,0.0
480,0.5399875409993077,0.0
481,0.4839984623312089,0.0
482,1.166862396390185,0.0
483,-0.4075534168791902,0.0
484,-0.13717269523355607,0.0
485,0.17871903328138616,0.0
486,-0.24020852508237278,0.0
487,0.4649772827999993,0.0
488,0.5901158134803381,0.0
489,-0.8070698974026339,0.0
490,0.039535537796961964,0.0
491,0.1824899723244701,0.0
492,-0.4934381321277864,0.0
493,-0.7742728070559692,0.0
494,0.6661704543405724,0.0
495,-0.09425762640336588,0.0
496,0.6480919185607604,0.0
497,0.5109302045578293,0.0
498,-0.02734523863610981,0.0
499,0.2644975028235399,0.0
500,0.5467544286631505,0.0
501,0.26493137962039875,0.0
502,1.1556617214109144,0.0
503,1.8817203451618523,0.0
504,2.466945621416666,0.0
505,3.3871050507377736,0.0
506,4.714313150122844,0.0
507,5.9122218198946594,0.0
508,7.083116226466319,0.0
509,8.344178474313543,0.0
510,7.317752327952131,0.0
511,6.357752728536441,0.0
512,5.86559649454069,0.0
513,3.7023112328921846,0.0
514,1.2235825424490718,0.0
515,-0.10304083909700185,0.0
516,-1.5023820245298307,0.0
517,-2.86044194587679,0.0
518,-2.6795458933782115,0.0
519,-1.9643382406946168,0.0
520,-2.097852156291288,0.0
521,-0.6324038365254558,0.0
522,0.37015461277778516,0.0
523,0.2329866655857753,0.0
524,0.6739495511511926,0.0
525,2.532485289066998,0.0
526,1.8534470776177971,0.0
527,1.0596084892687263,0.0
528,1.1913529024040672,0.0
529,-0.12288656387868241,0.0
530,-0.7182816193700439,0.0
531,-0.8655003729638868,0.0
532,-0.7775870638842743,0.0
533,-0.5998031608258261,0.0
534,0.3007059067227623,0.0
535,-0.25973073952951714,0.0
536,0.24855981353056295,0.0
537,1.6797745129199877,0.0
538,1.1266543036044916,0.0
539,0.4458243042084059,0.0
540,0.2900438754607169,0.0
541,0.784024895189448,0.0
542,0.4980768270495278,0.0
543,1.0676387378287044,0.0
544,-0.061625229222686206,0.0
545,-0.40883732475593326,0.0
546,0.22122964017978286,0.0
547,0.007931843243168382,0.0
548,1.1332837500777646,0.0
549,-0.5101077719516458,0.0
550,0.7365597066392092,0.0
551,0.4007013381577664,0.0
552,0.26947029483438134,0.0
553,1.1441879700957918,0.0
554,1.1378628593949922,0.0
555,0.5232377909853579,0.0
556,0.7106781743136333,0.0
557,0.5086253574143583,0.0
558,0.5959368245344988,0.0
559,0.8289966183271127,0.0
560,0.6940489735294731,0.0
561,0.32427547057596473,0.0
562,1.2192250166072935,0.0
563,1.146614871101679,0.0
564,1.058364927443925,0.0
565,0.6255686299607096,0.0
566,0.5912411830314165,0.0
567,0.9374598595177466,0.0
568,-0.18721672783814927,0.0
569,0.5704237066413291,0.0
570,0.09546945239494231,0.0
571,0.40280742371323647,0.0
572,1.0850778288735792,0.0
573,1.0803131426795656,0.0
574,0.8340473974570174,0.0
575,-0.13075296986019783,0.0
576,-0.11808789066193569,0.0
577,0.23284861971181933,0.0
578,0.7548370052032124,0.0
579,0.3685868366247904,0.0
580,-0.39076161163645035,0.0
581,0.24990617322856218,0.0
582,0.07020546280466394,0.0
583,0.09496820458884891,0.0
584,1.112118252493451,0.0
585,1.1612443426301615,0.0
586,0.929069059511161,0.0
587,0.0813182459513653,0.0
588,0.14032828922802668,0.0
589,0.00556187665729492,0.0
590,0.23904243843557096,0.0
591,0.030017263153073924,0.0
592,0.5021069345084572,0.0
593,0.7302547110496151,0.0
594,0.6567301819753021,0.0
595,0.6757288384395608,0.0
596,0.07544477297491181,0.0
597,0.7704026015656636,0.0
598,0.932673100412548,0.0
599,1.05923220756611,0.0
600,0.9997186001759569,0.0
601,1.1532512359012177,0.0
602,1.291218669157567,0.0
603,1.6087251946128203,0.0
604,3.4143541883141166,0.0
605,3.9315102354765274,0.0
606,5.4006421135162626,0.0
607,6.170871865113616,0.0
608,6.172898634556217,0.0
609,8.055775843497756,0.0
610,7.207264581655092,0.0
611,7.858906768312606,0.0
612,6.526849325396994,0.0
613,3.1457915490249313,0.0
614,1.5821113554033164,0.0
615,0.8909663516636602,0.0
616,-1.0743800970130044,0.0
617,-1.0574482292609113,0.0
618,-1.8052697099170598,0.0
619,-2.413625827416144,0.0
620,-1.8320442673129096,0.0
621,-0.34345448863085604,0.0
622,-0.20070030683960682,0.0
623,2.1346973571166727,0.0
624,2.9818351826849003,0.0
625,2.1538000912595936,0.0
626,2.6292829641165243,0.0
627,1.4531562627854884,0.0
628,0.5475272576612502,0.0
629,0.31373559029059195,0.0
630,-0.27887943550401073,0.0
631,-0.7846208242564973,0.0
632,-0.3462193609329043,0.0
633,-0.6594161205468165,0.0
634,1.0740298262442267,0.0
635,2.0560221327466635,0.0
636,1.6589610076454313,0.0
637,0.8647717910520054,0.0
638,1.545715692604693,0.0
639,1.4016658445674288,0.0
640,0.977261484907255,0.0
641,0.3653529527217983,0.0
642,0.2692594842620492,0.0
643,1.1686231673933947,0.0
644,0.4815529591739015,0.0
645,1.0055529203609272,0.0
646,1.1337621480914648,0.0
647,0.6345002541951377,0.0
648,0.32975521685432724,0.0
649,-0.08604329753199647,0.0
650,0.6146472418286133,0.0
651,0.7370262735388384,0.0
652,-0.22514396538561995,0.0
653,0.793167338044904,0.0
654,0.3479923296508208,0.0
655,0.6589502596232915,0.0
656,1.276597512355535,0.0
657,0.3429080961283107,0.0
658,-0.14869861111480814,0.0
659,0.8698419873212629,0.0
660,1.1748185163946416,0.0
661,-0.09960004455131799,0.0
662,1.137345248527269,0.0
663,0.701981475006277,0.0
664,1.36105957482239,0.0
665,0.984887804482839,0.0
666,-0.18167935536084165,0.0
667,0.469643815425863,0.0
668,0.916431501633066,0.0
669,0.6094102743585282,0.0
670,0.004532196251343851,0.0
671,0.18715668119703127,0.0
672,0.5223220698348997,0.0
673,0.8933852617994145,0.0
674,0.8687416562752153,0.0
675,1.2588961178923996,0.0
676,0.5086172534490263,0.0
677,1.4891147085158418,0.0
678,0.4661182659340704,0.0
679,1.5385191413975117,0.0
680,0.9148817539511831,0.0
681,0.12413115717817062,0.0
682,-0.03574682119776203,0.0
683,1.423051938633247,0.0
684,1.3836121942404438,0.0
685,1.0673598798354273,0.0
686,1.0693846031002023,0.0
687,0.5419714263180947,0.0
688,0.7264917939297488,0.0
689,0.8260804072477838,0.0
690,0.8391710768146657,0.0
691,0.16711976059135292,0.0
692,0.8686301429585507,0.0
693,0.2339207036601545,0.0
694,0.6576440096970081,0.0
695,0.7745337722075237,0.0
696,0.9183154897245951,0.0
697,1.3988013808370252,0.0
698,0.576928036056971,0.0
699,0.3599365927130558,0.0
700,1.2729214400702151,0.0
701,2.0500264505340313,0.0
702,2.112979088119022,0.0
703,1.748062891111219,0.0
704,2.885947401637368,0.0
705,3.9552902052128998,0.0
706,5.124145488159612,0.0
707,6.801592678648761,0.0
708,7.2671372585443486,0.0
709,7.510392126465206,0.0
710,7.58859420441111,0.0
711,7.3347503688913935,0.0
712,5.8549119995178955,0.0
713,4.950751101828963,0.0
714,2.4407369712087297,0.0
715,0.32215707156252416,0.0
716,-0.5516758682619651,0.0
717,-1.585698848912424,0.0
718,-1.5660059503161128,0.0
719,-1.7819339440712132,0.0
720,-1.00091848760804,0.0
721,0.25590103585288615,0.0
722,1.1594374599672137,0.0
723,1.9673519323957922,0.0
724,2.175236000248242,0.0
725,2.5913268519465085,0.0
726,2.0897880208699906,0.0
727,1.9562017027574803,0.0
728,1.26662656333089,0.0
729,0.7393343561523169,0.0
730,-0.5739552090831416,0.0
731,0.4222435062952683,0.0
732,0.8139162531622557,0.0
733,0.7918897776467362,0.0
734,0.22436997975600964,0.0
735,1.730354588434324,0.0
736,0.9916213524759369,0.0
737,1.4621497522011682,0.0
738,1.1203224069503412,0.0
739,0.657469154763952,0.0
740,0.7989463483085842,0.0
741,0.8971591280244711,0.0
742,0.9400486752195968,0.0
743,0.7582785840422717,0.0
744,1.6713012233869973,0.0
745,0.2534623175856564,0.0
746,1.5805664366031003,0.0
747,0.6288293480663049,0.0
748,1.0783052351843467,0.0
749,1.3415746413188656,0.0
750,0.7690429697917636,0.0
751,0.9700044326889877,0.0
752,1.2434041341431523,0.0
753,0.9247769866498339,0.0
754,1.257150604834138,0.0
755,1.9023683978354287,0.0
756,1.2126941770865092,0.0
757,0.8960034195315717,0.0
758,2.049737531889326,0.0
759,2.039554406761142,0.0
760,1.0471714797194132,0.0
761,1.0111002774679791,0.0
762,0.9896387565545373,0.0
763,0.9102158796980216,0.0
764,2.1373026575907454,0.0
765,1.8643902685552631,0.0
766,1.4451985832424852,0.0
767,0.40065432169780524,0.0
768,1.2877010032158738,0.0
769,0.4187623056054177,0.0
770,1.0066135305822224,0.0
771,1.0470552612118373,0.0
772,0.8827610214250268,0.0
773,0.7890937474742772,0.0
774,0.768530643583384,0.0
775,1.4956458688063563,0.0
776,0.5573969123511157,0.0
777,0.48002620330771734,0.0
778,2.124277310379391,0.0
779,0.26666773001539557,0.0
780,0.9501244483575207,0.0
781,1.991446672497235,0.0
782,0.5732676479494567,0.0
783,0.8197775230507085,0.0
784,1.4761469039139714,0.0
785,-0.13165605624647872,0.0
786,0.8524036042126933,0.0
787,0.9315406911681919,0.0
788,0.2912511924473015,0.0
789,0.30778118268467614,0.0
790,1.5804513330484338,0.0
791,0.9043760169561703,0.0
792,1.1291913376442815,0.0
793,0.5395510068092496,0.0
794,2.0541129884538725,0.0
795,0.73872128026448,0.0
796,0.787090455402896,0.0
797,1.1734458701615995,0.0
798,1.5729107275567844,0.0
799,0.9350681088818176,0.0
800,2.118481235975794,0.0
801,2.2759372625277225,0.0
802,2.9981899703211696,0.0
803,2.3161008404706678,0.0
804,4.551139741237693,0.0
805,5.239134259942105,0.0
806,5.833392104701018,0.0
807,7.276697688417914,0.0
808,7.510201297891992,0.0
809,8.397070556287312,0.0
810,8.619755772690635,0.0
811,7.967123217952927,0.0
812,6.694375900410299,0.0
813,5.517108019460343,0.0
814,2.8261063068138323,0.0
815,1.4783950803257642,0.0
816,-0.03318596524438022,0.0
817,-0.8297822173021294,0.0
818,-1.9524433439686808,0.0
819,-1.3773906969796732,0.0
820,-0.21704812384730432,0.0
821,0.102873134568916,0.0
822,1.5549786584079301,0.0
823,2.4464884389039496,0.0
824,3.3719163001657484,0.0
825,3.182051547613036,0.0
826,2.5509696450244124,0.0
827,1.2499716782581052,0.0
828,3.002754350729077,0.0
829,0.3885221891905102,0.0
830,0.8309563423306828,0.0
831,1.2038336572547543,0.0
832,1.4530538863111335,0.0
833,1.372130430511251,0.0
834,1.9327381852892551,0.0
835,1.4386800668935318,0.0
836,1.5564041743771024,0.0
837,1.455321748310163,0.0
838,2.2530684945466692,0.0
839,1.1312718972290243,0.0
840,1.234232334911499,0.0
841,1.2374899092825271,0.0
842,1.7428086837640608,0.0
843,0.9572168981941733,0.0
844,0.7354876822235422,0.0
845,1.3555783201110678,0.0
846,0.9826121176809064,0.0
847,2.875149446483522,0.0
848,0.7568481376164625,0.0
849,0.48925327657001694,0.0
850,1.7275354545034445,0.0
851,1.533498640380711,0.0
852,1.2700506599583823,0.0
853,1.1420509237632661,0.0
854,0.7571464102127283,0.0
855,1.671485915921247,0.0
856,1.362056627587308,0.0
857,0.6400705997019547,0.0
858,0.7819788966377638,0.0
859,1.3978332590864408,0.0
860,1.2179757991191953,0.0
861,1.5913308728159674,0.0
862,1.2106145466571994,0.0
863,2.320803318947484,0.0
864,1.3556866792625855,0.0
865,1.123811425205803,0.0
866,1.3625001554341385,0.0
867,1.2252117078804816,0.0
868,2.2949034914883715,0.0
869,1.3868552276718165,0.0
870,2.1728938212294175,0.0
871,2.0353514322925266,0.0
872,1.5502670018903155,0.0
873,1.736656560565231,0.0
874,2.15243879712445,0.0
875,0.41732231808055115,0.0
876,1.6746571434283015,0.0
877,1.0130832686049716,0.0
878,1.484786436767148,0.0
879,2.0601395080696827,0.0
880,1.567986577303121,0.0
881,1.4197310946970043,0.0
882,1.4166749888351726,0.0
883,0.53737429514008,0.0
884,0.8886336734088189,0.0
885,1.3089454921935597,0.0
886,1.074655066767483,0.0
887,1.2693446981916823,0.0
888,1.2421702677717583,0.0
889,1.7628632917014255,0.0
890,1.558547590741224,0.0
891,0.5426540094623082,0.0
892,1.787084574191362,0.0
893,2.2634450997980697,0.0
894,1.250333745516037,0.0
895,2.485568493149466,0.0
896,2.2945164735656145,0.0
897,1.4118425268811727,0.0
898,1.9142887483043183,0.0
899,0.9462381468547206,0.0
900,1.8961070107639693,0.0
901,2.0380627932255253,0.0
902,2.667712457448001,0.0
903,2.9982661699794466,0.0
904,4.612972423381389,0.0
905,4.963492162897802,0.0
906,6.518712328886178,0.0
907,6.329644236823885,0.0
908,8.185901470564456,0.0
909,8.021348814894102,0.0
910,8.001342756747421,0.0
911,7.398576815244685,0.0
912,6.931907758214903,0.0
913,5.705983766345916,0.0
914,4.296494559175935,0.0
915,1.6720239840404825,0.0
916,0.5008645195827042,0.0
917,-0.6920624262711497,0.0
918,-1.2686875471131838,0.0
919,-0.6728626600148977,0.0
920,-0.3464311380688292,0.0
921,0.6811213243621497,0.0
922,2.2259556853102738,0.0
923,2.945241876810801,0.0
924,2.5423888687662153,0.0
925,3.74475535335333,0.0
926,2.9578316991290547,0.0
927,2.2752537751603867,0.0
928,2.1870020181347005,0.0
929,0.6825630178613993,0.0
930,1.1466794171104735,0.0
931,0.6671448089837684,0.0
932,1.2531315552207851,0.0
933,1.7312104226834193,0.0
934,1.3725189036392444,0.0
935,1.749964454530728,0.0
936,1.0897179395380263,0.0
937,1.5414949093014068,0.0
938,2.608380207520677,0.0
939,2.7685078452132723,0.0
940,3.008828254450296,0.0
941,1.5873104315420212,0.0
942,1.5790421241838524,0.0
943,2.078124806795897,0.0
944,1.1156087301474833,0.0
945,1.4962258871761653,0.0
946,1.770684009161978,0.0
947,1.9259092194502159,0.0
948,2.7617237993773744,0.0
949,0.8796956447460225,0.0
950,2.0128251639444974,0.0
951,2.7408702977393635,0.0
952,2.6953301393661957,0.0
953,1.2812081434744815,0.0
954,1.392225761624419,0.0
955,1.6479909294563222,0.0
956,2.1486538928235692,0.0
957,1.6676154541063917,0.0
958,1.6480278547712826,0.0
959,1.3424007555804414,0.0
960,2.351958787409672,0.0
961,0.9765600401331163,0.0
962,1.7833731588586925,0.0
963,2.250640576876747,0.0
964,2.2981260874801954,0.0
965,1.9774757257244062,0.0
966,1.5759289694439402,0.0
967,0.7024036412430467,0.0
968,2.132529643084259,0.0
969,1.908088304920322,0.0
970,1.1408892098854455,0.0
971,1.757516751929955,0.0
972,0.6923533926096639,0.0
973,1.8901852027490647,0.0
974,2.205832412144018,0.0
975,1.0682063898945817,0.0
976,2.5864612432748935,0.0
977,1.7408002046503361,0.0
978,1.515049035801291,0.0
979,1.7790509678821502,0.0
980,2.2902302053197183,0.0
981,1.9238007353316415,0.0
982,1.468159489326388,0.0
983,2.177605812301703,0.0
984,1.7951447280201938,0.0
985,2.719311442764827,0.0
986,1.9768866897673205,0.0
987,2.535745972189241,0.0
988,2.4170325263850905,0.0
989,1.588101347385452,0.0
990,2.5352509742260434,0.0
991,1.0802754613418315,0.0
992,1.7796302782891342,0.0
993,2.610733198281952,0.0
994,2.807647913307059,0.0
995,1.7168142409698444,0.0
996,2.3586759128231902,0.0
997,2.7213309445783618,0.0
998,1.9569551246445518,0.0
999,2.1877287883273855,0.0
1000,1.458369406436408,0.0
1001,2.9136449170773404,0.0
1002,2.1147673990950127,0.0
1003,3.2075501771605857,0.0
1004,3.892271802399499,0.0
1005,5.690547624981718,0.0
1006,6.036725090138769,0.0
1007,7.2322088287046125,0.0
1008,8.727984587542036,0.0
1009,8.68184528437292,0.0
1010,8.634441897284928,0.0
1011,8.176378311944305,0.0
1012,7.000569429010645,0.0
1013,5.201152207652314,0.0
1014,3.3662165091762604,0.0
1015,2.3033728202311554,0.0
1016,-0.186619875168335,0.0
1017,0.20025344482089613,0.0
1018,-1.5098680307607815,0.0
1019,-0.05342485424211674,0.0
1020,0.41850196208762913,0.0
1021,-0.24432049160665037,0.0
1022,1.127102246887631,0.0
1023,2.7599822125317335,0.0
1024,4.287307051433045,0.0
1025,4.1317956169528,0.0
1026,2.9039854776598046,0.0
1027,2.1628599128785733,0.0
1028,2.284575433160219,0.0
1029,2.3709884415471825,0.0
1030,1.1817716670387748,0.0
1031,1.5768376407501612,0.0
1032,0.4886470737694635,0.0
1033,1.498659633829966,0.0
1034,2.129611154152043,0.0
1035,2.2792126531834365,0.0
1036,1.9220227267389334,0.0
1037,2.1628181396327255,0.0
1038,2.160278635343267,0.0
1039,2.2549434313640844,0.0
1040,1.3997045635771486,0.0
1041,1.7174754948613933,0.0
1042,2.987391346778052,0.0
1043,1.7179121026856747,0.0
1044,2.3403724095448193,0.0
1045,1.6295200333149833,0.0
1046,2.0578709826049733,0.0
1047,2.2651263055697637,0.0
1048,2.4230018950461045,0.0
1049,1.1650818837086045,0.0
1050,2.3953103835344276,0.0
1051,2.4038161588956295,0.0
1052,2.691464597239932,0.0
1053,2.778984779877093,0.0
1054,2.3143857794899154,0.0
1055,1.3793579334293122,0.0
1056,2.5810500452645897,0.0
1057,2.34501542692288,0.0
1058,1.7190796290305728,0.0
1059,2.3252220811420257,0.0
1060,2.3981070297384153,0.0
1061,1.6149458676866617,0.0
1062,2.3657184917808842,0.0
1063,1.5120201105005342,0.0
1064,1.6750642088933705,0.0
1065,1.9404312148523064,0.0
1066,2.416291136051012,0.0
1067,2.0087167723930217,0.0
1068,2.2851914481503037,0.0
1069,2.1479389315091133,0.0
1070,1.9344775086123813,0.0
1071,2.807160890196298,0.0
1072,2.2658939311000053,0.0
1073,2.472682033550623,0.0
1074,1.1209801205857761,0.0
1075,2.0906809444490566,0.0
1076,2.1195868018466415,0.0
1077,3.109408427757295,0.0
1078,1.6813035356220765,0.0
1079,2.2077020695256295,0.0
1080,2.491459134880781,0.0
1081,1.662857332332534,0.0
1082,2.395557484731221,0.0
1083,2.4400126562705817,0.0
1084,1.2506550373549508,0.0
1085,2.5215870721680953,0.0
1086,2.45675806185075,0.0
1087,2.513668285644238,0.0
1088,1.697181980930357,0.0
1089,2.8865949662830563,0.0
1090,1.3374596918970414,0.0
1091,2.2905556611877587,0.0
1092,1.8106267439866297,0.0
1093,2.7789459468673847,0.0
1094,1.935462978267529,0.0
1095,2.7556120050280755,0.0
1096,2.919679407307168,0.0
1097,1.8544034844641533,0.0
1098,3.1102070044973447,0.0
1099,1.8262339148099127,0.0
1100,1.7688614426301994,0.0
1101,2.171381030515199,0.0
1102,2.736116692846146,0.0
1103,4.503976237812549,0.0
1104,4.560236809674545,0.0
1105,5.066976410098548,0.0
1106,5.923354810740574,0.0
1107,7.80288018829936,0.0
1108,8.283667391480533,0.0
1109,9.420009412424275,0.0
1110,10.31667154890939,0.0
1111,8.945287311709055,0.0
1112,8.206934393934421,0.0
1113,6.6714681857973375,0.0
1114,5.234990667424238,0.0
1115,1.8866297214011432,0.0
1116,0.01969483952330542,0.0
1117,0.7222468128545434,0.0
1118,-0.1077265354332515,0.0
1119,-0.46377607605234594,0.0
1120,-0.14870485209196804,0.0
1121,1.3121824909437383,0.0
1122,3.346781910635625,0.0
1123,3.3852079123419903,0.0
1124,3.5685402610009116,0.0
1125,3.779728855301447,0.0
1126,3.3843041823221958,0.0
1127,3.6603552926167526,0.0
1128,2.2945884479249017,0.0
1129,0.9782385801746697,0.0
1130,1.8898140901379965,0.0
1131,1.3871796512273036,0.0
1132,1.2955118832984929,0.0
1133,2.2328047742723522,0.0
1134,2.12316050012804,0.0
1135,2.0632262868615086,0.0
1136,3.004000947780929,0.0
1137,2.4788182253996767,0.0
1138,2.5301655937067347,0.0
1139,2.3741132066510096,0.0
1140,3.0821291176893952,0.0
1141,1.8627948547203395,0.0
1142,2.145792372925068,0.0
1143,2.915502668590144,0.0
1144,2.634160342670129,0.0
1145,2.8881896207969526,0.0
1146,2.382254984672899,0.0
1147,1.7591365516698996,0.0
1148,2.0194991514599354,0.0
1149,2.4438747042924276,0.0
1150,2.4673104798201786,0.0
1151,3.030881140984422,0.0
1152,3.2738268527140613,0.0
1153,3.185118298643079,0.0
1154,2.1108946188834987,0.0
1155,2.156030577508009,0.0
1156,3.0458887994590094,0.0
1157,2.9356072867076692,0.0
1158,3.1784929015291414,0.0
1159,2.4864487139707263,0.0
1160,1.616656988453315,0.0
1161,1.275781871946448,0.0
1162,2.5652652453334612,0.0
1163,2.4034769382481063,0.0
1164,2.445446012601857,0.0
1165,2.7792426017813403,0.0
1166,2.6604160823814915,0.0
1167,2.413835816774749,0.0
1168,3.5885930310355354,0.0
1169,2.2365487340786796,0.0
1170,1.261686197977598,0.0
1171,1.1887777919523232,0.0
1172,1.6853304752295122,0.0
1173,2.5305137086972778,0.0
1174,2.511596290339097,0.0
1175,2.757284139127658,0.0
1176,2.10573280700447,0.0
1177,2.350171212025132,0.0
1178,3.6325463486394725,0.0
1179,2.3489117594226805,0.0
1180,2.7892920280633633,0.0
1181,2.179494136018723,0.0
1182,2.1562945182654225,0.0
1183,2.5111360288276003,0.0
1184,2.9324262949580504,0.0
1185,2.967281560122511,0.0
1186,2.444683317806033,0.0
1187,1.6672873013057212,0.0
1188,2.3280873690607145,0.0
1189,2.66273373143859,0.0
1190,2.3932297766477344,0.0
1191,3.5746153964739817,0.0
1192,2.8267898540835144,0.0
1193,2.980783298077225,0.0
1194,1.9528109479894813,0.0
1195,2.2211520647582796,0.0
1196,2.6906781102389425,0.0
1197,2.5117559785860215,0.0
1198,2.8518686954586756,0.0
1199,2.9073685990892484,0.0
1200,3.8659253196728915,0.0
1201,3.4907250196597603,0.0
1202,2.9414499211415595,0.0
1203,3.8663996297667014,0.0
1204,4.797649260732287,0.0
1205,5.769285247077433,0.0
1206,7.109402563741806,0.0
1207,8.60684170998023,0.0
1208,9.166808458020745,0.0
1209,9.13677282774825,0.0
1210,9.751314152427447,0.0
1211,9.210133902281058,0.0
1212,7.7314175260001505,0.0
1213,7.373055751730709,0.0
1214,4.494907756303761,0.0
1215,2.81631603173925,0.0
1216,1.313151425284267,0.0
1217,-0.04659137248094147,0.0
1218,0.0034062062771127444,0.0
1219,-0.17260982096980992,0.0
1220,0.003155921762183489,0.0
1221,1.8804427566379889,0.0
1222,2.6466383048563356,0.0
1223,3.8079733220176926,0.0
1224,3.0063306485919794,0.0
1225,4.416439478053464,0.0
1226,3.339698829236716,0.0
1227,3.7906742070038453,0.0
1228,3.0070265382131622,0.0
1229,1.797241218390302,0.0
1230,1.766068831375559,0.0
1231,3.255376333153716,0.0
1232,1.9580484230585071,0.0
1233,2.600443655526461,0.0
1234,3.067284739905204,0.0
1235,2.625005274796992,0.0
1236,2.180405412059157,0.0
1237,2.7905278447282535,0.0
1238,2.7586318174112,0.0
1239,2.8863778729242155,0.0
1240,2.9821423272587397,0.0
1241,2.744664682259823,0.0
1242,2.414107703493735,0.0
1243,2.3350826016230117,0.0
1244,3.259339267039722,0.0
1245,2.996639015299576,0.0
1246,2.2392775302005026,0.0
1247,2.340994407934189,0.0
1248,1.763045321611473,0.0
1249,2.7691694120747488,0.0
1250,2.1646209081980303,0.0
1251,2.025466542633244,0.0
1252,1.9999895525798272,0.0
1253,3.2188413510142806,0.0
1254,3.51144420535692,0.0
1255,2.6721948360664936,0.0
1256,3.4688031078973203,0.0
1257,3.3483124445961496,0.0
1258,3.264737594390757,0.0
1259,3.5550581312108203,0.0
1260,2.147721727248598,0.0
1261,2.5271338842110946,0.0
1262,2.762098463143093,0.0
1263,2.534291580958393,0.0
1264,2.313414764291409,0.0
1265,2.465850714280369,0.0
1266,3.371162576057306,0.0
1267,2.606235162341646,0.0
1268,3.8183052678774216,0.0
1269,3.170116464932455,0.0
1270,2.7643772686113754,0.0
1271,2.894716812633007,0.0
1272,2.252479048737617,0.0
1273,2.1972969473358615,0.0
1274,2.273682695574087,0.0
1275,2.510749018423688,0.0
1276,3.118644667158461,0.0
1277,2.460081299191722,0.0
1278,2.3041444618236175,0.0
1279,3.92722078127478,0.0
1280,2.9930138467046863,0.0
1281,2.843039459510051,0.0
1282,2.4255481836658532,0.0
1283,3.295079541556587,0.0
1284,2.9640965759967313,0.0
1285,2.448010973674777,0.0
1286,1.6317907426677447,0.0
1287,3.2295377008324317,0.0
1288,2.7054769651738577,0.0
1289,2.4115324069132424,0.0
1290,2.7579437806016847,0.0
1291,3.5880080368449665,0.0
1292,3.862984756756205,0.0
1293,3.0268126471282466,0.0
1294,2.4705259335395153,0.0
1295,2.968919263375102,0.0
1296,3.375260415038936,0.0
1297,3.240413394722098,0.0
1298,2.855189786006376,0.0
1299,3.209919734903473,0.0
1300,3.1860407651024993,0.0
1301,3.061351259824537,0.0
1302,2.608819368266112,0.0
1303,4.591621051135571,0.0
1304,4.782275113281241,0.0
1305,6.795956111776294,0.0
1306,6.340515331900247,0.0
1307,8.442549107987492,0.0
1308,8.966885031051845,0.0
1309,9.857480376274466,0.0
1310,10.039590591234706,0.0
1311,9.619668601240807,0.0
1312,7.772515125835823,0.0
1313,6.028105233358259,0.0
1314,4.575846427087544,0.0
1315,3.2239254145504987,0.0
1316,2.035957328575809,0.0
1317,-0.2447548703220317,0.0
1318,-0.21168331331663115,0.0
1319,0.2488985236758121,0.0
1320,1.2676120334457184,0.0
1321,2.283858870587058,0.0
1322,2.554398725909396,0.0
1323,3.929544175137354,0.0
1324,4.603478360752257,0.0
1325,4.013891405072366,0.0
1326,4.2955969621731205,0.0
1327,3.777489396228465,0.0
1328,3.5291619885143133,0.0
1329,1.839781068799088,0.0
1330,1.7836855739384063,0.0
1331,1.595532188327823,0.0
1332,2.7129464104548204,0.0
1333,2.1879684598191123,0.0
1334,3.6298272644407694,0.0
1335,3.560230696054879,0.0
1336,3.403327972948734,0.0
1337,3.592673552980436,0.0
1338,3.376405015497949,0.0
1339,3.9774379657542047,0.0
1340,2.5182237020937857,0.0
1341,3.0719450642044994,0.0
1342,2.696480028697843,0.0
1343,2.7349507142614784,0.0
1344,2.4174580525092217,0.0
1345,3.143419259274043,0.0
1346,2.943359100411713,0.0
1347,2.9312017986375434,0.0
1348,2.950473811799004,0.0
1349,2.6867921565274293,0.0
1350,2.6461115711143415,0.0
1351,2.384340248157217,0.0
1352,4.324465086476341,0.0
1353,2.328275137468325,0.0
1354,4.399621702820719,0.0
1355,3.0059316168292995,0.0
1356,3.2263125492909146,0.0
1357,3.302279623251528,0.0
1358,3.1730266036888177,0.0
1359,1.7389323055116177,0.0
1360,2.0467464053738764,0.0
1361,2.365530296582983,0.0
1362,2.5282193334394556,0.0
1363,3.2567772590054824,0.0
1364,2.1442205422519103,0.0
1365,2.8134855210176544,0.0
1366,3.6447625849291043,0.0
1367,2.644995173075903,0.0
1368,3.70626393307534,0.0
1369,3.980834473809605,0.0
1370,2.8201426325512324,0.0
1371,3.61252156255698,0.0
1372,4.04599573494798,0.0
1373,3.108897608578084,0.0
1374,2.206499352227829,0.0
1375,2.9827096619987477,0.0
1376,3.295541555870231,0.0
1377,3.298676891800698,0.0
1378,2.737735705994757,0.0
1379,3.554706335183694,0.0
1380,3.5964174959932964,0.0
1381,2.7920430202547712,0.0
1382,4.765151983365126,0.0
1383,2.9532633866947147,0.0
1384,3.1645030007785766,0.0
1385,3.4254310411558264,0.0
1386,2.9292340097441296,0.0
1387,3.4317623780455215,0.0
1388,3.521839324232159,0.0
1389,2.6385208918615386,0.0
1390,2.7362523652279376,0.0
1391,3.5320805254450516,0.0
1392,3.3045656572300035,0.0
1393,2.9611082823375288,0.0
1394,3.4021582426774435,0.0
1395,3.6117968167494108,0.0
1396,4.054651429661859,0.0
1397,2.8456126739604435,0.0
1398,3.316466690030476,0.0
1399,3.327430362662282,0.0
1400,4.424677150063265,0.0
1401,4.255190302740652,0.0
1402,4.468159935452773,0.0
1403,4.752751437315291,0.0
1404,5.94518732430976,0.0
1405,6.825003006324179,0.0
1406,6.94908445629142,0.0
1407,8.377193882831419,0.0
1408,9.628577547389048,0.0
1409,10.073027700643365,0.0
1410,9.773866469311622,0.0
1411,9.239743332406595,0.0
1412,8.808824990123163,0.0
1413,6.94948156069199,0.0
1414,4.921458948746755,0.0
1415,4.082986325069128,0.0
1416,1.5232298651527536,0.0
1417,1.2756538061692027,0.0
1418,0.7223042017821806,0.0
1419,0.23763437734214765,0.0
1420,0.8449836945197458,0.0
1421,2.403315049075016,0.0
1422,3.391703901662526,0.0
1423,4.547073735547231,0.0
1424,5.444781776431629,0.0
1425,4.484587080326362,0.0
1426,3.8568879292207128,0.0
1427,3.9867253353432512,0.0
1428,2.9049759385797156,0.0
1429,3.163540328298504,0.0
1430,1.9915025364266623,0.0
1431,2.2408185878409204,0.0
1432,2.2703740531665972,0.0
1433,2.248747219437148,0.0
1434,3.318838746902924,0.0
1435,4.1161794511492085,0.0
1436,2.767802644341851,0.0
1437,2.9569301263724124,0.0
1438,2.7257426416986537,0.0
1439,2.5350450824526503,0.0
1440,3.3556277881155903,0.0
1441,3.7914632868642992,0.0
1442,3.3249489399847367,0.0
1443,2.740887261098494,0.0
1444,3.8731400827965157,0.0
1445,3.3771551386743326,0.0
1446,2.993926608961451,0.0
1447,2.8332279302409136,0.0
1448,3.581381841476604,0.0
1449,3.5911302191434182,0.0
1450,3.2846061093482324,0.0
1451,3.97662124387498,0.0
1452,3.848862974603708,0.0
1453,2.3894468283726606,0.0
1454,2.7962641209552297,0.0
1455,3.6165431259059106,0.0
1456,3.4398178749065367,0.0
1457,3.3818492702557954,0.0
1458,3.8848726013859403,0.0
1459,3.2686332436620864,0.0
1460,3.675747681602584,0.0
1461,3.579781292656489,0.0
1462,3.615663524113851,0.0
1463,4.236107094391891,0.0
1464,3.817191387158047,0.0
1465,3.415927674860619,0.0
1466,3.4367883307207454,0.0
1467,3.8291179005829026,0.0
1468,3.1829215425957544,0.0
1469,2.3567375052908504,0.0
1470,2.8457431705882015,0.0
1471,2.5433628806011086,0.0
1472,4.553519660831657,0.0
1473,2.7619150329706064,0.0
1474,3.22944935899191,0.0
1475,3.2044961340964613,0.0
1476,3.3428635466599204,0.0
1477,2.7559180644055123,0.0
1478,3.7484622755892136,0.0
1479,3.2257385925623985,0.0
1480,3.7766474250388016,0.0
1481,4.059103040858028,0.0
1482,3.186692641655953,0.0
1483,2.817285263012585,0.0
1484,4.215868432124082,0.0
1485,3.94011765998773,0.0
1486,2.8103042058680017,0.0
1487,3.7212561979958854,0.0
1488,3.185983341426203,0.0
1489,3.101907015279984,0.0
1490,3.2249409963002162,0.0
1491,2.8623839783731992,0.0
1492,3.934720547708701,0.0
1493,3.5305563635389183,0.0
1494,3.275532261117103,0.0
1495,3.9305598635559336,0.0
1496,3.5032444707253365,0.0
1497,3.0772029887666896,0.0
1498,3.5079265623967544,0.0
1499,3.5461350076964666,0.0
1500,3.319928830211136,0.0
1501,4.329097236509497,0.0
1502,4.538753048598488,0.0
1503,4.575874274044721,0.0
1504,4.689545616340281,0.0
1505,6.92598995652443,0.0
1506,7.319731283011727,0.0
1507,8.619139735089277,0.0
1508,9.850907735713928,0.0
1509,10.750353632059067,0.0
1510,10.207663741890865,0.0
1511,9.875354975274814,0.0
1512,8.995275830605301,0.0
1513,7.239250458741736,0.0
1514,5.76213916675448,0.0
1515,3.7734118732395032,0.0
1516,2.525216214630877,0.0
1517,1.490544956757474,0.0
1518,0.9304034050103698,0.0
1519,0.8202702742256425,0.0
1520,1.404916905184387,0.0
1521,2.810065277627978,0.0
1522,3.6529781211411265,0.0
1523,4.133482333199187,0.0
1524,4.951569765042068,0.0
1525,6.103216731090923,0.0
1526,5.53564801254414,0.0
1527,4.8047234340167,0.0
1528,3.951972883459806,0.0
1529,3.9236375354761313,0.0
1530,3.383573734207668,0.0
1531,2.6270938811241553,0.0
1532,2.8213855641531973,0.0
1533,3.07843946962511,0.0
1534,4.233724986988541,0.0
1535,3.7886906846972384,0.0
1536,4.164807435973496,0.0
1537,3.6752632764329434,0.0
1538,3.5154705477143944,0.0
1539,3.0716844412048463,0.0
1540,4.20465005702194,0.0
1541,3.3082238428095496,0.0
1542,3.562168252899527,0.0
1543,3.3142065811792496,0.0
1544,2.8020846451349337,0.0
1545,4.215217789699354,0.0
1546,3.026065174625319,0.0
1547,2.9495887323278698,0.0
1548,3.5839447191519906,0.0
1549,3.006565015076577,0.0
1550,3.8859835076045384,0.0
1551,3.441377711794514,0.0
1552,4.072367151269833,0.0
1553,3.3807879355963117,0.0
1554,4.08507006082436,0.0
1555,4.086337357525576,0.0
1556,4.540426744663857,0.0
1557,4.005231978996531,0.0
1558,3.794498638309033,0.0
1559,4.142408315952202,0.0
1560,3.5549495652184273,0.0
1561,3.4716076192482945,0.0
1562,4.250402541502745,0.0
1563,3.375094368839206,0.0
1564,3.7521319687861023,0.0
1565,3.046213755133349,0.0
1566,4.021984795332883,0.0
1567,3.6865021390461616,0.0
1568,3.99414099377246,0.0
1569,4.58743215149525,0.0
1570,3.4033493477475614,0.0
1571,3.7394831818290233,0.0
1572,2.852790454079998,0.0
1573,3.125514400972962,0.0
1574,3.464150514670718,0.0
1575,3.618394341862775,0.0
1576,3.551403490638958,0.0
1577,3.172819105511711,0.0
1578,3.497702223272192,0.0
1579,3.6256559209536037,0.0
1580,2.792965582960042,0.0
1581,2.943302705133197,0.0
1582,3.2205268088361607,0.0
1583,3.217182830266062,0.0
1584,3.2865446519466555,0.0
1585,3.6793637862584245,0.0
1586,3.6557255693200705,0.0
1587,2.7388125932429412,0.0
1588,4.181253961376333,0.0
1589,4.538168039109013,0.0
1590,4.437864501539708,0.0
1591,3.3836020113975964,0.0
1592,4.044166270810025,0.0
1593,3.274299853476198,0.0
1594,5.100616767360431,0.0
1595,4.310756201812641,0.0
1596,3.6043948012475853,0.0
1597,4.022221076727609,0.0
1598,4.451515766745772,0.0
1599,3.902629755577506,0.0
1600,4.202574699736823,0.0
1601,3.918619454921157,0.0
1602,5.346431905832725,0.0
1603,4.237042459337486,0.0
1604,5.645295717108478,0.0
1605,7.474761006181175,0.0
1606,7.623648728090349,0.0
1607,9.00448863512487,0.0
1608,10.249065191375944,0.0
1609,9.583874928541789,0.0
1610,11.470916521926537,0.0
1611,10.149148007618582,0.0
1612,8.770259145414865,0.0
1613,7.836846118777444,0.0
1614,6.1830337425555495,0.0
1615,3.6646385498429925,0.0
1616,2.454129829459663,0.0
1617,1.6440702260387652,0.0
1618,0.32556142459517723,0.0
1619,0.595833058765411,0.0
1620,1.5205415292775695,0.0
1621,2.3393107921244383,0.0
1622,3.4076770661317957,0.0
1623,5.029065199396597,0.0
1624,4.732852499180881,0.0
1625,5.5946832800588595,0.0
1626,5.373515046453188,0.0
1627,5.44606876710573,0.0
1628,4.617744699035101,0.0
1629,3.037185318250765,0.0
1630,3.0845806030377476,0.0
1631,3.131056360637479,0.0
1632,3.323875411437621,0.0
1633,2.943396257989419,0.0
1634,4.248403419690052,0.0
1635,5.105216862385297,0.0
1636,4.096302569382376,0.0
1637,3.6137831630340074,0.0
1638,3.3472009197290697,0.0
1639,3.767511690284555,0.0
1640,3.268937650664358,0.0
1641,3.6692981271836387,0.0
1642,3.6198979321692324,0.0
1643,3.9745053212721597,0.0
1644,4.32769513967691,0.0
1645,3.466792256058707,0.0
1646,3.7176336200807407,0.0
1647,2.8059664685507633,0.0
1648,4.331895260064703,0.0
1649,3.9218425958526844,0.0
1650,3.919082663243941,0.0
1651,3.2467739105923896,0.0
1652,3.8732737507579316,0.0
1653,3.9690700566659434,0.0
1654,4.1668354375609145,0.0
1655,3.517174422798783,0.0
1656,4.324144160676182,0.0
1657,3.7347152603672895,0.0
1658,3.3356430979241707,0.0
1659,3.2899776849931115,0.0
1660,3.789618717656675,0.0
1661,4.628532584228197,0.0
1662,4.67542589355016,0.0
1663,2.471611178606176,0.0
1664,4.409360042159338,0.0
1665,3.909361999966836,0.0
1666,3.989510989129964,0.0
1667,3.8162604346354776,0.0
1668,4.507129575186026,0.0
1669,3.6011203527483167,0.0
1670,4.347062496997275,0.0
1671,2.762703557291358,0.0
1672,4.598854130818038,0.0
1673,4.333728904078653,0.0
1674,4.13977330435353,0.0
1675,4.369236898399827,0.0
1676,3.610480347197798,0.0
1677,3.419416393881803,0.0
1678,4.04716957256705,0.0
1679,4.304669162408118,0.0
1680,3.7162700705488656,0.0
1681,4.459317685752922,0.0
1682,3.7734569560445466,0.0
1683,3.6287144415485204,0.0
1684,4.091142906458769,0.0
1685,4.053445286318123,0.0
1686,4.064250152341345,0.0
1687,3.4791740106421547,0.0
1688,3.547824961786578,0.0
1689,3.9402602936994167,0.0
1690,3.854450381431503,0.0
1691,3.808632952867383,0.0
1692,4.356135994455106,0.0
1693,4.132323534016814,0.0
1694,4.272756462111415,0.0
1695,3.872386867598304,0.0
1696,4.476894160901889,0.0
1697,3.9375837504264846,0.0
1698,3.7642549969622485,0.0
1699,3.2695104217126767,0.0
1700,4.258339940728781,0.0
1701,3.537314358837689,0.0
1702,4.882608340635568,0.0
1703,5.5194016937329575,0.0
1704,5.639941780854876,0.0
1705,6.944813410354728,0.0
1706,8.475619230830834,0.0
1707,9.067361349691208,0.0
1708,10.227042618858654,0.0
1709,10.886604774313021,0.0
1710,11.486952234366544,0.0
1711,10.670915472562339,0.0
1712,9.382421869111901,0.0
1713,7.478732141555348,0.0
1714,6.643340123619364,0.0
1715,4.826172664694961,0.0
1716,2.8089298580252926,0.0
1717,0.8180133250876009,0.0
1718,1.3626160960428813,0.0
1719,1.219940159002014,0.0
1720,1.8406268557826313,0.0
1721,2.8944509072505618,0.0
1722,3.5565631083659466,0.0
1723,4.762121900593777,0.0
1724,4.728338545944338,0.0
1725,5.684488347752809,0.0
1726,6.00001817512096,0.0
1727,4.509061754335882,0.0
1728,3.571161576728827,0.0
1729,3.9041099837892608,0.0
1730,2.387477443575419,0.0
1731,3.0665689501091995,0.0
1732,3.5840572837127125,0.0
1733,3.438597472853833,0.0
1734,2.982599780697788,0.0
1735,4.262557300823458,0.0
1736,3.7796081574994913,0.0
1737,3.7754914065205805,0.0
1738,4.935585319443769,0.0
1739,4.07364283970787,0.0
1740,3.584117782272565,0.0
1741,3.2165331788397045,0.0
1742,3.6224442277540243,0.0
1743,4.529206988578698,0.0
1744,4.152662436508938,0.0
1745,4.514751320589373,0.0
1746,4.196290916134828,0.0
1747,4.519438145272203,0.0
1748,3.1969314504968662,0.0
1749,4.298042477770709,0.0
1750,4.281208373457987,0.0
1751,4.469700503206742,0.0
1752,4.214103771788822,0.0
1753,3.91950014633997,0.0
1754,4.345309078778809,0.0
1755,3.842663098916081,0.0
1756,4.504553544402843,0.0
1757,3.7438324473888254,0.0
1758,3.6872443420499974,0.0
1759,3.7841092115005894,0.0
1760,4.00902625222045,0.0
1761,3.7796526183449064,0.0
1762,4.65629759614616,0.0
1763,3.1676071359933466,0.0
1764,4.546120522453432,0.0
1765,3.8722442716544414,0.0
1766,4.234985131682365,0.0
1767,4.5833388818327885,0.0
1768,4.356978980361167,0.0
1769,4.29858999224151,0.0
1770,3.7608735665814117,0.0
1771,4.431622762138279,0.0
1772,4.183976351650909,0.0
1773,4.658104935790312,0.0
1774,4.710919072898177,0.0
1775,4.1288609500583116,0.0
1776,3.1091039102929607,0.0
1777,3.848097603001121,0.0
1778,4.123123663732604,0.0
1779,4.465295236237468,0.0
1780,4.445746187640871,0.0
1781,4.92414250128081,0.0
1782,5.172051768729942,0.0
1783,4.0249457959043,0.0
1784,4.197242129611958,0.0
1785,3.830086714459466,0.0
1786,3.4088503941403556,0.0
1787,4.565924689208485,0.0
1788,5.183848568602535,0.0
1789,4.207733460991691,0.0
1790,3.800283754714922,0.0
1791,3.728146255513466,0.0
1792,4.398244815246996,0.0
1793,4.168973217959515,0.0
1794,4.04969054376701,0.0
1795,4.015451615858137,0.0
1796,3.6882438561345636,0.0
1797,3.8232526065214443,0.0
1798,4.638419287157896,0.0
1799,4.659966750113726,0.0
1800,4.3632666007314835,0.0
1801,4.634294296113644,0.0
1802,4.107283319782456,0.0
1803,5.580168153282444,0.0
1804,6.972318183204971,0.0
1805,7.256919334742805,0.0
1806,7.020081642675087,0.0
1807,8.922908692475751,0.0
1808,11.042680612357476,0.0
1809,11.214887130486854,0.0
1810,10.871133308683817,0.0
1811,10.508346802017357,0.0
1812,9.816569610394925,0.0
1813,8.194249796150938,0.0
1814,7.057495076937304,0.0
1815,4.903299732515955,0.0
1816,3.008556323541473,0.0
1817,1.3472773214435785,0.0
1818,1.90967180455366,0.0
1819,1.8341032359480907,0.0
1820,1.5523383128079131,0.0
1821,2.956335366050392,0.0
1822,3.7916556355694304,0.0
1823,5.630467215262738,0.0
1824,5.293091460582516,0.0
1825,6.05422270918563,0.0
1826,5.462063479816392,0.0
1827,5.8752085992445355,0.0
1828,3.8857087995519177,0.0
1829,3.936238069357372,0.0
1830,3.3724624252746556,0.0
1831,3.9303583984239783,0.0
1832,3.9141928023038077,0.0
1833,3.788599357188024,0.0
1834,3.159200058864277,0.0
1835,4.542422204738169,0.0
1836,4.732244883773304,0.0
1837,4.8057571294492085,0.0
1838,3.582605423056497,0.0
1839,4.644430825556027,0.0
1840,3.806472568999421,0.0
1841,4.0802287660039225,0.0
1842,3.941318543785338,0.0
1843,4.524433826129818,0.0
1844,4.227957403307282,0.0
1845,4.20195592568663,0.0
1846,3.9678628681864807,0.0
1847,4.660490161262217,0.0
1848,4.361712175310796,0.0
1849,4.308375195175243,0.0
1850,4.477856806693658,0.0
1851,4.799258577084493,0.0
1852,4.53659221393794,0.0
1853,4.278982259358209,0.0
1854,4.9758372458727695,0.0
1855,3.755301738820709,0.0
1856,4.596300566188199,0.0
1857,4.445190117132402,0.0
1858,3.759160215253782,0.0
1859,4.80501383005164,0.0
1860,3.5620231653381467,0.0
1861,3.4070081983455225,0.0
1862,3.1802203201796138,0.0
1863,4.932931987630985,0.0
1864,4.551799820455186,0.0
1865,3.218271776799721,0.0
1866,5.545111060960698,0.0
1867,3.6701316985168977,0.0
1868,4.96801579259478,0.0
1869,3.9455425452790807,0.0
1870,4.413124736190245,0.0
1871,4.229169779315452,0.0
1872,4.099863939940713,0.0
1873,3.6411747404326413,0.0
1874,4.726237629181148,0.0
1875,4.367170900668881,0.0
1876,3.438310026709644,0.0
1877,4.608425986027225,0.0
1878,4.649357593322008,0.0
1879,3.6209515115423168,0.0
1880,4.042976138498277,0.0
1881,4.791902290600913,0.0
1882,4.489918778309448,0.0
1883,4.780952853173856,0.0
1884,4.66977716795241,0.0
1885,4.590476290880826,0.0
1886,4.0779747555740045,0.0
1887,4.342202373046814,0.0
1888,3.782715234318245,0.0
1889,4.269153709225194,0.0
1890,4.052213954828545,0.0
1891,3.7457923286928874,0.0
1892,4.415846041595743,0.0
1893,4.415614189442,0.0
1894,4.811485038896265,0.0
1895,4.646648423301712,0.0
1896,4.4360534813165735,0.0
1897,4.957325642978753,0.0
1898,4.0624170454404815,0.0
1899,5.816777353466138,0.0
1900,4.74227743827806,0.0
1901,4.625817433668471,0.0
1902,5.2786667800495835,0.0
1903,6.095159263040024,0.0
1904,6.154224321018633,0.0
1905,7.400062773642639,0.0
1906,9.362494924496794,0.0
1907,8.528274131441828,0.0
1908,11.80016979022367,0.0
1909,11.231659126909541,0.0
1910,11.624717190809909,0.0
1911,11.280043632845643,0.0
1912,10.14361299333607,0.0
1913,8.279673020382523,0.0
1914,6.10356519235784,0.0
1915,5.394576061610033,0.0
1916,3.781944192149899,0.0
1917,1.9163439257194712,0.0
1918,1.8925226702440194,0.0
1919,1.5631565556632934,0.0
1920,1.4414813992706175,0.0
1921,4.0184624804808085,0.0
1922,5.275034642666528,0.0
1923,4.634541743115651,0.0
1924,5.30816066067701,0.0
1925,6.869721808930825,0.0
1926,5.335077012297819,0.0
1927,5.117606597401059,0.0
1928,4.7190459069062785,0.0
1929,4.494678822234882,0.0
1930,3.3663839387385623,0.0
1931,3.5391747740489263,0.0
1932,4.0488183306517325,0.0
1933,3.7988852923849152,0.0
1934,4.247564650212192,0.0
1935,3.404299776070644,0.0
1936,5.0398817818643735,0.0
1937,4.680422569680481,0.0
1938,4.634795536402164,0.0
1939,3.923122446057801,0.0
1940,4.811349316241588,0.0
1941,5.398824915483403,0.0
1942,5.227857986055242,0.0
1943,4.181573928386899,0.0
1944,4.662810798981039,0.0
1945,4.39387863400266,0.0
1946,3.622969902594358,0.0
1947,4.950409249183867,0.0
1948,4.582849892380148,0.0
1949,3.7938625586564405,0.0
1950,4.313859678203671,0.0
1951,4.673146740891973,0.0
1952,4.460124954256729,0.0
1953,4.386729493542883,0.0
1954,4.228613416049914,0.0
1955,4.68747357631426,0.0
1956,3.4840392275799283,0.0
1957,4.487876942022216,0.0
1958,5.092055391838196,0.0
1959,5.00476437796609,0.0
1960,3.645120516379735,0.0
1961,4.608384087867003,0.0
1962,4.682381947873713,0.0
1963,4.801084605294697,0.0
1964,4.545863917941249,0.0
1965,4.182147891541822,0.0
1966,4.862494203728739,0.0
1967,4.2266947058432365,0.0
1968,3.5089664320854674,0.0
1969,3.917897948472933,0.0
1970,4.3161733726124245,0.0
1971,3.954278543417087,0.0
1972,4.468562088235371,0.0
1973,4.42721978662178,0.0
1974,4.861966192430092,0.0
1975,5.465341952301619,0.0
1976,4.742334816752244,0.0
1977,4.298737602414725,0.0
1978,4.223677576264657,0.0
1979,4.807639203481163,0.0
1980,4.539748009913488,0.0
1981,4.26420493115905,0.0
1982,4.965722500211406,0.0
1983,4.260908757746137,0.0
1984,4.876425622562298,0.0
1985,4.2879944660484055,0.0
1986,4.3107063447600025,0.0
1987,4.536009477254889,0.0
1988,3.840581522240327,0.0
1989,5.434772463584488,0.0
1990,4.653109935996746,0.0
1991,4.2343632874328465,0.0
1992,4.3312332791031185,0.0
1993,3.6911847149450128,0.0
1994,4.71347553371081,0.0
1995,4.516118773926884,0.0
1996,4.38782913688886,0.0
1997,5.302867204699887,0.0
1998,3.9931351651678035,0.0
1999,3.563583742493811,0.0
2000,5.479811921949104,0.0
2001,4.702350835179225,0.0
2002,5.687217409072323,0.0
2003,6.133999920931061,0.0
2004,6.892381656804588,0.0
2005,7.304181631882184,0.0
2006,8.587196554483258,0.0
2007,9.408756670586214,0.0
2008,10.276768448986196,0.0
2009,11.292446087585581,0.0
2010,10.796170383015387,0.0
2011,11.654437106363893,0.0
2012,9.968238100315979,0.0
2013,8.702688617048043,0.0
2014,7.100230040438786,0.0
2015,5.486271814075012,0.0
2016,3.6160215767969426,0.0
2017,2.597508911784892,0.0
2018,1.9860513522954086,0.0
2019,2.050102403808461,0.0
2020,2.237392221160209,0.0
2021,2.7100231665206804,0.0
2022,4.508649199524741,0.0
2023,5.659905531818257,0.0
2024,6.231730600669284,0.0
2025,6.8701475012479385,0.0
2026,6.3199881975761105,0.0
2027,5.61516172651312,0.0
2028,5.635489611708259,0.0
2029,4.010040973072362,0.0
2030,3.1885016341257835,0.0
2031,3.8127393619302787,0.0
2032,3.4954769909230325,0.0
2033,3.655414590138967,0.0
2034,3.9819579026437015,0.0
2035,5.059751975779561,0.0
2036,4.192330922171918,0.0
2037,5.385264139251152,0.0
2038,5.20408487102489,0.0
2039,3.1414395853883033,0.0
2040,4.658686630811918,0.0
2041,4.648719900078587,0.0
2042,4.376658928651639,0.0
2043,4.789492877702048,0.0
2044,4.405344465637411,0.0
2045,4.201034365516915,0.0
2046,4.9512148866069,0.0
2047,4.132134067135164,0.0
2048,4.418782952842968,0.0
2049,5.038938361750651,0.0
2050,4.808342184931143,0.0
2051,4.663870517920545,0.0
2052,5.53649950081235,0.0
2053,5.020644292223244,0.0
2054,3.83059620546376,0.0
2055,4.173037938939268,0.0
2056,5.098248388383262,0.0
2057,4.935089964703461,0.0
2058,3.7149781010091356,0.0
2059,4.936075004195535,0.0
2060,4.093030164757562,0.0
2061,4.939164478933234,0.0
2062,4.779587313830167,0.0
2063,4.8022216594896925,0.0
2064,4.653493499656277,0.0
2065,5.250795917830364,0.0
2066,4.079666271913362,0.0
2067,4.981894723747993,0.0
2068,4.849299447920802,0.0
2069,4.483753417865236,0.0
2070,4.491268930907872,0.0
2071,5.085752493344061,0.0
2072,4.5452072044969105,0.0
2073,4.334811559728323,0.0
2074,5.12797093475681,0.0
2075,3.9410277910488567,0.0
2076,5.4054627232499035,0.0
2077,5.182734714801052,0.0
2078,3.860377041607145,0.0
2079,4.202399196513824,0.0
2080,4.902635809747945,0.0
2081,4.57585372089822,0.0
2082,5.275602400375027,0.0
2083,4.052869863707496,0.0
2084,4.491707013794909,0.0
2085,4.5155662521994016,0.0
2086,5.1341755502376465,0.0
2087,4.444958120131746,0.0
2088,4.33340149720131,0.0
2089,5.249987297659641,0.0
2090,4.610444095299482,0.0
2091,5.090001869508558,0.0
2092,5.147113638199167,0.0
2093,4.188492487176574,0.0
2094,5.107916464979998,0.0
2095,4.414207910602789,0.0
2096,4.599052437168194,0.0
2097,5.249891676311439,0.0
2098,4.520783979920816,0.0
2099,4.449575424977386,0.0
2100,5.300105425028662,0.0
2101,4.760452946736244,0.0
2102,6.589275399836116,0.0
2103,5.637787786527536,0.0
2104,6.396895438536855,0.0
2105,7.728081969741908,0.0
2106,9.113797617437939,0.0
2107,9.698690055126328,0.0
2108,11.02096199000228,0.0
2109,11.105813580745698,0.0
2110,12.278465925688764,0.0
2111,11.58836407592067,0.0
2112,10.113397306257244,0.0
2113,9.479794481418795,0.0
2114,7.055188436854066,0.0
2115,5.908619071132999,0.0
2116,4.5654057298832225,0.0
2117,2.972262564367055,0.0
2118,1.0593278015108796,0.0
2119,2.0142459174247773,0.0
2120,2.1184407662501865,0.0
2121,2.4478918098423073,0.0
2122,4.614471685612629,0.0
2123,5.911462189314089,0.0
2124,6.269292292990313,0.0
2125,5.663890580223831,0.0
2126,6.387925337613324,0.0
2127,5.610088536238216,0.0
2128,5.0555144396170615,0.0
2129,5.66590003626628,0.0
2130,4.299515533479765,0.0
2131,3.2399618092746976,0.0
2132,4.155673436395458,0.0
2133,4.2134269031682505,0.0
2134,4.726793349224086,0.0
2135,4.935154990656916,0.0
2136,4.208929106362518,0.0
2137,5.302980574304282,0.0
2138,4.068904281086068,0.0
2139,4.9674942316882635,0.0
2140,5.008040785644862,0.0
2141,5.590615877763397,0.0
2142,4.08461986185117,0.0
2143,5.0932472607258275,0.0
2144,4.32299609044192,0.0
2145,5.0370904251620265,0.0
2146,4.331187199393572,0.0
2147,6.016863073759734,0.0
2148,4.3246919441571965,0.0
2149,4.05938408118317,0.0
2150,5.174914249057307,0.0
2151,6.099367243436119,0.0
2152,4.538435821714134,0.0
2153,4.620839082323901,0.0
2154,4.467028954387173,0.0
2155,5.307081108664503,0.0
2156,5.5210759805087255,0.0
2157,5.538541003393083,0.0
2158,4.881996104659243,0.0
2159,4.8746412015385365,0.0
2160,5.842325723053364,0.0
2161,5.409718831644247,0.0
2162,5.6347385734401865,0.0
2163,6.060070142237718,0.0
2164,4.17776041671926,0.0
2165,4.987607314276944,0.0
2166,4.552329129684293,0.0
2167,4.975578647536623,0.0
2168,4.3467632711351305,0.0
2169,4.298850594974131,0.0
2170,5.824489338715566,0.0
2171,4.795712393570675,0.0
2172,4.42559753195104,0.0
2173,5.1165821000015335,0.0
2174,5.590050035729446,0.0
2175,4.569884949420264,0.0
2176,3.9757534726907484,0.0
2177,5.407611609089743,0.0
2178,5.784048366437997,0.0
2179,5.296458289696262,0.0
2180,4.8810846475578655,0.0
2181,5.083037682707138,0.0
2182,4.668412014359633,0.0
2183,4.689006092416543,0.0
2184,4.443600790888816,0.0
2185,4.391511889661948,0.0
2186,4.186416277737183,0.0
2187,5.290565636906213,0.0
2188,4.815105295769787,0.0
2189,4.964493582379566,0.0
2190,4.658102996601171,0.0
2191,5.909816636921911,0.0
2192,4.898638110919938,0.0
2193,4.793409286529143,0.0
2194,4.266312483124041,0.0
2195,5.3397430336876095,0.0
2196,5.13578836420192,0.0
2197,5.3040160020270894,0.0
2198,5.183152020350681,0.0
2199,5.460676675414205,0.0
2200,4.771451110891074,0.0
2201,5.135196567036632,0.0
2202,5.4794473804967545,0.0
2203,5.527661075526472,0.0
2204,6.86163326000001,0.0
2205,8.32644856922398,0.0
2206,9.058488290748574,0.0
2207,10.463027533262839,0.0
2208,10.780995908774296,0.0
2209,10.250379276182795,0.0
2210,11.849214928912847,0.0
2211,11.602319064999604,0.0
2212,10.674430166411248,0.0
2213,9.424947555912084,0.0
2214,7.793171414723192,0.0
2215,4.911914988871186,0.0
2216,4.376405170416347,0.0
2217,2.475770913550768,0.0
2218,2.322893240850425,0.0
2219,2.544068521776042,0.0
2220,3.0514414773550995,0.0
2221,2.8520577807559864,0.0
2222,4.8890232903496935,0.0
2223,6.301837560828002,0.0
2224,5.995516132765957,0.0
2225,6.899205420207269,0.0
2226,6.123641525582627,0.0
2227,5.943694107626479,0.0
2228,5.60028358557757,0.0
2229,5.171969251897631,0.0
2230,5.059473353549245,0.0
2231,4.8705855727588645,0.0
2232,3.828858356243218,0.0
2233,4.693645921614117,0.0
2234,5.7181164549464,0.0
2235,5.7439514104052245,0.0
2236,4.9318104965913925,0.0
2237,6.038237398552436,0.0
2238,5.065967567820194,0.0
2239,5.427433286335053,0.0
2240,4.910223636590585,0.0
2241,5.263833960087601,0.0
2242,4.8413616665200445,0.0
2243,4.486237965871491,0.0
2244,5.623271350241942,0.0
2245,5.506272989763403,0.0
2246,5.16385797814481,0.0
2247,4.640043795896894,0.0
2248,5.362459018431724,0.0
2249,5.466022419089506,0.0
2250,5.016187791301076,0.0
2251,4.649329462828206,0.0
2252,4.861290222821795,0.0
2253,5.336757066208313,0.0
2254,5.11767112903546,0.0
2255,4.869201621534558,0.0
2256,4.910173421030683,0.0
2257,5.042803960751754,0.0
2258,4.918555064921001,0.0
2259,5.3025044739613945,0.0
2260,5.569752344002715,0.0
2261,5.118938211991009,0.0
2262,4.969548563021813,0.0
2263,5.8636951375941715,0.0
2264,4.827326835822944,0.0
2265,6.0975697127082675,0.0
2266,4.455719389128258,0.0
2267,5.432027106392935,0.0
2268,5.332441393845085,0.0
2269,5.172511413523126,0.0
2270,5.669314835914884,0.0
2271,5.250530942095798,0.0
2272,6.085421458914525,0.0
2273,6.252010908116068,0.0
2274,6.301518224424882,0.0
2275,4.942574006313252,0.0
2276,5.600561347620006,0.0
2277,5.289617283953814,0.0
2278,5.055117285674076,0.0
2279,5.180299099532665,0.0
2280,4.559948119399854,0.0
2281,4.886675533285858,0.0
2282,5.897561839451476,0.0
2283,5.820919032861237,0.0
2284,4.823218701145363,0.0
2285,5.15778847284194,0.0
2286,5.362128928143202,0.0
2287,5.453320371850711,0.0
2288,5.152496885642448,0.0
2289,4.588727819187215,0.0
2290,5.8470773526540585,0.0
2291,5.178858561943785,0.0
2292,5.057471249469328,0.0
2293,5.177315998420629,0.0
2294,5.332211018670469,0.0
2295,4.866624415649744,0.0
2296,5.353168606190961,0.0
2297,4.4815397657434115,0.0
2298,4.728600977727379,0.0
2299,5.659374163580439,0.0
2300,6.259990917372369,0.0
2301,5.937521763390892,0.0
2302,5.978021213865518,0.0
2303,6.705678668858984,0.0
2304,7.820272824818572,0.0
2305,8.346656526987761,0.0
2306,9.541864974971116,0.0
2307,10.23152435614038,0.0
2308,12.320528332523153,0.0
2309,11.80514590985489,0.0
2310,11.466874321253076,0.0
2311,13.067226147436507,0.0
2312,11.091879473742704,0.0
2313,9.215430181322475,0.0
2314,7.512569988432025,0.0
2315,5.731549668564483,0.0
2316,3.5267714732108177,0.0
2317,2.6781644700714518,0.0
2318,2.080924058758325,0.0
2319,2.4596848778352087,0.0
2320,2.806617821997605,0.0
2321,3.716650868290237,0.0
2322,5.305989645467941,0.0
2323,6.625322569542285,0.0
2324,6.539877169875151,0.0
2325,6.462910564735347,0.0
2326,7.676001105109413,0.0
2327,6.706575462270312,0.0
2328,5.743514170137709,0.0
2329,4.643637737330884,0.0
2330,5.13340379741436,0.0
2331,4.914798429038246,0.0
2332,4.5949590040641874,0.0
2333,4.9067312719856,0.0
2334,4.3372906960614515,0.0
2335,5.0988264448690686,0.0
2336,4.773791161473629,0.0
2337,5.517165474867982,0.0
2338,4.141274320866428,0.0
2339,5.7323432727391195,0.0
2340,5.872943410538486,0.0
2341,5.108987511694862,0.0
2342,5.29404767264621,0.0
2343,4.3978178044170075,0.0
2344,5.6073640497974475,0.0
2345,5.392343172269113,0.0
2346,5.001986356304721,0.0
2347,4.581780434965116,0.0
2348,5.640250007644796,0.0
2349,6.333653983147612,0.0
2350,4.445836186268025,0.0
2351,5.3857605194856655,0.0
2352,5.214852908915098,0.0
2353,5.1367605250322015,0.0
2354,5.311748449087599,0.0
2355,4.96930171917114,0.0
2356,6.354568818961962,0.0
2357,5.019209192797218,0.0
2358,5.483765554854514,0.0
2359,5.2171732018365855,0.0
2360,4.649574385649739,0.0
2361,5.099699637595396,0.0
2362,5.409615625572748,0.0
2363,5.28037562744877,0.0
2364,5.625904644586623,0.0
2365,5.324568712268159,0.0
2366,5.009556123966133,0.0
2367,4.431012897385385,0.0
2368,6.015121261020641,0.0
2369,4.699290282629259,0.0
2370,5.589180536440711,0.0
2371,4.70868781293201,0.0
2372,4.840046336881276,0.0
2373,5.750034363645207,0.0
2374,5.225053298063369,0.0
2375,5.464722822777529,0.0
2376,6.0493765336493786,0.0
2377,5.557468273822046,0.0
2378,5.238282006640041,0.0
2379,5.433599864442204,0.0
2380,5.348187513865369,0.0
2381,5.714400135649639,0.0
2382,4.887040025329822,0.0
2383,5.430837956916832,0.0
2384,5.698179634500198,0.0
2385,5.421387431593427,0.0
2386,6.374110494323087,0.0
2387,6.386673989730527,0.0
2388,5.138744191728627,0.0
2389,5.085280416713957,0.0
2390,5.057989809787158,0.0
2391,4.570110902633225,0.0
2392,5.076664526337025,0.0
2393,5.231193959419313,0.0
2394,5.079498725570208,0.0
2395,5.0781635058916885,0.0
2396,5.624498897510346,0.0
2397,5.606012797757821,0.0
2398,5.876394694333616,0.0
2399,5.885092648313033,0.0
2400,5.168101993849216,0.0
2401,6.645665941566084,0.0
2402,6.62172846127581,0.0
2403,7.10344097733465,0.0
2404,7.663040223459144,0.0
2405,8.96957130607597,0.0
2406,9.264708785787573,0.0
2407,10.734131090006365,0.0
2408,11.473607805410094,0.0
2409,12.05633393059355,0.0
2410,12.060483389608383,0.0
2411,11.673600657157213,0.0
2412,10.892628190256383,0.0
2413,9.999342633272438,0.0
2414,7.756969739435156,0.0
2415,6.512574184114326,0.0
2416,4.476364259221021,0.0
2417,2.746841264066001,0.0
2418,1.711430580412849,0.0
2419,3.1222538190972084,0.0
2420,2.500989168354776,0.0
2421,4.398666110956514,0.0
2422,5.363471017017873,0.0
2423,5.162309948715735,0.0
2424,6.916245027115384,0.0
2425,6.913971750689358,0.0
2426,7.734182454132901,0.0
2427,6.394998030796951,0.0
2428,5.579139016855439,0.0
2429,4.851531610940041,0.0
2430,4.172776199375828,0.0
2431,4.744606743730031,0.0
2432,4.470054370888675,0.0
2433,5.476114134340325,0.0
2434,5.551274358461404,0.0
2435,5.6331770763903775,0.0
2436,6.071354248948289,0.0
2437,5.716725186065366,0.0
2438,5.755578791644687,0.0
2439,6.300371822354142,0.0
2440,5.080713831295238,0.0
2441,5.64284858018547,0.0
2442,4.961824648772655,0.0
2443,5.390120303751039,0.0
2444,5.211065010295848,0.0
2445,5.74213804309341,0.0
2446,4.750283933789433,0.0
2447,5.339193797995813,0.0
2448,5.455486631958397,0.0
2449,5.46135624246594,0.0
2450,5.842938168766966,0.0
2451,5.197552865279009,0.0
2452,5.46322831777998,0.0
2453,4.117741359601959,0.0
2454,5.951513388608381,0.0
2455,5.9391668971198595,0.0
2456,5.5380006204231105,0.0
2457,6.089208386932662,0.0
2458,6.368468481891342,0.0
2459,5.148464445151325,0.0
2460,6.5287921306521675,0.0
2461,6.492105278183207,0.0
2462,5.281618668961952,0.0
2463,5.412220056497258,0.0
2464,5.967192605739372,0.0
2465,5.913228151653808,0.0
2466,5.401358762005229,0.0
2467,5.531834807179039,0.0
2468,5.473399618055673,0.0
2469,5.450367473078952,0.0
2470,5.185067368901654,0.0
2471,5.153581579499716,0.0
2472,6.774473546565608,0.0
2473,5.631576894412486,0.0
2474,4.865465179414633,0.0
2475,5.637411622108527,0.0
2476,5.746323658660606,0.0
2477,6.450434793343221,0.0
2478,5.991996904519313,0.0
2479,4.437613075539124,0.0
2480,5.6073256579200095,0.0
2481,5.716260995125238,0.0
2482,5.358464137580705,0.0
2483,5.001779380757026,0.0
2484,4.811028583479816,0.0
2485,5.491350785258688,0.0
2486,5.447954004122614,0.0
2487,6.10064831600507,0.0
2488,5.691943739955945,0.0
2489,5.058999131363564,0.0
2490,5.669143342131354,0.0
2491,5.4486932170521145,0.0
2492,5.283469725406101,0.0
2493,5.8902349177988285,0.0
2494,4.971788751074393,0.0
2495,5.3077038152743015,0.0
2496,5.141171165568429,0.0
2497,4.827443347185892,0.0
2498,5.463341131914322,0.0
2499,5.799917826838724,0.0
2500,4.276428803321406,0.0
2501,6.542650669080141,0.0
2502,5.7471379587618205,0.0
2503,6.447338350318396,0.0
2504,7.375142550445747,0.0
2505,8.145282140476633,0.0
2506,9.257171691440066,0.0
2507,9.723737316451459,0.0
2508,10.855607896362157,0.0
2509,12.499091036478465,0.0
2510,12.369815983689403,0.0
2511,11.953544239279317,0.0
2512,11.896153562268829,0.0
2513,9.592577087254904,0.0
2514,8.14718499709234,0.0
2515,6.682088068117503,0.0
2516,4.572995130531957,0.0
2517,3.2578282755819155,0.0
2518,2.48031074067727,0.0
2519,2.917106544445298,0.0
2520,3.0333978228265033,0.0
2521,4.051565148140296,0.0
2522,4.742949869104635,0.0
2523,5.8515278245400495,0.0
2524,6.851328942254905,0.0
2525,7.969095922980789,0.0
2526,7.181601374824261,0.0
2527,6.275243098619251,0.0
2528,5.5311545154509645,0.0
2529,4.997132570078917,0.0
2530,5.685693902282687,0.0
2531,5.551766847315214,0.0
2532,3.858013697904109,0.0
2533,5.15096667254138,0.0
2534,5.427573071750816,0.0
2535,5.680026641178757,0.0
2536,5.7406434338602095,0.0
2537,6.213483634931984,0.0
2538,5.860670966622451,0.0
2539,5.355222450394257,0.0
2540,6.491972965143674,0.0
2541,6.347136385091162,0.0
2542,5.2653325306340815,0.0
2543,5.238485817525605,0.0
2544,5.352197716298053,0.0
2545,6.274071523499597,0.0
2546,5.624794648604522,0.0
2547,5.065158652996864,0.0
2548,5.161953429919977,0.0
2549,5.890212900479827,0.0
2550,5.1604962171561635,0.0
2551,5.650383455687587,0.0
2552,5.50438154558699,0.0
2553,5.575352097382913,0.0
2554,5.883951957520865,0.0
2555,5.713267481056434,0.0
2556,5.435902043248315,0.0
2557,5.723654748017493,0.0
2558,5.539968244836268,0.0
2559,5.8175687343488285,0.0
2560,5.089701699530474,0.0
2561,5.517320010956869,0.0
2562,5.7574361057681696,0.0
2563,5.865784948851573,0.0
2564,6.210552834194238,0.0
2565,5.737783313752817,0.0
2566,5.762119191153393,0.0
2567,4.812754617642898,0.0
2568,6.786547271379594,0.0
2569,5.233943746858032,0.0
2570,4.767851623295406,0.0
2571,5.492345457649772,0.0
2572,5.485015714985396,0.0
2573,6.1088669940142335,0.0
2574,5.773954287980702,0.0
2575,5.385441284569393,0.0
2576,5.472364104675484,0.0
2577,5.898753448663693,0.0
2578,5.34753926589778,0.0
2579,5.321469429117984,0.0
2580,7.525445826153154,0.0
2581,4.2826782738083615,0.0
2582,4.805655509409956,0.0
2583,5.5463539803657635,0.0
2584,6.169279269885431,0.0
2585,4.9971209966400885,0.0
2586,5.589120749961246,0.0
2587,4.699176296398904,0.0
2588,6.47004175526052,0.0
2589,5.947005721551889,0.0
2590,5.679591176976937,0.0
2591,5.12866831865285,0.0
2592,5.125870363221308,0.0
2593,6.052782402642232,0.0
2594,5.160662620921212,0.0
2595,4.469383557847436,0.0
2596,5.575027183760797,0.0
2597,5.8416724023168936,0.0
2598,5.5374189276332615,0.0
2599,6.051937707013073,0.0
2600,5.579463631315105,0.0
2601,5.875205434698745,0.0
2602,7.104520434364183,0.0
2603,6.802057926519566,0.0
2604,7.174285128460006,0.0
2605,7.871014845199449,0.0
2606,9.89917339646268,0.0
2607,10.88200044917603,0.0
2608,11.425290324641674,0.0
2609,13.27080791038171,0.0
2610,12.189657778236974,0.0
2611,12.72231749751979,0.0
2612,11.887570658012326,0.0
2613,10.229832467008876,0.0
2614,8.28094650120084,0.0
2615,6.080045362807715,0.0
2616,5.125782443565273,0.0
2617,3.774736875583858,0.0
2618,2.8956137136255644,0.0
2619,2.8592148098978205,0.0
2620,2.785486080688709,0.0
2621,3.4321251198773375,0.0
2622,5.213554574545331,0.0
2623,6.125341511397158,0.0
2624,6.974266687381483,0.0
2625,7.6036764466299,0.0
2626,7.063067572103534,0.0
2627,6.127122184910064,0.0
2628,6.445728557182345,0.0
2629,5.854658960842804,0.0
2630,5.987855315426759,0.0
2631,4.646314115035295,0.0
2632,5.2965935445690455,0.0
2633,5.440429661308576,0.0
2634,5.014665998494739,0.0
2635,6.2868279632885695,0.0
2636,5.498526001201772,0.0
2637,6.117339289862085,0.0
2638,6.855040665543536,0.0
2639,5.908285052877336,0.0
2640,6.061051855819408,0.0
2641,5.754978252440719,0.0
2642,4.865717664328197,0.0
2643,5.351957447159777,0.0
2644,5.510726021073532,0.0
2645,6.3036780667536805,0.0
2646,6.097612645214942,0.0
2647,5.173654115392873,0.0
2648,4.965049123957177,0.0
2649,6.038894099465895,0.0
2650,5.427423146541747,0.0
2651,5.714570340218219,0.0
2652,5.551225909173773,0.0
2653,5.821461014268755,0.0
2654,6.0005961304351665,0.0
2655,5.947826508762254,0.0
2656,5.071145398763983,0.0
2657,6.1689466505733135,0.0
2658,5.985469205484341,0.0
2659,5.789698753410408,0.0
2660,6.096221765924336,0.0
2661,6.1766031179716245,0.0
2662,4.748990063377864,0.0
2663,5.460599407656527,0.0
2664,5.7221454677825125,0.0
2665,5.840372451558204,0.0
2666,5.787815598750007,0.0
2667,5.786888418372362,0.0
2668,5.668971796249592,0.0
2669,4.919335336927962,0.0
2670,4.996433188213297,0.0
2671,5.2088721709531685,0.0
2672,5.8985525039785225,0.0
2673,5.488930051819942,0.0
2674,5.575584830028441,0.0
2675,6.626611024056205,0.0
2676,5.205174561859656,0.0
2677,6.255680514810531,0.0
2678,5.093534707802059,0.0
2679,5.771898219598241,0.0
2680,5.004778895558341,0.0
2681,5.705203450477138,0.0
2682,5.232132646706307,0.0
2683,5.317653123315812,0.0
2684,5.6106044284361944,0.0
2685,5.8687366106394165,0.0
2686,6.070742363738487,0.0
2687,5.578343807141249,0.0
2688,6.06813408554442,0.0
2689,5.558629418882665,0.0
2690,5.890712848823868,0.0
2691,5.92964529234255,0.0
2692,5.675161950198388,0.0
2693,5.904992126935793,0.0
2694,6.835200846637003,0.0
2695,5.269472538936855,0.0
2696,5.6626357783916195,0.0
2697,6.385243991304625,0.0
2698,5.89157020935804,0.0
2699,6.017317717853573,0.0
2700,4.891496927676032,0.0
2701,6.240005484682736,0.0
2702,6.373992481227724,0.0
2703,7.421375326833429,0.0
2704,7.26685880087651,0.0
2705,8.266793006920457,0.0
2706,9.938248971983207,0.0
2707,11.307531403923763,0.0
2708,11.131891764555842,0.0
2709,12.881567213895764,0.0
2710,13.623462280929726,0.0
2711,12.48903313445162,0.0
2712,11.930606136388157,0.0
2713,10.814177356054348,0.0
2714,8.818075930643861,0.0
2715,6.15251102974349,0.0
2716,4.672327807735564,0.0
2717,3.7005353317504,0.0
2718,2.84284837041098,0.0
2719,3.434123543066476,0.0
2720,3.84387024960883,0.0
2721,4.358629825531621,0.0
2722,5.649116552011278,0.0
2723,7.129606263354805,0.0
2724,6.8132736367869065,0.0
2725,6.938734650035844,0.0
2726,8.258457418407849,0.0
2727,7.0419455026235624,0.0
2728,5.599764675422818,0.0
2729,6.490234329157497,0.0
2730,5.460934366508147,0.0
2731,4.518195075288039,0.0
2732,4.60549413469439,0.0
2733,4.237600656156372,0.0
2734,6.246077954385684,0.0
2735,6.676943036210541,0.0
2736,5.323694053159537,0.0
2737,4.818476715544486,0.0
2738,5.30737399677713,0.0
2739,5.874370138789165,0.0
2740,6.49833240158314,0.0
2741,5.694400847856623,0.0
2742,6.449827981816412,0.0
2743,5.451313472644682,0.0
2744,5.658371873056308,0.0
2745,5.32634034812302,0.0
2746,5.496356912969428,0.0
2747,5.199075115807913,0.0
2748,6.111141499060986,0.0
2749,5.628779541980063,0.0
2750,5.98070760549213,0.0
2751,6.858311136279747,0.0
2752,5.908897987241386,0.0
2753,6.08862383541086,0.0
2754,6.780437625619887,0.0
2755,5.275812490157586,0.0
2756,6.184637064240438,0.0
2757,6.017351366874121,0.0
2758,5.673096081752458,0.0
2759,6.153235767189031,0.0
2760,6.182166062424987,0.0
2761,5.392110101675737,0.0
2762,6.517135623275873,0.0
2763,6.186404896700306,0.0
2764,5.629453541192922,0.0
2765,5.922758314123971,0.0
2766,5.419446181085151,0.0
2767,5.827480924876,0.0
2768,6.212605575314037,0.0
2769,6.707654417230258,0.0
2770,6.0198015513222165,0.0
2771,5.951255226681039,0.0
2772,5.58737066816899,0.0
2773,5.658292356881451,0.0
2774,6.444273025100316,0.0
2775,5.929620399995315,0.0
2776,5.70243248945953,0.0
2777,5.260128968142871,0.0
2778,5.830009811100308,0.0
2779,5.797231387843415,0.0
2780,5.60985533337052,0.0
2781,5.291758506615145,0.0
2782,6.122100518873796,0.0
2783,6.182876157892821,0.0
2784,5.900230202876932,0.0
2785,5.423912488830721,0.0
2786,6.191120411194819,0.0
2787,5.407735772282413,0.0
2788,5.076707605342189,0.0
2789,7.247201525313409,0.0
2790,6.093551009381541,0.0
2791,5.0953209694160515,0.0
2792,6.086129500757845,0.0
2793,5.874944511639596,0.0
2794,6.148682196692779,0.0
2795,6.4134073202172805,0.0
2796,5.621327743214456,0.0
2797,6.137630975128333,0.0
2798,6.097491653862066,0.0
2799,6.385710525051966,0.0
2800,6.4265311680775925,0.0
2801,6.3732601271560245,0.0
2802,5.829051896171317,0.0
2803,6.540769450269507,0.0
2804,9.429522421299893,0.0
2805,8.717196425425499,0.0
2806,8.74913140899642,0.0
2807,11.281161869539375,0.0
2808,11.366018528713353,0.0
2809,12.90975472086659,0.0
2810,12.18902018633321,0.0
2811,13.065301532290754,0.0
2812,11.6438000269537,0.0
2813,10.222959235116601,0.0
2814,8.397328068040348,0.0
2815,7.344828074250951,0.0
2816,5.697995706344824,0.0
2817,3.948816893030733,0.0
2818,3.100790000345118,0.0
2819,3.0514569949982073,0.0
2820,3.4992522646029576,0.0
2821,4.295925956801315,0.0
2822,5.902623493718677,0.0
2823,5.867978722486361,0.0
2824,7.195843181844346,0.0
2825,7.944527014168749,0.0
2826,6.931022455925339,0.0
2827,7.591575689630483,0.0
2828,6.472978145582994,0.0
2829,6.859192712514682,0.0
2830,5.756101761006923,0.0
2831,5.143321663522321,0.0
2832,5.024787160209206,0.0
2833,5.883295235203921,0.0
2834,5.86172651303812,0.0
2835,6.036988741544629,0.0
2836,6.098553955754559,0.0
2837,6.232597257368919,0.0
2838,6.211761362029867,0.0
2839,6.763239999975286,0.0
2840,6.91480632387502,0.0
2841,5.754285039777235,0.0
2842,5.756423825449926,0.0
2843,7.068440448781489,0.0
2844,5.518963185133464,0.0
2845,6.479611359342657,0.0
2846,6.241587840961161,0.0
2847,5.080494136079935,0.0
2848,5.643186893412994,0.0
2849,5.56651059689082,0.0
2850,6.098921910364871,0.0
2851,6.789766369818575,0.0
2852,5.795183005741001,0.0
2853,6.585562476990934,0.0
2854,5.669840808093326,0.0
2855,5.719747960619295,0.0
2856,6.449181332238045,0.0
2857,5.5648236130128135,0.0
2858,6.942300467355969,0.0
2859,5.9635591375854125,0.0
2860,5.935842908895669,0.0
2861,5.9840573622525435,0.0
2862,5.059871559047232,0.0
2863,5.822809762714839,0.0
2864,6.436314811987653,0.0
2865,5.532776407992886,0.0
2866,5.5808451765426215,0.0
2867,5.940270788075533,0.0
2868,5.2679513447599735,0.0
2869,6.337839301497295,0.0
2870,6.577343112356073,0.0
2871,5.23868401783864,0.0
2872,6.341046530473365,0.0
2873,5.678775068386653,0.0
2874,5.79195721894731,0.0
2875,6.295629855103597,0.0
2876,6.327111527045081,0.0
2877,6.149969027352827,0.0
2878,5.268853963806394,0.0
2879,5.678118474355361,0.0
2880,5.909399624560487,0.0
2881,6.176846686474738,0.0
2882,5.530862262929858,0.0
2883,5.916981941992221,0.0
2884,6.306416094082048,0.0
2885,5.814678038120244,0.0
2886,6.094319993662922,0.0
2887,5.816719759456992,0.0
2888,6.33906063992994,0.0
2889,6.1144807824626035,0.0
2890,6.03918807161506,0.0
2891,5.837625008869732,0.0
2892,6.180395700567642,0.0
2893,6.209185533060076,0.0
2894,6.33248062870965,0.0
2895,6.459675669883647,0.0
2896,6.669613742624839,0.0
2897,6.316636352467501,0.0
2898,6.0269807522590275,0.0
2899,5.7281000923389955,0.0
2900,6.143846843433412,0.0
2901,6.740880343575558,0.0
2902,6.191170668958965,0.0
2903,6.814063403301449,0.0
2904,7.761743085823442,0.0
2905,8.852931506843987,0.0
2906,9.416509702795036,0.0
2907,10.673868857836625,0.0
2908,12.389900106551057,0.0
2909,12.804642698061656,0.0
2910,12.28387079421903,0.0
2911,13.777979958134285,0.0
2912,11.691416810923979,0.0
2913,10.03957106482992,0.0
2914,7.698614408793177,0.0
2915,7.033922731509038,0.0
2916,5.575528287444789,0.0
2917,4.937273407757115,0.0
2918,3.53713208423022,0.0
2919,2.874391307102462,0.0
2920,3.3403313732672997,0.0
2921,3.8057220052036937,0.0
2922,5.42136071020957,0.0
2923,6.384189189932715,0.0
2924,6.648440502887101,0.0
2925,8.073744168926197,0.0
2926,6.953803335993765,0.0
2927,5.942621840959701,0.0
2928,6.656627524282956,0.0
2929,6.495453983403757,0.0
2930,6.441639756528309,0.0
2931,4.836427072650342,0.0
2932,5.594925119288362,0.0
2933,5.333076766356132,0.0
2934,6.61305819768211,0.0
2935,6.265095592621023,0.0
2936,6.852137804655954,0.0
2937,6.290553404480101,0.0
2938,6.508025921363585,0.0
2939,6.226266942560655,0.0
2940,5.650993673543278,0.0
2941,6.668955653731138,0.0
2942,6.314669200108813,0.0
2943,5.610852983469388,0.0
2944,7.115614233911151,0.0
2945,5.368793360505711,0.0
2946,5.815290807977242,0.0
2947,5.694440774158568,0.0
2948,6.055789075753198,0.0
2949,5.846337326573374,0.0
2950,5.655207023400144,0.0
2951,6.2543106660512695,0.0
2952,6.542402611036304,0.0
2953,5.889559077955019,0.0
2954,6.072961194224623,0.0
2955,7.140572785836431,0.0
2956,6.155622834711003,0.0
2957,5.942843096580527,0.0
2958,6.048701362296145,0.0
2959,6.8508432631061895,0.0
2960,5.425440107976267,0.0
2961,5.8853351278201504,0.0
2962,6.393297336813422,0.0
2963,6.131124569884537,0.0
2964,6.091510199694373,0.0
2965,6.92945995918061,0.0
2966,6.262992038377448,0.0
2967,6.955516221859353,0.0
2968,6.031794784898834,0.0
2969,6.3883842345306725,0.0
2970,5.493028812534878,0.0
2971,6.497801551619086,0.0
2972,5.480741363727316,0.0
2973,6.003214790943991,0.0
2974,6.310590511436311,0.0
2975,6.243851937681443,0.0
2976,5.955821228603881,0.0
2977,6.415505510766462,0.0
2978,5.50421381401735,0.0
2979,6.086077695039925,0.0
2980,6.6372501979882275,0.0
2981,5.998477360603645,0.0
2982,5.978109278596734,0.0
2983,6.2343444295119275,0.0
2984,7.2123556353833775,0.0
2985,5.497381480185547,0.0
2986,5.642081256811061,0.0
2987,5.842351985782007,0.0
2988,6.658779228124698,0.0
2989,7.494601594723949,0.0
2990,6.37743884676243,0.0
2991,6.674855062051321,0.0
2992,5.902391705701528,0.0
2993,5.70523029778323,0.0
2994,5.950909719354694,0.0
2995,5.873308296985552,0.0
2996,6.38044043340672,0.0
2997,5.932787435885488,0.0
2998,5.52213743623619,0.0
2999,6.169966394724908,0.0
3000,6.446705259424165,0.0
3001,6.144664673718401,0.0
3002,7.239745173931721,0.0
3003,6.974595748013961,0.0
3004,7.8700421173971025,0.0
3005,8.621992459970137,0.0
3006,9.831008605082172,0.0
3007,10.75489804249176,0.0
3008,12.61510220053368,0.0
3009,12.74598655445098,0.0
3010,12.96239970874939,0.0
3011,13.479319031531757,0.0
3012,13.092768831882697,0.0
3013,10.798129852558443,0.0
3014,9.286573056288487,0.0
3015,7.040654897901186,0.0
3016,5.021534194422484,0.0
3017,3.9262845722433215,0.0
3018,3.139157477693819,0.0
3019,3.0760565074698625,0.0
3020,3.2505783689035943,0.0
3021,4.10223101360843,0.0
3022,5.611962614798523,0.0
3023,6.689401161660219,0.0
3024,7.148758643279817,0.0
3025,7.6524900607096775,0.0
3026,7.729001578296289,0.0
3027,7.50486389814273,0.0
3028,6.286713421915941,0.0
3029,6.390159348924545,0.0
3030,5.941211345533155,0.0
3031,5.351984147150526,0.0
3032,5.741464749310487,0.0
3033,5.949073069466332,0.0
3034,6.486598976203726,0.0
3035,6.511413556839391,0.0
3036,6.673755331931995,0.0
3037,6.908293042441401,0.0
3038,5.9056445046805335,0.0
3039,6.66991581202934,0.0
3040,5.6586024540721604,0.0
3041,6.246002212148154,0.0
3042,5.769049049636166,0.0
3043,6.453653342101914,0.0
3044,5.897244390489123,0.0
3045,6.172354517385045,0.0
3046,6.472221014787396,0.0
3047,6.326137442169067,0.0
3048,6.031693416753079,0.0
3049,6.599310759360304,0.0
3050,5.372500271957479,0.0
3051,6.152885408886556,0.0
3052,5.823535078728713,0.0
3053,6.9518090900642076,0.0
3054,5.529436190124963,0.0
3055,6.359655782078758,0.0
3056,5.7050197106896325,0.0
3057,5.572816547591849,0.0
3058,6.336373055282142,0.0
3059,7.34945445900074,0.0
3060,6.849475651667929,0.0
3061,6.839028782205815,0.0
3062,6.222393345496767,0.0
3063,6.792004060510955,0.0
3064,6.499536443305441,0.0
3065,6.378073430203467,0.0
3066,7.326458493547911,0.0
3067,6.5160162556792764,0.0
3068,7.1675899148851485,0.0
3069,6.482284170021195,0.0
3070,6.755388741426102,0.0
3071,5.326361177161342,0.0
3072,5.314083809408997,0.0
3073,6.636219893140358,0.0
3074,6.036913278232176,0.0
3075,6.635072152371384,0.0
3076,5.9183639554782275,0.0
3077,6.43184173599826,0.0
3078,5.004784929616913,0.0
3079,6.3684678731850966,0.0
3080,6.097166253249255,0.0
3081,5.791823856083164,0.0
3082,6.3699677714712255,0.0
3083,5.231413158811085,0.0
3084,5.626407012812605,0.0
3085,6.134611179491927,0.0
3086,6.775549305478461,0.0
3087,5.852828306875385,0.0
3088,6.466557950343533,0.0
3089,6.277959141619154,0.0
3090,7.170992310138809,0.0
3091,6.115374722274643,0.0
3092,6.453546967127681,0.0
3093,6.226630083662332,0.0
3094,5.968578753466556,0.0
3095,6.47470444001182,0.0
3096,5.976017443731652,0.0
3097,7.316277830790876,0.0
3098,6.497876407276708,0.0
3099,5.958448303564499,0.0
3100,5.826443549677657,0.0
3101,6.794492944194184,0.0
3102,8.151891031495303,0.0
3103,7.686766361246665,0.0
3104,7.9180550132936816,0.0
3105,9.734649912584658,0.0
3106,9.795498177519757,0.0
3107,10.91896465342068,0.0
3108,11.922801696532243,0.0
3109,12.74117682590544,0.0
3110,12.659485668525605,0.0
3111,12.544615204538356,0.0
3112,13.242220366675085,0.0
3113,10.695880100211799,0.0
3114,8.781095535618292,0.0
3115,7.958304190146256,0.0
3116,5.854089371115199,0.0
3117,3.9703916118121154,0.0
3118,3.861715808379661,0.0
3119,3.1195658274846085,0.0
3120,3.948620279817003,0.0
3121,3.733097658982393,0.0
3122,6.015446366207694,0.0
3123,6.640317224815829,0.0
3124,7.030943268476813,0.0
3125,7.639756320300745,0.0
3126,7.974059216121628,0.0
3127,7.205631300373042,0.0
3128,7.323625713208786,0.0
3129,6.952938394087466,0.0
3130,6.470082007172547,0.0
3131,5.672739997651735,0.0
3132,5.106688740566801,0.0
3133,6.343056777956286,0.0
3134,5.555256138254769,0.0
3135,6.656284127117402,0.0
3136,6.340563267748184,0.0
3137,6.535598924467444,0.0
3138,6.613311495888704,0.0
3139,6.905256173712719,0.0
3140,6.305875871589132,0.0
3141,6.427083287026049,0.0
3142,6.676423182190612,0.0
3143,6.451387832155212,0.0
3144,6.62075734450701,0.0
3145,7.621948989069875,0.0
3146,5.870148041312335,0.0
3147,6.957817586218905,0.0
3148,6.480697891161924,0.0
3149,6.452772605320654,0.0
3150,7.040055537286068,0.0
3151,6.9283524503204035,0.0
3152,6.891176012737529,0.0
3153,5.781510135533802,0.0
3154,5.556634349170377,0.0
3155,7.059777637060177,0.0
3156,6.322137446204185,0.0
3157,6.471036710121874,0.0
3158,6.527846349725988,0.0
3159,6.882168107143169,0.0
3160,6.5841461329514,0.0
3161,7.8740101036125845,0.0
3162,6.019500465243545,0.0
3163,5.982805658562966,0.0
3164,6.575066707476179,0.0
3165,6.485552381425673,0.0
3166,6.455827212538895,0.0
3167,7.004960034879846,0.0
3168,7.132009116454368,0.0
3169,5.793761862573526,0.0
3170,6.471569744124473,0.0
3171,6.692943466589616,0.0
3172,7.048856183348143,0.0
3173,6.013525715987021,0.0
3174,6.630272631984997,0.0
3175,6.300571300700196,0.0
3176,6.186863529428684,0.0
3177,6.856202779976804,0.0
3178,5.887456974611437,0.0
3179,5.805471875182366,0.0
3180,7.537852949058768,0.0
3181,6.114571545626002,0.0
3182,6.031623101760309,0.0
3183,6.16409944226315,0.0
3184,6.955079115008635,0.0
3185,6.078232195220602,0.0
3186,4.969755308315753,0.0
3187,6.732440649609446,0.0
3188,6.565636187058276,0.0
3189,6.892377514916745,0.0
3190,6.935207734053379,0.0
3191,6.858756476135968,0.0
3192,6.672724655877114,0.0
3193,4.928880565363283,0.0
3194,6.957275453786489,0.0
3195,5.888643441051718,0.0
3196,6.877286235427049,0.0
3197,6.7796941698347455,0.0
3198,6.873117670501578,0.0
3199,6.67413500161447,0.0
3200,7.964635835640178,0.0
3201,6.478638789669941,0.0
3202,7.0681220296491105,0.0
3203,6.053123191154511,0.0
3204,8.71344078327181,0.0
3205,9.737434207869002,0.0
3206,10.185744531229565,0.0
3207,11.66610756132441,0.0
3208,12.241634865521094,0.0
3209,13.532014314686696,0.0
3210,14.350149840001109,0.0
3211,12.506272266911548,0.0
3212,12.307618454126615,0.0
3213,11.71807105554069,0.0
3214,8.585818067531198,0.0
3215,7.85190774757072,0.0
3216,6.6320431427025825,0.0
3217,5.134426714923231,0.0
3218,3.375041274429514,0.0
3219,2.8862225463189914,0.0
3220,3.5148445698707205,0.0
3221,4.607810251504045,0.0
3222,6.4019124894400345,0.0
3223,6.607914736449445,0.0
3224,8.912106501979551,0.0
3225,7.60367882588554,0.0
3226,8.788722409903151,0.0
3227,7.5487940363876005,0.0
3228,7.212170244837318,0.0
3229,6.202366727910747,0.0
3230,5.458895736252165,0.0
3231,5.6789338019458215,0.0
3232,4.814557939842107,0.0
3233,5.490931337512211,0.0
3234,6.102220652868611,0.0
3235,6.296510251345745,0.0
3236,6.857270343381346,0.0
3237,6.646167349847833,0.0
3238,7.279681746998598,0.0
3239,5.7319166974653415,0.0
3240,5.998805501462988,0.0
3241,6.525351156177267,0.0
3242,6.082143675789598,0.0
3243,5.581383207016729,0.0
3244,6.227938628371946,0.0
3245,6.326621027122284,0.0
3246,6.688893308000787,0.0
3247,5.423064620927842,0.0
3248,7.384598896912607,0.0
3249,6.306514529243996,0.0
3250,6.1286852623390375,0.0
3251,7.728736882998063,0.0
3252,6.367560235926026,0.0
3253,6.3000720252671805,0.0
3254,5.5231203043749595,0.0
3255,6.493319839280792,0.0
3256,6.141656058600402,0.0
3257,6.3023669494552745,0.0
3258,6.608092915957308,0.0
3259,6.641708362696586,0.0
3260,6.380995822706568,0.0
3261,6.715296051072614,0.0
3262,6.748184925388061,0.0
3263,6.137793840516019,0.0
3264,6.2749556055895495,0.0
3265,6.555232765101246,0.0
3266,6.846859134569776,0.0
3267,5.986803874750191,0.0
3268,7.041905249938831,0.0
3269,6.187657920017217,0.0
3270,6.737608869208432,0.0
3271,6.4587719694885966,0.0
3272,7.121408632830724,0.0
3273,7.035072506039149,0.0
3274,6.24980621634977,0.0
3275,6.764369245436013,0.0
3276,6.93167540369769,0.0
3277,5.249614892191317,0.0
3278,7.327245764499995,0.0
3279,5.76061999159791,0.0
3280,6.52252666972275,0.0
3281,6.487205029597103,0.0
3282,6.77631195119703,0.0
3283,6.341116767050019,0.0
3284,6.0821542459288125,0.0
3285,6.813443866409849,0.0
3286,6.40883917052554,0.0
3287,5.770782760963582,0.0
3288,7.234102495411119,0.0
3289,6.12979263670049,0.0
3290,6.960298344382462,0.0
3291,6.701143526721306,0.0
3292,6.224625715071583,0.0
3293,6.7642127747341885,0.0
3294,6.515696178420812,0.0
3295,6.241560993960478,0.0
3296,6.326624173084609,0.0
3297,5.863283968892339,0.0
3298,6.4301362020320765,0.0
3299,7.116045706386507,0.0
3300,6.689276088523012,0.0
3301,6.560470671979421,0.0
3302,6.17280684891644,0.0
3303,7.38973919849067,0.0
3304,9.417604367775276,0.0
3305,9.044118683810696,0.0
3306,8.77778245560411,0.0
3307,10.395606590114113,0.0
3308,12.440002301473264,0.0
3309,12.971604419642775,0.0
3310,12.843603522359999,0.0
3311,13.448345570198452,0.0
3312,12.189134229476394,0.0
3313,10.923671861842468,0.0
3314,9.362930656698715,0.0
3315,7.51074773386121,0.0
3316,5.883425400809812,0.0
3317,4.7720181107578075,0.0
3318,4.587978795878147,0.0
3319,3.9530958074435594,0.0
3320,4.2227740210872104,0.0
3321,4.314594475355736,0.0
3322,5.2526945514555585,0.0
3323,7.567617678997794,0.0
3324,7.345639052232986,0.0
3325,8.68515886823201,0.0
3326,7.478345703338254,0.0
3327,7.952766985221845,0.0
3328,7.485172793580592,0.0
3329,6.803371615146514,0.0
3330,5.707697971170589,0.0
3331,6.552233180348245,0.0
3332,5.039499610016471,0.0
3333,5.964834076479178,0.0
3334,5.741987850677389,0.0
3335,5.992003406821749,0.0
3336,6.239723771369204,0.0
3337,6.979544339196206,0.0
3338,6.5107318642853675,0.0
3339,7.2595214417390554,0.0
3340,6.906682434254158,0.0
3341,6.4864937526923745,0.0
3342,6.415756015320024,0.0
3343,6.138257240631208,0.0
3344,5.462754348780496,0.0
3345,5.684035609876524,0.0
3346,6.420913443887138,0.0
3347,6.170675699176812,0.0
3348,7.105382375324458,0.0
3349,6.023815755458611,0.0
3350,6.8554509137305155,0.0
3351,6.873483799659974,0.0
3352,5.130169515917308,0.0
3353,6.641535631759675,0.0
3354,6.144633801235853,0.0
3355,6.438809558317973,0.0
3356,6.243985453481996,0.0
3357,6.931018639716871,0.0
3358,6.796338538001301,0.0
3359,6.26374216636602,0.0
3360,7.417799816765845,0.0
3361,5.68244662020119,0.0
3362,5.975770553965715,0.0
3363,6.709828304581609,0.0
3364,6.725726473589908,0.0
3365,6.755383019763128,0.0
3366,6.468627655559015,0.0
3367,6.643041492905656,0.0
3368,6.0650741057481765,0.0
3369,6.733716139735113,0.0
3370,5.55962220052891,0.0
3371,7.194794925395391,0.0
3372,6.426583939402618,0.0
3373,6.5976854846668544,0.0
3374,7.394028752607422,0.0
3375,6.700278767180524,0.0
3376,5.958789494867776,0.0
3377,7.853420975328631,0.0
3378,6.611315553961737,0.0
3379,6.452641107012999,0.0
3380,6.718358945056436,0.0
3381,6.428970079158014,0.0
3382,6.643637531519529,0.0
3383,7.022788203032704,0.0
3384,5.635478145884805,0.0
3385,7.61780931485493,0.0
3386,6.817964615953935,0.0
3387,6.2867879368730994,0.0
3388,6.994175340708239,0.0
3389,7.523220589290818,0.0
3390,6.548730396573256,0.0
3391,6.238906905715193,0.0
3392,6.074411464040594,0.0
3393,6.490896957654669,0.0
3394,6.032768955775321,0.0
3395,6.827420722978296,0.0
3396,6.498915537201088,0.0
3397,6.358645302904069,0.0
3398,6.796777947942752,0.0
3399,5.986441379104166,0.0
3400,5.981291389599028,0.0
3401,6.922826163201961,0.0
3402,6.9446723565598125,0.0
3403,7.988857328293875,0.0
3404,9.553508620583697,0.0
3405,9.341041046046186,0.0
3406,9.098153974825195,0.0
3407,11.903815011183232,0.0
3408,12.589194809471486,0.0
3409,13.109259400899855,0.0
3410,14.271115843272632,0.0
3411,14.356546158907992,0.0
3412,12.235831979422342,0.0
3413,10.85581346612492,0.0
3414,9.585263831811226,0.0
3415,7.49794495178945,0.0
3416,6.383703460904135,0.0
3417,5.0233882393642375,0.0
3418,5.003280397250935,0.0
3419,3.594663405382661,0.0
3420,4.401435446162084,0.0
3421,4.813400830344414,0.0
3422,6.679732165832824,0.0
3423,6.941573173648544,0.0
3424,7.621253589160948,0.0
3425,8.121220474056532,0.0
3426,7.5153826595959865,0.0
3427,8.139797913616697,0.0
3428,7.360564982073381,0.0
3429,6.7836050144761115,0.0
3430,5.663111538640386,0.0
3431,5.689197224180476,0.0
3432,6.442046602376628,0.0
3433,5.693507151071898,0.0
3434,7.14296414659837,0.0
3435,6.880254051351914,0.0
3436,5.868885069151368,0.0
3437,6.826327711395198,0.0
3438,6.589237321988655,0.0
3439,6.995106087432458,0.0
3440,7.217564218486615,0.0
3441,6.834071580325735,0.0
3442,6.121369626601334,0.0
3443,6.37679293269609,0.0
3444,7.361478467743526,0.0
3445,6.098208098053992,0.0
3446,6.819135974564594,0.0
3447,5.901845214141342,0.0
3448,7.1565572335429035,0.0
3449,6.9323406399596275,0.0
3450,7.470286388851354,0.0
3451,6.618853798687571,0.0
3452,6.92456193863801,0.0
3453,6.900986982713919,0.0
3454,7.233736572654657,0.0
3455,6.498545254344409,0.0
3456,6.592102098220143,0.0
3457,6.368116098466432,0.0
3458,6.555783987117845,0.0
3459,6.34063103786787,0.0
3460,6.558004671653731,0.0
3461,6.598086906465019,0.0
3462,6.722071568153527,0.0
3463,6.755443216955326,0.0
3464,6.34091390161673,0.0
3465,6.76188132757917,0.0
3466,7.158205595423574,0.0
3467,7.631556109613912,0.0
3468,7.554633524995166,0.0
3469,6.60150328002264,0.0
3470,6.976482898656873,0.0
3471,7.114201315702831,0.0
3472,7.051346874658003,0.0
3473,6.331124902101023,0.0
3474,6.2221332473610005,0.0
3475,7.427118620217258,0.0
3476,7.303577066085283,0.0
3477,6.617657509421178,0.0
3478,6.813935543308391,0.0
3479,6.609302471442648,0.0
3480,6.969707368466324,0.0
3481,7.055589873997241,0.0
3482,7.100531474921347,0.0
3483,7.532514813810348,0.0
3484,7.212163648365695,0.0
3485,6.616127251958878,0.0
3486,6.5922100054111095,0.0
3487,6.354514028975984,0.0
3488,6.99146386003099,0.0
3489,6.824540912777252,0.0
3490,7.0077457931055145,0.0
3491,7.238967493406361,0.0
3492,6.339411405545653,0.0
3493,7.843911814016799,0.0
3494,7.034742171132463,0.0
3495,6.731103139255908,0.0
3496,7.081808259200347,0.0
3497,7.422460753731805,0.0
3498,7.661321071219356,0.0
3499,7.117068879468934,0.0
3500,7.003201749459655,0.0
3501,7.475705237678406,0.0
3502,7.167308464335227,0.0
3503,8.046323820875696,0.0
3504,8.94364219910971,0.0
3505,8.793554429749815,0.0
3506,9.78223495283636,0.0
3507,11.886578145589677,0.0
3508,13.23539197014454,0.0
3509,13.585550364384611,0.0
3510,13.058303301417492,0.0
3511,12.846282323601901,0.0
3512,12.614895885848453,0.0
3513,11.846348855953561,0.0
3514,10.340740478401031,0.0
3515,8.269496853417095,0.0
3516,5.917156499378702,0.0
3517,4.68418051762429,0.0
3518,3.8219816656165224,0.0
3519,3.5846473856420875,0.0
3520,3.452334419387751,0.0
3521,4.687551723732813,0.0
3522,5.408761878108124,0.0
3523,6.646957260519107,0.0
3524,6.937207201284435,0.0
3525,8.813054694115518,0.0
3526,8.273532972989857,0.0
3527,8.832357173236703,0.0
3528,8.410679849677003,0.0
3529,6.938819184835737,0.0
3530,6.256923133658427,0.0
3531,6.216516488257807,0.0
3532,5.082683582645236,0.0
3533,6.093453357863641,0.0
3534,6.184038577311371,0.0
3535,6.455412744943306,0.0
3536,6.533678784277018,0.0
3537,7.413340192066726,0.0
3538,7.5976598361841665,0.0
3539,6.4111694279270015,0.0
3540,7.175977947490419,0.0
3541,6.541507400671577,0.0
3542,7.054702384472695,0.0
3543,7.884421521080127,0.0
3544,6.909944234220151,0.0
3545,6.498679850067865,0.0
3546,6.257589461543184,0.0
3547,6.5288262679266404,0.0
3548,8.55766465573658,0.0
3549,6.933267038957638,0.0
3550,6.702152102202123,0.0
3551,6.5002629115819355,0.0
3552,5.94186970858072,0.0
3553,7.4666439687697395,0.0
3554,6.074844132182601,0.0
3555,6.811286118376417,0.0
3556,5.460368615706034,0.0
3557,6.674571561502872,0.0
3558,6.368871346831134,0.0
3559,7.150017552781282,0.0
3560,6.57810828652838,0.0
3561,7.37115526871713,0.0
3562,6.916445891348594,0.0
3563,7.383409295036277,0.0
3564,6.579579980331159,0.0
3565,7.4946059685213,0.0
3566,6.3870990419339435,0.0
3567,6.509560869225028,0.0
3568,7.4254505870964564,0.0
3569,6.266811946298106,0.0
3570,5.861138660760974,0.0
3571,6.498003125976416,0.0
3572,7.2927564827999065,0.0
3573,7.025768651575902,0.0
3574,6.896358253537294,0.0
3575,6.407400218547194,0.0
3576,7.491781696825627,0.0
3577,7.3200098321777745,0.0
3578,6.643183858866069,0.0
3579,6.689973438886539,0.0
3580,7.791635113430735,0.0
3581,6.651117105068898,0.0
3582,7.848523124007528,0.0
3583,6.99302754717611,0.0
3584,8.018896780298382,0.0
3585,6.812225225100415,0.0
3586,6.6739450778590435,0.0
3587,6.434557595932597,0.0
3588,7.36203366931083,0.0
3589,6.788407574907894,0.0
3590,6.661806963537435,0.0
3591,7.586799943252238,0.0
3592,6.112562959282891,0.0
3593,6.7443286488525755,0.0
3594,7.147384718016267,0.0
3595,7.019873195831904,0.0
3596,7.228418123347733,0.0
3597,7.438205638903813,0.0
3598,6.77522405423563,0.0
3599,6.426397050086937,0.0
3600,7.5926740627582365,0.0
3601,7.59058227768156,0.0
3602,7.1027222787979145,0.0
3603,7.740772419218327,0.0
3604,8.152278993133452,0.0
3605,9.304935234741343,0.0
3606,10.671806351233293,0.0
3607,11.395014472258069,0.0
3608,12.945585283614193,0.0
3609,13.442508166079183,0.0
3610,13.435094828209328,0.0
3611,13.324180107755513,0.0
3612,13.446165318269824,0.0
3613,11.753799590625949,0.0
3614,10.273801566476395,0.0
3615,7.312787087779938,0.0
3616,6.226243288755741,0.0
3617,4.705839551911668,0.0
3618,4.822449169956551,0.0
3619,3.101506503460494,0.0
3620,3.3465114555009374,0.0
3621,4.524021459350552,0.0
3622,6.927885251074351,0.0
3623,7.248253722614401,0.0
3624,7.911807717132734,0.0
3625,7.976263943842593,0.0
3626,8.034657681234245,0.0
3627,7.793341909063215,0.0
3628,6.693614977917553,0.0
3629,6.526009586996979,0.0
3630,6.115173061847782,0.0
3631,5.4334649346381045,0.0
3632,6.517491124918664,0.0
3633,5.548502269421475,0.0
3634,6.286408639994329,0.0
3635,6.542145103385352,0.0
3636,6.64767107594543,0.0
3637,7.92752935956086,0.0
3638,7.494200577005643,0.0
3639,7.960457798191749,0.0
3640,7.216561801820119,0.0
3641,6.88199386991957,0.0
3642,7.2572990105159025,0.0
3643,6.908536617393407,0.0
3644,6.653147463333184,0.0
3645,6.76994307408026,0.0
3646,6.708933080306233,0.0
3647,6.583801887215694,0.0
3648,6.90520419566411,0.0
3649,6.983725091868747,0.0
3650,6.440777229506069,0.0
3651,6.330087546958065,0.0
3652,6.884866135318436,0.0
3653,6.830945871890774,0.0
3654,7.4498604871167355,0.0
3655,7.393886204194094,0.0
3656,7.431281507354937,0.0
3657,6.320665280671798,0.0
3658,7.142718190306956,0.0
3659,7.038859283573357,0.0
3660,6.3704977561298275,0.0
3661,6.232314369819888,0.0
3662,6.427912644014079,0.0
3663,7.417006459443443,0.0
3664,6.355005443383849,0.0
3665,7.8282590743022045,0.0
3666,6.333634593475954,0.0
3667,6.599219870480401,0.0
3668,7.0961706929195625,0.0
3669,6.557772639657968,0.0
3670,7.842676425094709,0.0
3671,7.245959320796867,0.0
3672,7.976968638712535,0.0
3673,6.0897083750744105,0.0
3674,7.906149940590378,0.0
3675,7.686515488981322,0.0
3676,7.0421540055195715,0.0
3677,6.856378840450619,0.0
3678,7.652011613639437,0.0
3679,6.910635579078059,0.0
3680,6.33119181219334,0.0
3681,6.566064790533498,0.0
3682,7.540337521009605,0.0
3683,7.3256947100436385,0.0
3684,6.563526325675393,0.0
3685,7.079968007517388,0.0
3686,7.677990292766036,0.0
3687,7.653565457704041,0.0
3688,8.03534493138964,0.0
3689,6.466925474095241,0.0
3690,6.27214441431729,0.0
3691,6.6845951121748515,0.0
3692,6.620148423540113,0.0
3693,7.980867274957848,0.0
3694,6.263225632873156,0.0
3695,6.615258577380408,0.0
3696,6.723705295836925,0.0
3697,6.648096772537546,0.0
3698,7.839785834143381,0.0
3699,7.0194256509099215,0.0
3700,7.779926096789405,0.0
3701,7.231583553014598,0.0
3702,7.947620568973408,0.0
3703,8.074870260903463,0.0
3704,9.084814302153301,0.0
3705,9.314352686676068,0.0
3706,10.620139144096578,0.0
3707,10.337999277633106,0.0
3708,13.227975357898274,0.0
3709,13.220029519158475,0.0
3710,13.796254516213443,0.0
3711,14.544413186760877,0.0
3712,14.222414680192333,0.0
3713,11.704112126186898,0.0
3714,9.857163345694634,0.0
3715,8.16852415381948,0.0
3716,5.959006005085858,0.0
3717,5.731992945742823,0.0
3718,4.36561818346788,0.0
3719,3.9085554469727195,0.0
3720,5.0044752871767635,0.0
3721,5.768216733156239,0.0
3722,6.947303857648691,0.0
3723,7.042656141278446,0.0
3724,8.4136210133712,0.0
3725,8.74114701856934,0.0
3726,7.597203918474892,0.0
3727,8.23576452069343,0.0
3728,7.118450479868455,0.0
3729,7.761057364352974,0.0
3730,7.169897580403203,0.0
3731,5.241242087577641,0.0
3732,6.106992012133774,0.0
3733,6.127013523193638,0.0
3734,7.639291265164045,0.0
3735,7.83550018386385,0.0
3736,7.254529403896969,0.0
3737,7.255279070892997,0.0
3738,7.5592596327519495,0.0
3739,6.932254827262647,0.0
3740,7.339677934463446,0.0
3741,7.733810792715133,0.0
3742,7.399270630902275,0.0
3743,6.971026041708591,0.0
3744,7.225096271193332,0.0
3745,6.407818094220685,0.0
3746,6.774873096124474,0.0
3747,6.098271153952911,0.0
3748,7.224783043882188,0.0
3749,7.018232388472199,0.0
3750,6.994714396138918,0.0
3751,5.990130103585731,0.0
3752,6.99273838915623,0.0
3753,7.7080284865766355,0.0
3754,8.19967471017649,0.0
3755,6.981699604820342,0.0
3756,7.904702524568882,0.0
3757,7.453127412910169,0.0
3758,6.277576937720012,0.0
3759,7.030822138879509,0.0
3760,7.550318722798662,0.0
3761,7.090742750387453,0.0
3762,6.773130257125244,0.0
3763,7.530928745268138,0.0
3764,7.578615469156518,0.0
3765,7.741214621636109,0.0
3766,6.356028741794335,0.0
3767,6.703723726407147,0.0
3768,7.667065663479389,0.0
3769,7.349515952483246,0.0
3770,7.173196170602686,0.0
3771,6.494805250410568,0.0
3772,6.010322773624806,0.0
3773,7.121733553926549,0.0
3774,6.667127423243039,0.0
3775,5.965080515004714,0.0
3776,7.917722207079234,0.0
3777,6.569391125020643,0.0
3778,5.848536522547311,0.0
3779,7.678754759661498,0.0
3780,7.96057851984458,0.0
3781,6.377160310839238,0.0
3782,7.38933136550939,0.0
3783,6.801153162377857,0.0
3784,6.949201716391846,0.0
3785,8.095095666576064,0.0
3786,7.225718995542551,0.0
3787,7.1346276066008425,0.0
3788,7.009659434964551,0.0
3789,6.964925795128961,0.0
3790,6.856077205640113,0.0
3791,7.4836037055074565,0.0
3792,8.18348731350596,0.0
3793,6.379569333640608,0.0
3794,6.439398257522391,0.0
3795,7.944794298279579,0.0
3796,7.819899114903881,0.0
3797,6.579573967755593,0.0
3798,5.931904781638225,0.0
3799,6.382466707179514,0.0
3800,7.579718620666829,0.0
3801,7.631673573965913,0.0
3802,6.974508575935889,0.0
3803,7.7238242594555055,0.0
3804,8.574602362458279,0.0
3805,10.1712743072881,0.0
3806,10.64456939406464,0.0
3807,11.87625222882508,0.0
3808,12.57556048530764,0.0
3809,13.251310975387003,0.0
3810,13.492012217772462,0.0
3811,13.490545080206257,0.0
3812,12.566780388921565,0.0
3813,11.286102512065842,0.0
3814,10.83128962083462,0.0
3815,8.716023791512969,0.0
3816,7.003684948685691,0.0
3817,6.039487907828914,0.0
3818,4.722835841796996,0.0
3819,4.550518028890268,0.0
3820,4.752467964982405,0.0
3821,5.091146214264196,0.0
3822,5.4459366370589795,0.0
3823,7.06979294609178,0.0
3824,8.424032998323169,0.0
3825,7.793845356871912,0.0
3826,8.653316674071736,0.0
3827,7.096094902353956,0.0
3828,7.292459184811566,0.0
3829,6.9586699712993125,0.0
3830,6.3017265103638405,0.0
3831,6.408770273037282,0.0
3832,5.979988660969179,0.0
3833,6.7371904438754315,0.0
3834,7.193515415742208,0.0
3835,6.693073498068639,0.0
3836,6.925792238327811,0.0
3837,8.316245239319592,0.0
3838,7.83752807913123,0.0
3839,7.162527646256071,0.0
3840,6.848422333849328,0.0
3841,6.808724779091033,0.0
3842,7.168890937483004,0.0
3843,6.836784724832294,0.0
3844,7.278480493565573,0.0
3845,7.754895104018775,0.0
3846,7.106342376296389,0.0
3847,7.021832294646284,0.0
3848,7.232707339954593,0.0
3849,7.343366684046865,0.0
3850,7.488551032706743,0.0
3851,6.532853532516499,0.0
3852,7.130731558306313,0.0
3853,6.33353978129105,0.0
3854,7.18670593453273,0.0
3855,6.08212054312408,0.0
3856,7.925194011586408,0.0
3857,7.283632114736578,0.0
3858,7.318731082864407,0.0
3859,6.321640460269355,0.0
3860,7.339865351965952,0.0
3861,7.260785122158745,0.0
3862,6.406483827359501,0.0
3863,6.7814347002774324,0.0
3864,7.576817034181862,0.0
3865,7.709639424889601,0.0
3866,7.325651971148153,0.0
3867,7.188392070126547,0.0
3868,6.774087147452077,0.0
3869,7.154612154449652,0.0
3870,7.066581746187949,0.0
3871,6.460901835805356,0.0
3872,7.083340823041483,0.0
3873,5.712995108176568,0.0
3874,6.939442648347387,0.0
3875,7.753473338561266,0.0
3876,6.653386823513996,0.0
3877,6.641436350360509,0.0
3878,6.855121919385632,0.0
3879,6.9231537208925475,0.0
3880,7.862436935103518,0.0
3881,6.909225210423514,0.0
3882,6.8452828887744985,0.0
3883,7.323581141074814,0.0
3884,8.21593279464154,0.0
3885,7.13389824674857,0.0
3886,7.029353801764019,0.0
3887,7.466169728539954,0.0
3888,6.8536487052319135,0.0
3889,7.704728881109889,0.0
3890,7.142297984934472,0.0
3891,7.381115559715627,0.0
3892,6.17020862572306,0.0
3893,8.150718017753618,0.0
3894,7.127581887323921,0.0
3895,7.373489817329366,0.0
3896,6.31197579594648,0.0
3897,6.994817060353898,0.0
3898,6.602598561892567,0.0
3899,6.672736824468075,0.0
3900,7.71868954678183,0.0
3901,6.555311964061717,0.0
3902,7.641228412993671,0.0
3903,8.100154559736081,0.0
3904,8.540108537902817,0.0
3905,9.31323808850455,0.0
3906,11.468157734480648,0.0
3907,12.255446902165303,0.0
3908,13.657295447211467,0.0
3909,13.314545546314818,0.0
3910,14.565774129364407,0.0
3911,14.90912122560676,0.0
3912,13.76782508802334,0.0
3913,11.815256844943853,0.0
3914,10.797414617080403,0.0
3915,8.237079200806718,0.0
3916,6.4983045367246675,0.0
3917,5.210302271639676,0.0
3918,2.7667527120873614,0.0
3919,3.8111295852165257,0.0
3920,4.374344871043014,0.0
3921,5.642103453979646,0.0
3922,6.059664066346994,0.0
3923,8.288853889463681,0.0
3924,8.243113508905198,0.0
3925,8.974082299130636,0.0
3926,8.668066652067843,0.0
3927,8.03398390415617,0.0
3928,8.008822944402285,0.0
3929,8.071392891551373,0.0
3930,6.2826392749489255,0.0
3931,6.152293041600963,0.0
3932,5.9752951042307965,0.0
3933,6.518071441539788,0.0
3934,6.97708349032195,0.0
3935,7.402808598661887,0.0
3936,7.093095892854959,0.0
3937,8.051364814963097,0.0
3938,7.863954775130256,0.0
3939,7.131430149124138,0.0
3940,6.722891722802703,0.0
3941,6.812745374352915,0.0
3942,6.648724050196602,0.0
3943,7.525779811001896,0.0
3944,6.783703728559587,0.0
3945,7.660539482159438,0.0
3946,6.974821091896937,0.0
3947,7.716229293804885,0.0
3948,7.2790983289891455,0.0
3949,7.22115206327927,0.0
3950,8.33860355086943,0.0
3951,6.9951351562101,0.0
3952,6.261536883875086,0.0
3953,7.414896555207706,0.0
3954,6.9390044856459925,0.0
3955,7.321267828507901,0.0
3956,6.983495404691287,0.0
3957,8.037007868181131,0.0
3958,7.101486399178462,0.0
3959,6.651654655207215,0.0
3960,7.671120762082277,0.0
3961,7.098403248826589,0.0
3962,7.579878760039572,0.0
3963,7.422785061577964,0.0
3964,7.4676341043255094,0.0
3965,6.789541202357224,0.0
3966,7.183665688270641,0.0
3967,7.043444598159044,0.0
3968,7.6724028661908426,0.0
3969,7.037307113114724,0.0
3970,7.3725557212300625,0.0
3971,7.578535142921824,0.0
3972,7.102576355730353,0.0
3973,8.190172279689541,0.0
3974,6.706211876797974,0.0
3975,6.578581804147738,0.0
3976,7.626558488787735,0.0
3977,7.172842031472746,0.0
3978,7.589925885138293,0.0
3979,7.696631190786507,0.0
3980,7.452462032730927,0.0
3981,8.31399057929312,0.0
3982,7.015989220951256,0.0
3983,7.410769292753272,0.0
3984,7.168662185673826,0.0
3985,7.143296794523833,0.0
3986,7.019142019368895,0.0
3987,8.652998386583066,0.0
3988,6.366778152525602,0.0
3989,7.358475849611071,0.0
3990,8.22339050955849,0.0
3991,7.381076599523482,0.0
3992,7.65478594812359,0.0
3993,6.895659784945385,0.0
3994,7.586507772625332,0.0
3995,7.5360670312780265,0.0
3996,7.19106709048245,0.0
3997,7.73727437908021,0.0
3998,7.894801539336724,0.0
3999,7.188472122102185,0.0
4000,7.320391850864538,0.0
4001,8.236132040166586,0.0
4002,7.624068667199915,0.0
4003,8.786226313399258,0.0
4004,9.68910198370263,0.0
4005,10.123454900851696,0.0
4006,10.480533048474914,0.0
4007,12.753020147769405,0.0
4008,12.695615268004344,0.0
4009,14.57569128734323,0.0
4010,14.25098701922076,0.0
4011,14.388461786061871,0.0
4012,12.989898630877637,0.0
4013,12.393044506145722,0.0
4014,10.814988548798233,0.0
4015,8.51961811621265,0.0
4016,6.3436278994297455,0.0
4017,6.967705888451865,0.0
4018,4.121952796852119,0.0
4019,3.703782218380684,0.0
4020,4.273872368684634,0.0
4021,4.937556414168813,0.0
4022,8.114553147683155,0.0
4023,7.015436584935801,0.0
4024,9.58109351184181,0.0
4025,9.10930981539384,0.0
4026,9.139869722514867,0.0
4027,8.595614987548233,0.0
4028,8.443714069189753,0.0
4029,6.779329525713535,0.0
4030,7.16387871804469,0.0
4031,6.6987410211537775,0.0
4032,6.343317211448086,0.0
4033,6.165157300087218,0.0
4034,6.045442550083326,0.0
4035,7.26525175904803,0.0
4036,7.601093536070245,0.0
4037,8.302646775998454,0.0
4038,6.862802132838881,0.0
4039,8.295895109559297,0.0
4040,7.825342362161894,0.0
4041,8.031302223974143,0.0
4042,7.904687243243975,0.0
4043,6.980083479677685,0.0
4044,8.153449275744368,0.0
4045,7.3510082435678346,0.0
4046,7.366647482300344,0.0
4047,7.660263203309807,0.0
4048,7.102952242988469,0.0
4049,6.923774560284519,0.0
4050,6.934510629009575,0.0
4051,7.973156535248711,0.0
4052,7.753531103626662,0.0
4053,7.517858873663981,0.0
4054,7.229610236695369,0.0
4055,6.690699744560252,0.0
4056,8.158230537117417,0.0
4057,7.760229093108261,0.0
4058,7.7465747699941545,0.0
4059,7.220124957763015,0.0
4060,6.9909804931726685,0.0
4061,6.624204440107395,0.0
4062,6.56947526486475,0.0
4063,7.238700356930096,0.0
4064,7.0014534534839115,0.0
4065,8.982612620386517,0.0
4066,8.384240325657869,0.0
4067,7.189201867690218,0.0
4068,6.914789045446917,0.0
4069,7.229954099032369,0.0
4070,6.650344756553855,0.0
4071,7.734957667127506,0.0
4072,6.685325971290706,0.0
4073,6.566021272354415,0.0
4074,7.726662271621579,0.0
4075,8.193849687024583,0.0
4076,6.864316872014748,0.0
4077,7.604458173698741,0.0
4078,5.789863912857057,0.0
4079,7.037213896042191,0.0
4080,7.2851413147759665,0.0
4081,7.582345868734288,0.0
4082,6.7520226335422615,0.0
4083,7.388649369969022,0.0
4084,7.107015377372472,0.0
4085,6.767250605421464,0.0
4086,7.083967891078084,0.0
4087,7.3785315276587715,0.0
4088,7.950087801742168,0.0
4089,6.975588339251038,0.0
4090,7.393213758973733,0.0
4091,7.790933450086313,0.0
4092,6.466116129003891,0.0
4093,7.338529070012573,0.0
4094,7.189203083202519,0.0
4095,6.865163344919909,0.0
4096,5.904474890610328,0.0
4097,7.303217934533164,0.0
4098,7.751958050886012,0.0
4099,6.877944571753506,0.0
4100,7.25591005864247,0.0
4101,6.913005384371142,0.0
4102,7.0836960017843715,0.0
4103,9.410019837326725,0.0
4104,8.695335958703515,0.0
4105,10.127304150120908,0.0
4106,12.256970738914381,0.0
4107,12.204831353495388,0.0
4108,13.651043205129039,0.0
4109,13.668390060921903,0.0
4110,15.095267043291685,0.0
4111,14.335574115684594,0.0
4112,13.624104339142319,0.0
4113,12.020875626794231,0.0
4114,10.707630927361386,0.0
4115,8.565101307387621,0.0
4116,7.889536990270717,0.0
4117,5.450497284229799,0.0
4118,4.534999618082666,0.0
4119,4.19451803413895,0.0
4120,4.625964936668859,0.0
4121,5.092996622095608,0.0
4122,6.733052102527067,0.0
4123,6.945751044772843,0.0
4124,8.036932517293188,0.0
4125,9.630980171411027,0.0
4126,9.262196606450916,0.0
4127,8.385259517635408,0.0
4128,9.56056984511026,0.0
4129,7.146956543993361,0.0
4130,7.510279823849379,0.0
4131,6.651384053028925,0.0
4132,6.283135028785429,0.0
4133,5.905204539614671,0.0
4134,6.828792362237811,0.0
4135,6.619530051741354,0.0
4136,7.085464671392522,0.0
4137,7.926370308045932,0.0
4138,7.195179244903761,0.0
4139,7.26216929348995,0.0
4140,7.626294708225632,0.0
4141,7.256082216397208,0.0
4142,7.851244087198269,0.0
4143,6.632305884663345,0.0
4144,7.381162106120468,0.0
4145,6.728607309309703,0.0
4146,6.8863296411262045,0.0
4147,6.893926481004473,0.0
4148,7.496971862970963,0.0
4149,6.600752880136547,0.0
4150,8.187615547292461,0.0
4151,7.339728985477479,0.0
4152,6.449632665274139,0.0
4153,7.4732741652825005,0.0
4154,7.268394884719713,0.0
4155,7.765922951299342,0.0
4156,7.240112071402579,0.0
4157,7.130410399651204,0.0
4158,6.9021592336433955,0.0
4159,7.643392617306905,0.0
4160,7.986829434204931,0.0
4161,6.503414272863823,0.0
4162,6.51850173062737,0.0
4163,9.06306727158217,0.0
4164,7.801713466684311,0.0
4165,7.6310169281496485,0.0
4166,7.954184001605184,0.0
4167,7.465629526011799,0.0
4168,7.482752439948373,0.0
4169,7.93693493199183,0.0
4170,7.161510967964745,0.0
4171,6.1457051956680715,0.0
4172,7.223250134416145,0.0
4173,7.902650409139243,0.0
4174,7.578766308947362,0.0
4175,6.959731743148331,0.0
4176,7.559721967841264,0.0
4177,7.5255035938181924,0.0
4178,6.978039292971986,0.0
4179,7.505282992927429,0.0
4180,7.156551119159217,0.0
4181,7.3086290559565406,0.0
4182,7.424989533922828,0.0
4183,6.434967150565419,0.0
4184,7.486635523789269,0.0
4185,8.310682480106117,0.0
4186,7.138986186168845,0.0
4187,7.38431205668337,0.0
4188,7.648785376933126,0.0
4189,6.756961291118589,0.0
4190,6.743218476357612,0.0
4191,7.9433198277107415,0.0
4192,7.53537631139989,0.0
4193,6.793572442607323,0.0
4194,7.0886794226467025,0.0
4195,6.7914495304186735,0.0
4196,6.928483489243698,0.0
4197,6.679938222905859,0.0
4198,7.765960682680782,0.0
4199,7.043978525620153,0.0
4200,7.245880949431066,0.0
4201,7.549171786023826,0.0
4202,8.349690935970031,0.0
4203,8.01613206751626,0.0
4204,9.12637774528653,0.0
4205,9.96403881904316,0.0
4206,11.29406620746292,0.0
4207,11.868540851282583,0.0
4208,13.180948598113705,0.0
4209,13.97647571598765,0.0
4210,14.13268634495916,0.0
4211,14.23060307617234,0.0
4212,13.318711539181425,0.0
4213,11.594243573700869,0.0
4214,11.10247807076307,0.0
4215,9.66271686489025,0.0
4216,7.469421717280311,0.0
4217,5.59784691610582,0.0
4218,4.893830871391947,0.0
4219,4.503041211486489,0.0
4220,4.965036767856557,0.0
4221,6.085285672039606,0.0
4222,6.627553457234421,0.0
4223,7.464678313250615,0.0
4224,8.422368875113492,0.0
4225,8.844889817979944,0.0
4226,8.771514305587685,0.0
4227,8.707207224582195,0.0
4228,8.265657313973168,0.0
4229,7.139492998930465,0.0
4230,6.685297925539272,0.0
4231,6.768298881394321,0.0
4232,6.638918432041512,0.0
4233,6.285106400780538,0.0
4234,7.857556225929981,0.0
4235,6.652129203786305,0.0
4236,7.501837251974621,0.0
4237,7.913606294322764,0.0
4238,7.639840030375248,0.0
4239,7.422540822967927,0.0
4240,7.981654871071175,0.0
4241,7.5067613924347745,0.0
4242,6.591982620969065,0.0
4243,7.2783139363198925,0.0
4244,8.239885236508211,0.0
4245,8.063635682385545,0.0
4246,6.622313518198051,0.0
4247,7.138125911119348,0.0
4248,8.378326700082356,0.0
4249,7.110996806770281,0.0
4250,7.439831603600317,0.0
4251,7.0206005658253865,0.0
4252,7.619133228924286,0.0
4253,7.588668037649288,0.0
4254,6.619383384308121,0.0
4255,7.782571949978614,0.0
4256,6.4272518720426675,0.0
4257,7.458579343670819,0.0
4258,6.269858973512432,0.0
4259,7.417286734433624,0.0
4260,7.719743617468431,0.0
4261,7.677240316778354,0.0
4262,7.624557135536587,0.0
4263,7.796714000083392,0.0
4264,7.25762500023752,0.0
4265,7.336719394349859,0.0
4266,7.3319065360281135,0.0
4267,7.48268018356527,0.0
4268,7.7732505367004565,0.0
4269,7.291768023185933,0.0
4270,6.732377568486782,0.0
4271,7.40465461010086,0.0
4272,7.420605394324727,0.0
4273,7.361197522157077,0.0
4274,7.1624422396189225,0.0
4275,7.967215181290703,0.0
4276,7.021088510669394,0.0
4277,7.409785363534853,0.0
4278,7.109865511082174,0.0
4279,7.650589384288622,0.0
4280,7.054536215654544,0.0
4281,9.113667958652002,0.0
4282,7.524241190543543,0.0
4283,7.283240928566615,0.0
4284,7.822332267817983,0.0
4285,7.779630476723812,0.0
4286,8.053414904836636,0.0
4287,6.4616952199131195,0.0
4288,5.760804320977608,0.0
4289,7.569772441348681,0.0
4290,7.656854930925988,0.0
4291,7.606309769968911,0.0
4292,7.517828478385709,0.0
4293,7.192119601770143,0.0
4294,7.396344797642369,0.0
4295,7.347468727987023,0.0
4296,7.08015810686578,0.0
4297,7.330293207079255,0.0
4298,8.575621724651027,0.0
4299,8.611562226284267,0.0
4300,6.886036671677695,0.0
4301,8.191925022370722,0.0
4302,8.534362890892968,0.0
4303,8.276301160127849,0.0
4304,8.784588910396648,0.0
4305,10.388139337785095,0.0
4306,10.491335267713382,0.0
4307,12.62227529376533,0.0
4308,13.721918860976139,0.0
4309,13.744471120432866,0.0
4310,13.53678506736081,0.0
4311,14.990898957059862,0.0
4312,13.599616326753893,0.0
4313,12.13490179975351,0.0
4314,10.471988469886671,0.0
4315,9.030876576058082,0.0
4316,7.551892509765477,0.0
4317,5.471995999334063,0.0
4318,4.511923815110164,0.0
4319,3.720645974421042,0.0
4320,4.8355754411618115,0.0
4321,4.605832171395052,0.0
4322,6.641490906212133,0.0
4323,7.65105627128342,0.0
4324,8.38928510357486,0.0
4325,8.362387370814329,0.0
4326,7.7340537702229435,0.0
4327,7.972265013791012,0.0
4328,6.823073699152901,0.0
4329,8.197883788059917,0.0
4330,7.135723898959202,0.0
4331,6.870157780308833,0.0
4332,6.35282542471235,0.0
4333,6.612149743661496,0.0
4334,6.634844025567743,0.0
4335,6.405662904121516,0.0
4336,8.028949267972282,0.0
4337,7.853011741148145,0.0
4338,8.51137578837569,0.0
4339,6.919251082949597,0.0
4340,7.540604709188883,0.0
4341,7.28231519337419,0.0
4342,7.235239546207563,0.0
4343,7.753511455392269,0.0
4344,7.855641845443023,0.0
4345,6.995195728603734,0.0
4346,6.468582924695509,0.0
4347,7.555460650942655,0.0
4348,7.758988225422374,0.0
4349,8.086357643946762,0.0
4350,7.777104125034009,0.0
4351,7.047842936311022,0.0
4352,7.086286265504637,0.0
4353,7.941235267439133,0.0
4354,7.473941208673701,0.0
4355,7.330751503179584,0.0
4356,7.647937261892935,0.0
4357,7.246629485003775,0.0
4358,7.374170781278113,0.0
4359,6.5070117636866,0.0
4360,7.136306457968079,0.0
4361,8.6170624713378,0.0
4362,7.80860268895486,0.0
4363,7.621016419380572,0.0
4364,7.118533386858931,0.0
4365,7.986922326036783,0.0
4366,8.016442343626448,0.0
4367,7.029219316930793,0.0
4368,7.993586665615391,0.0
4369,7.614984047932133,0.0
4370,7.283146320002016,0.0
4371,7.749199014709071,0.0
4372,6.673244265914629,0.0
4373,7.847417348457448,0.0
4374,7.507550689325569,0.0
4375,7.520245162390866,0.0
4376,7.560960500476195,0.0
4377,7.542659567894315,0.0
4378,7.496285335960251,0.0
4379,8.217977729138003,0.0
4380,7.56790807862416,0.0
4381,7.572156574194981,0.0
4382,7.59443399851264,0.0
4383,7.703791879090278,0.0
4384,7.436737724561809,0.0
4385,7.793274023676901,0.0
4386,6.902496407273497,0.0
4387,5.769399962755107,0.0
4388,7.34805897791316,0.0
4389,7.623077218404614,0.0
4390,7.506555655300007,0.0
4391,7.5209673388927,0.0
4392,7.379181908691457,0.0
4393,7.759282452817911,0.0
4394,6.987770675041568,0.0
4395,6.617795923825874,0.0
4396,7.7948691125433545,0.0
4397,7.892313573995957,0.0
4398,8.02453722997134,0.0
4399,8.777472323194141,0.0
4400,7.1674487674153555,0.0
4401,6.929766024754778,0.0
4402,7.569621892648549,0.0
4403,8.685094352072866,0.0
4404,8.96350447258115,0.0
4405,9.556081688169652,0.0
4406,10.467272879497264,0.0
4407,12.165011020998644,0.0
4408,13.219004679388906,0.0
4409,14.30679771262422,0.0
4410,14.084183634370087,0.0
4411,14.338719425476054,0.0
4412,14.421744002540908,0.0
4413,12.358367740858615,0.0
