timestamp,value-0,is_anomaly
0,0.32411657873169436,0
1,3.5118337390822334,0
2,6.971644314914243,0
3,-0.29549000159690675,0
4,-2.004550191478809,0
5,1.5595364820747826,0
6,-0.7080259857752985,0
7,0.00856822864090033,0
8,-0.04370853723562219,0
9,-0.1319756967121537,0
10,-0.06984493713512825,0
11,-0.11527013648751042,0
12,0.024084963382401486,0
13,0.027561307201550707,0
14,-0.04747215453181512,0
15,-0.02391403537074103,0
16,0.07783477132663279,0
17,0.021825632878104118,0
18,-0.061394042231418804,0
19,0.043354991380383755,0
20,0.3032500920947724,0
21,3.5114437439577206,0
22,6.78908691382734,0
23,-0.28132011411539587,0
24,-1.8856515134964698,0
25,1.5581715309067288,0
26,-0.7376234195505362,0
27,0.15515739254365377,0
28,0.00736346911416618,0
29,-0.17253437318125855,0
30,-0.024076655100291132,0
31,-0.07137451561595032,0
32,-0.016876415537901153,0
33,-0.10703594619251959,0
34,-0.04429280465978036,0
35,-0.07334697590548803,0
36,-0.024816363636876042,0
37,-0.05089424042706357,0
38,-0.0147844662515603,0
39,-0.06837025318508724,0
40,0.21248437929269823,0
41,3.5582640900157223,0
42,6.902484557487966,0
43,-0.2281686601331888,0
44,-2.0171174941277488,0
45,1.531536187727564,0
46,-0.7373657843074238,0
47,0.08271056892755717,0
48,-0.038382287498846146,0
49,-0.05885342660686839,0
50,-0.0013222662900045472,0
51,-0.05364363938737944,0
52,0.04118896266678501,0
53,0.03478356703881437,0
54,-0.057059542484116994,0
55,0.11025750991879193,0
56,0.030165996185776117,0
57,0.0013142643973715062,0
58,-0.031900171430761314,0
59,-0.08373120160140833,0
60,0.24918212160733935,0
61,3.483012537846911,0
62,6.898544798610048,0
63,-0.25770428828325437,0
64,-1.9407059915509928,0
65,1.5813580254424682,0
66,-0.7446982695381383,0
67,0.05368004933421511,0
68,0.09912380714363213,0
69,-0.031736236974932296,0
70,0.03111506370170566,0
71,-0.04867073387340476,0
72,-0.027682753307448512,0
73,-0.0040181407155735135,0
74,-0.08619826439936781,0
75,-0.027603188010483587,0
76,0.032622192837871405,0
77,-0.06880244321978493,0
78,-0.10459570283417868,0
79,-0.016854246155072042,0
80,0.2432653452625351,0
81,3.4725536967166786,0
82,6.811080626230577,0
83,-0.31206720331993143,0
84,-2.0029610026367024,0
85,1.6418854432903174,0
86,-0.7259140669298538,0
87,0.11430464510009904,0
88,0.017053934863139303,0
89,-0.09370347492539377,0
90,-0.0025415992437104705,0
91,-0.048711914947454124,0
92,-0.051601238895229114,0
93,-0.05687116469122714,0
94,-0.04042717254296957,0
95,-0.049222004907006095,0
96,-0.08580550342792109,0
97,-0.08084101476955229,0
98,-0.1109742558272732,0
99,0.032021710652046,0
100,0.2387579784447214,0
101,3.554386018842545,0
102,6.8591382731957315,0
103,-0.39796841388813087,0
104,-2.002527475976393,0
105,1.6539649497185693,0
106,-0.7532246909548628,0
107,0.059604167757051255,0
108,0.006142158579019584,0
109,-0.1705877729744316,0
110,-0.08546545585038103,0
111,-0.1358327870174763,0
112,0.026336904195473847,0
113,0.003759319202526163,0
114,-0.10179198448751942,0
115,-0.044195214664726784,0
116,0.03944984468652498,0
117,-0.02510236336949621,0
118,0.05282275470441455,0
119,0.04500443175593367,0
120,0.298785417343012,0
121,3.552297160976833,0
122,6.872979231627915,0
123,-0.24549870378195304,0
124,-1.890656182402653,0
125,1.5879410769074218,0
126,-0.6672948838155763,0
127,0.11040948708984179,0
128,0.007013385223818612,0
129,-0.12601102754159438,0
130,-0.08416352464247287,0
131,-0.047877315640106194,0
132,-0.05330033107166718,0
133,-0.10862917091039104,0
134,-0.027041564168749685,0
135,-0.09107024914133867,0
136,-0.0645626381786654,0
137,-0.037775135588284894,0
138,-0.15865464743673532,0
139,-0.15203482406557695,0
140,0.13271712454210366,0
141,3.460545465369946,0
142,6.682699445366902,0
143,-0.3865496687092793,0
144,-2.0222380134652873,0
145,1.4412957819876553,0
146,-0.7618178297506013,0
147,0.025868235822796477,0
148,-0.1007918246126976,0
149,-0.026020165361952202,0
150,-0.023493721473526165,0
151,-0.021727342550031656,0
152,-0.02501994462485957,0
153,-0.016178978610251,0
154,-0.06425062007017696,0
155,-0.08936248444024975,0
156,-0.032393336747981075,0
157,-0.03393595115537511,0
158,0.020805494570107358,0
159,0.017663996225680323,0
160,0.13089688083744988,0
161,3.384378345144886,0
162,6.859580958046888,0
163,-0.37513871995969317,0
164,-2.0616091787578794,0
165,1.4546600160141057,0
166,-0.7330631378246739,0
167,0.03724428385118281,0
168,-0.05557270451491353,0
169,-0.13731664964884238,0
170,-0.04573867350302859,0
171,-0.08585689552905697,0
172,-0.09887896962542336,0
173,-0.10577933573366625,0
174,-0.07083479881272914,0
175,-0.14380128474741663,0
176,-0.046435429539613764,0
177,-0.14948483063196033,0
178,-0.08051061204480094,0
179,-0.08097268476172781,0
180,0.10414915140269508,0
181,3.474176771603739,0
182,6.773829973926906,0
183,-0.34255847435898723,0
184,-2.066097622175215,0
185,1.4597128045189915,0
186,-0.7353690367342478,0
187,0.058232392207794706,0
188,0.02573621450053693,0
189,-0.1779632665449679,0
190,-0.013648135334925121,0
191,-0.04691362815110255,0
192,-0.07460622188069929,0
193,-0.10723400913445333,0
194,-0.11944563610724988,0
195,-0.07977104121798954,0
196,-0.09035291101143271,0
197,-0.0646270876133734,0
198,-0.18812528437940865,0
199,-0.003219992072717906,0
200,0.17487747959813438,0
201,3.432851995966521,0
202,6.886694883927901,0
203,-0.32725803015914895,0
204,-1.9947595934686737,0
205,1.5300465625708306,0
206,-0.7322304998074874,0
207,0.07145100864594851,0
208,0.09214626478914449,0
209,-0.11987241174574206,0
210,0.0659186909034713,0
211,-0.1126780378925967,0
212,-0.06888011611023585,0
213,-0.02786643764644975,0
214,0.01675646783798769,0
215,-0.0061291398033818684,0
216,0.009972147778851371,0
217,0.07475878921225003,0
218,0.025763464203596535,0
219,0.023984584208885978,0
220,0.2523088603895573,0
221,3.6040829243881163,0
222,6.797891297682007,0
223,-0.2299147505590859,0
224,-1.8724057708145978,0
225,1.5812709745054274,0
226,-0.7058685038615505,0
227,0.1010137635837281,0
228,0.07090577839033949,0
229,-0.016890434603411872,0
230,0.00509647727696886,0
231,0.09309554603034646,0
232,0.03419102455089192,0
233,0.09480608687003927,0
234,0.033692478904724224,0
235,0.07293318038964158,0
236,0.03798605065143569,0
237,0.0754035491901976,0
238,0.05226144324223722,0
239,0.05021555656386326,0
240,0.2436559208643302,0
241,3.613303537723327,0
242,6.913002227000548,0
243,-0.32369605978935834,0
244,-1.8745757877991072,0
245,1.5955708913852376,0
246,-0.6897252996013834,0
247,0.13563216497626376,0
248,0.20055387930555696,0
249,-0.03833639230018626,0
250,0.045071341771073074,0
251,0.15080924240661292,0
252,0.05459036003159721,0
253,0.0017101141469076098,0
254,0.16402038671512398,0
255,0.06368267881098902,0
256,0.0880171208633646,0
257,0.10941646223279838,0
258,0.03573473690606333,0
259,-0.04864895444740194,0
260,0.3385071589014711,0
261,3.6515329310941573,0
262,6.960008657926742,0
263,-0.2606501516296224,0
264,-1.8192569907894618,0
265,1.4731797679852867,0
266,-0.8473542018452836,0
267,0.07143003888143959,0
268,0.12416681886259325,0
269,-0.05343947117940193,0
270,0.04232236797764881,0
271,0.13430389664418163,0
272,0.02312829706822793,0
273,0.005444046574665386,0
274,0.07286038635762522,0
275,0.1838762213803613,0
276,0.10016054874045593,0
277,0.08259734011463299,0
278,0.12530148050450593,0
279,0.060127891733481736,0
280,0.5646660879922034,0
281,3.717964902120729,0
282,6.921147946200473,0
283,-0.08996113522118364,0
284,-1.7632732313333814,0
285,1.6420469505244883,0
286,-0.5368607009590679,0
287,0.21618064464429973,0
288,0.20826127607831965,0
289,0.10146503649720716,0
290,0.08903013903410567,0
291,0.09844547239780799,0
292,0.049427790799741966,0
293,0.18674567874288786,0
294,0.09048110862369746,0
295,0.1273380596862871,0
296,0.14402123788991525,0
297,0.1548979487547654,0
298,0.03520534788614422,0
299,0.14409809748246447,0
300,0.4230946120382785,0
301,3.6102582310938187,0
302,7.03067837014019,0
303,-0.2036930116057348,0
304,-1.8691604132446131,0
305,1.6516410160170456,0
306,-0.6044432085050161,0
307,0.29821723342662865,0
308,0.2014792029975006,0
309,0.1329788299473656,0
310,0.08181772837856888,0
311,0.11116377326490448,0
312,0.09422268998542532,0
313,0.07315951252587492,0
314,0.10827148414863273,0
315,0.08884800545312538,0
316,0.07080628589794817,0
317,0.1710981780649877,0
318,0.094829359354796,0
319,0.07026052551693023,0
320,0.36242338821839215,0
321,3.689200850601751,0
322,6.9867858770422595,0
323,-0.24152659414787894,0
324,-1.7683801579291625,0
325,1.5999933266268385,0
326,-0.7876165331362107,0
327,0.18245074511931825,0
328,0.17993146845241456,0
329,0.04154564266470547,0
330,0.1267246431933984,0
331,0.14001266527085449,0
332,0.04303727872079095,0
333,0.1308802427802798,0
334,0.15588238317928915,0
335,0.2045126612057258,0
336,0.12066253284681884,0
337,0.13477508365132365,0
338,0.05893969063808077,0
339,0.13849744161846134,0
340,0.4893612698266814,0
341,3.741735746754374,0
342,7.0318323188082035,0
343,-0.2750891169565499,0
344,-1.7970461498086727,0
345,1.6852059030047997,0
346,-0.6249817720409511,0
347,0.18809970621778338,0
348,0.10065373145561682,0
349,0.023578059587024816,0
350,0.14310219322293793,0
351,0.13158626887017613,0
352,0.0787866278778402,0
353,-0.009797381347207715,0
354,0.05330482008016217,0
355,0.07416140933520977,0
356,0.08196665982163026,0
357,0.06991155092596096,0
358,-0.06489147341471535,0
359,0.049961729187469356,0
360,0.3545613588394354,0
361,3.6886594117952876,0
362,6.956478652550143,0
363,-0.27873316081193145,0
364,-1.9114436640517911,0
365,1.6810289827587452,0
366,-0.6547275420735857,0
367,0.1463548527177134,0
368,0.13071041656680554,0
369,0.03682678527460119,0
370,0.09979606636223107,0
371,0.042443246181510005,0
372,0.08069702710204787,0
373,0.10049748622864621,0
374,-0.011713688968159393,0
375,0.021637985649729262,0
376,0.008864276826712664,0
377,-0.004057980333768417,0
378,-0.10333721254493651,0
379,0.008630657663032427,0
380,0.24510213064073288,0
381,3.5180786812212124,0
382,6.849307397307368,0
383,-0.38543113531620843,0
384,-1.9692870785536734,0
385,1.5758268366913863,0
386,-0.7402380309176411,0
387,0.17825348321637885,0
388,-0.04222456895179157,0
389,0.017330861324404805,0
390,0.07780325870536846,0
391,0.07218464278211262,0
392,-0.01538278095442043,0
393,0.0038693360456912573,0
394,-0.01982257259945976,0
395,0.08912953294525529,0
396,0.026859161054412144,0
397,0.01202075793371786,0
398,0.03710130269479103,0
399,0.01683834541437794,0
400,0.30262975768506234,0
401,3.5991916712974756,0
402,6.977668793967158,0
403,-0.4014800211994848,0
404,-1.9158695074577514,0
405,1.553115743960442,0
406,-0.596500546194548,0
407,0.19880147089385714,0
408,0.14712954981365992,0
409,-0.029049455180707333,0
410,0.03661023788900923,0
411,0.0038150149323802965,0
412,0.04572382231214733,0
413,-0.024175139570236114,0
414,0.05371216157398257,0
415,-0.0009222273408414777,0
416,0.07553713745716045,0
417,0.10841611002443192,0
418,0.014544972020902734,0
419,0.09791167254754113,0
420,0.3686089200127672,0
421,3.6248127729684305,0
422,6.8631980067482266,0
423,-0.3225344789613139,0
424,-1.8237937208065582,0
425,1.5069674114563985,0
426,-0.7260007272167861,0
427,0.05835494789540703,0
428,0.03956279296829257,0
429,-0.09277173772477228,0
430,0.018881632489011122,0
431,-0.023892003466366583,0
432,0.0553611407301987,0
433,0.02122680196672074,0
434,0.003685160784331955,0
435,0.11412282404589698,0
436,0.0033195448596417742,0
437,-0.06839305675953755,0
438,-0.01859120149013655,0
439,-0.0008957933865873747,0
440,0.33322092773003287,0
441,3.4908465055197535,0
442,6.769152602714043,0
443,-0.408439526052294,0
444,-1.8760191097121848,0
445,1.5253242370275115,0
446,-0.664561634474497,0
447,0.1388810445517539,0
448,-0.009104806284623757,0
449,-0.06145157458219307,0
450,0.04701339134170673,0
451,-0.143350526534829,0
452,-0.0889821653337082,0
453,-0.022265120465716978,0
454,-0.05289295203719645,0
455,0.039987007904792295,0
456,-0.027744319872387287,0
457,-0.005457007706108409,0
458,-0.05947277721471277,0
459,-0.04129853256842271,0
460,0.2390777251396397,0
461,3.631183294561327,0
462,6.815740235471567,0
463,-0.3117380332683547,0
464,-1.859239399707207,0
465,1.4392856475219025,0
466,-0.7554316197902482,0
467,0.1374261065416646,0
468,0.020011362268660217,0
469,0.016854422016245985,0
470,-0.03449075738715622,0
471,-0.15836406656925817,0
472,-0.05984125351240893,0
473,-0.027798264728120834,0
474,-0.028926203970028718,0
475,0.012582786933810312,0
476,-0.01788594299986554,0
477,-0.07923388445720396,0
478,-0.019146353891216668,0
479,0.0061050521371807664,0
480,0.25117131748365706,0
481,3.5529048188515686,0
482,6.900080484784216,0
483,-0.3923266017708194,0
484,-1.864873210163489,0
485,1.517645501718334,0
486,-0.7420397835591352,0
487,0.12044138528633333,0
488,0.09097635036240154,0
489,0.04375177888394555,0
490,-0.007668990963249689,0
491,0.0554888917349612,0
492,0.031200260092163944,0
493,0.12933639396991586,0
494,-0.08381569268445052,0
495,-0.028487919704276693,0
496,-0.04875704849328914,0
497,0.0314668856142791,0
498,0.05513651415380462,0
499,-0.12386323576365499,0
500,0.2787952384952049,0
501,3.541288954964792,0
502,6.832311803494662,0
503,-0.4420787669381773,0
504,-1.9088099949011454,0
505,1.4643004055212994,0
506,-0.8591152633793089,0
507,0.0460410709351488,0
508,-0.01948855229500152,0
509,-0.12233092518212982,0
510,-0.0211425687823702,0
511,-0.011014634476145799,0
512,-0.09115627640064189,0
513,0.008298973933117421,0
514,-0.08888413167851908,0
515,-0.021449185832461068,0
516,-0.08264569134655417,0
517,0.03705524223528382,0
518,0.0473755057623858,0
519,0.0008081985130273198,0
520,0.29926707507090794,0
521,3.605650029440861,0
522,6.892973513734466,0
523,-0.4504819888803565,0
524,-2.0166905314424506,0
525,1.489263056277849,0
526,-0.7031123862465007,0
527,0.08633408854909885,0
528,0.04563910733761953,0
529,-0.07342365012736504,0
530,0.06289965673691854,0
531,-0.06679454668058739,0
532,-0.05405778425510026,0
533,-0.06947389861355865,0
534,-0.014031076527118509,0
535,-0.02166135366998341,0
536,-0.06774421917662429,0
537,-0.05673832292852977,0
538,0.03438083479534973,0
539,0.008706177000641795,0
540,0.33318774525687433,0
541,3.5275385407868733,0
542,6.771128399965645,0
543,-0.4147230086374788,0
544,-1.7575068726107963,0
545,1.5551175793999943,0
546,-0.7628099074280125,0
547,0.13563718206141984,0
548,0.011194814392740705,0
549,-0.07911680065706529,0
550,-0.0575447362211506,0
551,-0.021819673546265038,0
552,-0.04233298364984124,0
553,-0.005758238742858135,0
554,-0.11801195248765277,0
555,-0.05074105163882024,0
556,0.01718155270263632,0
557,-0.17259457001235745,0
558,-0.1051931394073127,0
559,-0.10316846234200412,0
560,0.32467053778914834,0
561,3.611438282809837,0
562,6.8842031343372305,0
563,-0.39749406463855436,0
564,-1.8435639875073446,0
565,1.5890342840568639,0
566,-0.8286064006957506,0
567,0.216992635349724,0
568,0.10682504001216725,0
569,-0.10736971878836904,0
570,0.04071183245752474,0
571,-0.036659111152373886,0
572,0.05814940923747906,0
573,-0.005966644429145062,0
574,-0.04361075921988471,0
575,-0.03850065250265091,0
576,-0.023236186147088656,0
577,0.037610317461248606,0
578,-0.02034384531513776,0
579,-0.10161202177186941,0
580,0.2280708090895971,0
581,3.585896501667482,0
582,6.836248839167172,0
583,-0.433487868799627,0
584,-1.9346211657463483,0
585,1.4586291862350127,0
586,-0.7558172999402976,0
587,0.1339838300624389,0
588,0.04223856003321241,0
589,-0.011775389607977738,0
590,-0.0682583023000919,0
591,0.04805819266743654,0
592,0.07593603073859406,0
593,0.015459369942262019,0
594,-0.012704948015857177,0
595,0.0408023795845793,0
596,-0.016215484552494462,0
597,0.045600526300333476,0
598,0.13602717627974836,0
599,-0.003879251650416124,0
600,0.32363102516353187,0
601,3.509203228758626,0
602,6.966126806080288,0
603,-0.43528001577702896,0
604,-1.82002220999359,0
605,1.66025493127103,0
606,-0.7833753948707114,0
607,0.05728524604819031,0
608,0.015412592862313723,0
609,-0.07122059302520532,0
610,0.00452992246168012,0
611,0.02159102831231908,0
612,-0.043767833543371236,0
613,0.015853041569609067,0
614,-0.08023010759527388,0
615,-0.11504524777490809,0
616,-0.02021574121702072,0
617,-0.08785154698001627,0
618,0.0023807396279855106,0
619,-0.034254813419962504,0
620,0.3724082406379675,0
621,3.7136989652515915,0
622,6.852792839768685,0
623,-0.477901353321072,0
624,-1.9107030080462035,0
625,1.5325162171238471,0
626,-0.7052059540064051,0
627,0.19628534887598365,0
628,0.10301624088935384,0
629,-0.05047617626034039,0
630,0.05939877835280168,0
631,-0.007302322008969036,0
632,0.020535346057285225,0
633,-0.011238055152997934,0
634,-0.009350056517934663,0
635,0.022128150308142643,0
636,0.0016819821835663412,0
637,-0.03421983556639396,0
638,-0.09192072848554786,0
639,-0.04292144663681225,0
640,0.3752360908568631,0
641,3.535668185704199,0
642,6.699253597703498,0
643,-0.4812091465575336,0
644,-1.923921422642703,0
645,1.467376328729712,0
646,-0.7806127482330965,0
647,0.034540419351284386,0
648,-0.025379767749310264,0
649,-0.15444551144293311,0
650,-0.0026094614584528594,0
651,0.007857730714188882,0
652,-0.11028558734255284,0
653,0.011599671129572615,0
654,-0.005497211336586462,0
655,-0.09176571882292743,0
656,-0.1133804049926737,0
657,-0.08458157923596898,0
658,-0.045471550634859706,0
659,-0.12217956079767166,0
660,0.15213632633832214,0
661,3.599032693679814,0
662,6.794185480533288,0
663,-0.4833309385734081,0
664,-1.8599424166901564,0
665,1.4459881157918841,0
666,-0.7989232673809182,0
667,0.10104113204500215,0
668,-0.0069274584912625,0
669,-0.08796269583690866,0
670,-0.015792878591981363,0
671,0.01096491672735763,0
672,0.01692599262553253,0
673,0.03904696044087384,0
674,-0.02534072885344893,0
675,-0.0025491175652931387,0
676,-0.018752650410193913,0
677,-0.01641236661341293,0
678,0.011895416430687575,0
679,0.10743896827536617,0
680,0.3195077459773563,0
681,3.5792567822558286,0
682,6.814623443177361,0
683,-0.5014116694544083,0
684,-1.889164521446904,0
685,1.4853618820438408,0
686,-0.852324407250883,0
687,0.0657508325066477,0
688,0.046753269224494395,0
689,-0.14136934658935651,0
690,-0.04997259091225095,0
691,-0.09894309399270282,0
692,-0.10396488391813793,0
693,-0.022550837650042052,0
694,-0.0689975438498681,0
695,-0.026621550595612668,0
696,-0.023872153695011007,0
697,-0.18139153641516323,0
698,-0.011538192183777593,0
699,-0.07726417048524498,0
700,0.25255156894567615,0
701,3.5520005505616608,0
702,6.86838541727035,0
703,-0.4045274430785976,0
704,-1.9374206561038212,0
705,1.5122375071305412,0
706,-0.7927564318271343,0
707,0.06900200435551605,0
708,-0.03583243409063969,0
709,-0.09063781842002068,0
710,0.001731477278994648,0
711,-0.062263253536404016,0
712,-0.08416226236626302,0
713,-0.08319929357733512,0
714,-0.042596797844565604,0
715,0.017619211521820916,0
716,-0.012656205918751488,0
717,-0.03285390585246883,0
718,0.030103414178736607,0
719,-0.057386966592454645,0
720,0.27917771246956885,0
721,3.6346529953439966,0
722,6.776750973724561,0
723,-0.36014514720518026,0
724,-1.8484596783536342,0
725,1.5269307101678455,0
726,-0.7488193414622075,0
727,0.15731832843801363,0
728,-0.06245579780232942,0
729,-0.09183031523808774,0
730,-0.06716659196033484,0
731,-0.009536094485828608,0
732,-0.03185631954832534,0
733,-0.06748683432133826,0
734,-0.006372851900457582,0
735,0.014635029692410338,0
736,-0.08306627816245156,0
737,-0.012939096956244811,0
738,-0.01402694834411632,0
739,0.07662540882025616,0
740,0.32609016236606053,0
741,3.668475078263297,0
742,6.863147932065878,0
743,-0.49943951263506586,0
744,-1.8766490930346047,0
745,1.5213201469941096,0
746,-0.7030401163111126,0
747,0.056940543732641596,0
748,-0.012399639268164151,0
749,-0.06272785270684657,0
750,-0.062475500031732176,0
751,-0.20477187638778324,0
752,-0.0820366260100179,0
753,0.0035889443260347376,0
754,-0.11916342120884921,0
755,0.01726111215530681,0
756,-0.04714949212224633,0
757,-0.05909637741096904,0
758,-0.0156688064953912,0
759,-0.11177627178828692,0
760,0.23809814502661705,0
761,3.611791817950387,0
762,6.85107354927327,0
763,-0.54963378566863,0
764,-1.9312944266896626,0
765,1.5973489823354514,0
766,-0.7148640552875821,0
767,0.11654670795867744,0
768,0.018902875857055412,0
769,-0.018240618833781405,0
770,-0.008378062331652529,0
771,0.04126541133306591,0
772,-0.04457888121260334,0
773,-0.08578442514498921,0
774,0.007259355354341386,0
775,-0.02978641596207761,0
776,-0.0024770144734831377,0
777,0.008785062991257763,0
778,0.0772431549231074,0
779,-0.06485137221601495,0
780,0.2994549853873529,0
781,3.6196061318392694,0
782,6.8255210449264245,0
783,-0.4561952572387917,0
784,-1.8364188265243941,0
785,1.5374122231468454,0
786,-0.7603300140155621,0
787,0.1527253449931331,0
788,0.042992960336222366,0
789,-0.04587602388024112,0
790,-0.007775789454293091,0
791,0.06105047104372601,0
792,0.014240007471517315,0
793,-0.0051290896409480185,0
794,0.08848581270463668,0
795,-0.022708393021463553,0
796,-0.017352475138808495,0
797,0.03824091745878921,0
798,0.09444240818559088,0
799,0.08091457326005391,0
800,0.23432188977688517,0
801,3.655185599102371,0
802,6.812653000589285,0
803,-0.41124490545142306,0
804,-1.7710442797873813,0
805,1.5272918374109552,0
806,-0.7525566376713057,0
807,0.15318447687051884,0
808,-0.018745160917431912,0
809,-0.029495666595369084,0
810,0.04072717892197947,0
811,0.029343296072207772,0
812,0.03467067467193194,0
813,0.007244057974425296,0
814,-0.007100790753851314,0
815,-0.1445129049141123,0
816,-0.015976565363430523,0
817,-0.06551742953959797,0
818,-0.030376664903335727,0
819,-0.10597115194991466,0
820,0.3178699980196902,0
821,3.5747112336170335,0
822,6.842856621088033,0
823,-0.5930878672980091,0
824,-1.7462452807937825,0
825,1.4706969578273146,0
826,-0.7863230957195836,0
827,0.16273043698697948,0
828,0.017040556173117734,0
829,-0.08188299409577456,0
830,-0.0346795542390937,0
831,-0.028633032847622177,0
832,0.051756151030887876,0
833,-0.03289533307230746,0
834,-0.02548053674714213,0
835,-0.09922750450876192,0
836,-0.0606359142864213,0
837,0.0011974740759992455,0
838,-0.06222959151817033,0
839,-0.06955063911171311,0
840,0.2157348191302033,0
841,3.6426689194878366,0
842,6.860163490597694,0
843,-0.4857486464216921,0
844,-1.884975671019067,0
845,1.512254112364161,0
846,-0.7741577399165128,0
847,0.007849900194268913,0
848,-0.034312574771788444,0
849,-0.09598325314205368,0
850,-0.07854810837832787,0
851,-0.03724842685890581,0
852,-0.061840354825434166,0
853,-0.040520494796572215,0
854,-0.12925590283527708,0
855,-0.10950854712471142,0
856,-0.10415141643886457,0
857,-0.07751082080166023,0
858,-0.0587474833690131,0
859,-0.018512756376547104,0
860,0.21188991293971393,0
861,3.535435078013866,0
862,6.785250572398136,0
863,-0.5560141090720669,0
864,-1.937032541628888,0
865,1.4987943686183112,0
866,-0.7834281579374283,0
867,0.060039202082378736,0
868,0.03762093610369778,0
869,-0.15613964948531572,0
870,-0.03974495674097901,0
871,-0.01533424660287619,0
872,0.010589417565162802,0
873,-0.11167635237617755,0
874,-0.1303487224866062,0
875,-0.06865461540190754,0
876,-0.06772711135631972,0
877,-0.05685660927978602,0
878,0.03784478995343428,0
879,-0.08893861506944195,0
880,0.27922552639537535,0
881,3.564292263196886,0
882,6.765085952912799,0
883,-0.5202834670439519,0
884,-1.9947796188003954,0
885,1.4246251227992213,0
886,-0.7842454997135406,0
887,0.08999504596938004,0
888,-0.030937552935280728,0
889,-0.21281102919090544,0
890,-0.15998116934507745,0
891,-0.18055441214362677,0
892,-0.08155198899372786,0
893,0.004618206509954731,0
894,-0.11888888860962848,0
895,-0.01924146240396512,0
896,-0.06124680901393713,0
897,-0.07070938605658929,0
898,0.000162272781847779,0
899,-0.08598869910511615,0
900,0.22121529310270405,0
901,3.6505362520357014,0
902,6.789317513620976,0
903,-0.6190424389750526,0
904,-1.9129005909956935,0
905,1.4851455495704917,0
906,-0.8164923591871351,0
907,0.06826152654862144,0
908,-0.12187802929423437,0
909,-0.1402301724939929,0
910,0.0039044855965284925,0
911,-0.07006069013855955,0
912,-0.10103654607299041,0
913,-0.15835810536134887,0
914,-0.1060832275315428,0
915,-0.01476406533133827,0
916,-0.07241175483735235,0
917,0.05449582179557606,0
918,-0.07661683439675683,0
919,-0.07416607547142023,0
920,0.2283677816187636,0
921,3.5710485696718477,0
922,6.703383784864263,0
923,-0.5400620190493193,0
924,-1.898878488544142,0
925,1.3528805008998572,0
926,-0.8215632607423462,0
927,0.09021231218824177,0
928,-0.019830906612475014,0
929,-0.18564308094630796,0
930,0.016826649250921345,0
931,-0.01860580903490626,0
932,-0.1506637892476616,0
933,-0.0634131138101849,0
934,-0.06601116771878417,0
935,-0.06714546131389311,0
936,-0.07548375131986738,0
937,-0.038350458930804264,0
938,0.05411261678228541,0
939,-0.0004470876288619474,0
940,0.19935629038377972,0
941,3.5530306292224685,0
942,6.696411929262793,0
943,-0.5737626207224952,0
944,-1.9442958807415263,0
945,1.405874574593791,0
946,-0.8439333229080314,0
947,0.13487710264773073,0
948,-0.04619827748989041,0
949,-0.15109181555521345,0
950,-0.049340356958268806,0
951,-0.110406970933542,0
952,-9.132368322772866e-05,0
953,0.015824203976872717,0
954,-0.11490056022029202,0
955,-0.10127151349326433,0
956,-0.0587009817094298,0
957,-0.1369941051708242,0
958,-0.019739576390820565,0
959,-0.10750424642703002,0
960,0.26822691985073416,0
961,3.4492030475055975,0
962,6.6702236381194195,0
963,-0.5949607470960447,0
964,-1.875555918410204,0
965,1.4923301606410744,0
966,-0.784016029948706,0
967,-0.007842710518745383,0
968,-0.04162945160544753,0
969,-0.14441263346192754,0
970,-0.09167377807778704,0
971,-0.07954200589067931,0
972,-0.06662047801655072,0
973,-0.07568883867770587,0
974,-0.03876523797980506,0
975,-0.038284713471563786,0
976,-0.07207357105885841,0
977,-0.08530217973302752,0
978,-0.05111435013279322,0
979,0.009888446657120825,0
980,0.34092888276516864,0
981,3.5246216627813642,0
982,6.790086136867098,0
983,-0.6000477877634772,0
984,-1.823124364923653,0
985,1.3702655667027748,0
986,-0.7996726739994375,0
987,0.18406247146707505,0
988,-0.04263986954694139,0
989,-0.024062962718924677,0
990,-0.02615748883426629,0
991,-0.09749561396535708,0
992,-0.0644222365164185,0
993,-0.015018789660465017,0
994,-0.061606980892071304,0
995,-0.05336631176615621,0
996,-0.021962187019154908,0
997,-0.029859539552229558,0
998,0.04166150953542031,0
999,0.020835513346205266,0
1000,0.2811721704259747,0
1001,3.6758469870636197,0
1002,6.753766282320454,0
1003,-0.5342113416328208,0
1004,-1.8953236874491979,0
1005,1.5080533609233395,0
1006,-0.7900899073025026,0
1007,0.12292188688109555,0
1008,0.02789036562152308,0
1009,-0.02838672033364643,0
1010,0.006433069957298761,0
1011,-0.001306333651547937,0
1012,0.002971928945990722,0
1013,-0.07046259042857105,0
1014,0.06802031610971832,0
1015,-0.10268183297610053,0
1016,0.03856957057606463,0
1017,0.07909338519338957,0
1018,-0.06826696600539015,0
1019,9.998688667802944e-05,0
1020,0.29797870684131866,0
1021,3.6622072236925836,0
1022,6.726762947765055,0
1023,-0.6003450465614847,0
1024,-1.7970621043143233,0
1025,1.4607434559001973,0
1026,-0.8290567249021941,0
1027,0.1551025161305335,0
1028,-0.07284926466712893,0
1029,-0.09448770440613355,0
1030,-0.052537737956731244,0
1031,0.01486494766524387,0
1032,0.006495241595490774,0
1033,-0.04229391591556132,0
1034,-0.09225029789219719,0
1035,0.006954072846190051,0
1036,0.014536341098747511,0
1037,-0.04614947403582353,0
1038,-0.006274934412112552,0
1039,-0.019333309925141588,0
1040,0.3149376466449852,0
1041,3.648643542038406,0
1042,6.758695281368361,0
1043,-0.5689090790657941,0
1044,-1.807323450572483,0
1045,1.509233415858151,0
1046,-0.7816128353554272,0
1047,0.07331652060925176,0
1048,-0.03991319219248464,0
1049,-0.034031178190487676,0
1050,-0.09191516818734602,0
1051,-0.08925557371669678,0
1052,-0.02250155039745847,0
1053,-0.00939580846780836,0
1054,-0.10533888813988773,0
1055,-0.0343057534301336,0
1056,0.018545039101792338,0
1057,-0.06600900733680423,0
1058,-0.03123653939775749,0
1059,-0.0021595340847936004,0
1060,0.29518918333875044,0
1061,3.6486392873117133,0
1062,6.762204615704754,0
1063,-0.589694883151566,0
1064,-1.8061325502863343,0
1065,1.4996142633897176,0
1066,-0.8150184405070372,0
1067,0.09234922223193412,0
1068,-0.07322002063976754,0
1069,-0.07001491754723715,0
1070,-0.01218113101271967,0
1071,-0.13005975260767635,0
1072,-0.10616668033288446,0
1073,0.015812535379003144,0
1074,-0.14557809521876725,0
1075,-0.05750441650975797,0
1076,-0.11455576770430256,0
1077,-0.05564124826684344,0
1078,-0.12780820027640155,0
1079,-0.12940213306048612,0
1080,0.2385036507320481,0
1081,3.639108729980754,0
1082,6.720664023995068,0
1083,-0.6420719861027551,0
1084,-1.8723815536389494,0
1085,1.5092123045475516,0
1086,-0.8297025717526313,0
1087,0.054504357494375336,0
1088,-0.08279766099028793,0
1089,-0.043784561471128775,0
1090,-0.06104622185262261,0
1091,-0.13503235024746135,0
1092,-0.05309865161730584,0
1093,-0.1061028601269072,0
1094,-0.08485221892490875,0
1095,-0.11220140390674502,0
1096,-0.023120604745145407,0
1097,-0.2264838990920066,0
1098,0.015503071009294433,0
1099,-0.1933069281465705,0
1100,0.27363079923528577,0
1101,3.620242022469373,0
1102,6.797189987562039,0
1103,-0.5033712303328909,0
1104,-1.7545382779048297,0
1105,1.4869275520603273,0
1106,-0.885186659638689,0
1107,0.15467593518139325,0
1108,-0.0678891945189245,0
1109,-0.031565189183737616,0
1110,-0.0032323889449796667,0
1111,-0.03916166100084034,0
1112,-0.05924307981584884,0
1113,0.03435579194292372,0
1114,-0.08673974235815854,0
1115,-0.025566434309140275,0
1116,0.011711857742700942,0
1117,-0.04693803513468019,0
1118,-0.09458848724745494,0
1119,0.0019241127716718917,0
1120,0.2717717554744573,0
1121,3.6702846062808105,0
1122,6.764326533248554,0
1123,-0.6274096919649316,0
1124,-1.8398429801888103,0
1125,1.3836044033099602,0
1126,-0.771631508003497,0
1127,0.1501706572904763,0
1128,-0.07702006283806034,0
1129,-0.09004380743214654,0
1130,-0.07575496929687422,0
1131,-0.1235948771902382,0
1132,-0.07068125790582011,0
1133,-0.062838920220678,0
1134,-0.13255992452750154,0
1135,-0.016878349500775103,0
1136,-0.05594059337063746,0
1137,-0.05967960652325763,0
1138,-0.029980932072499387,0
1139,-0.034670197638435804,0
1140,0.2782434518712035,0
1141,3.723922756927638,0
1142,6.772191648402505,0
1143,-0.6966284836711766,0
1144,-1.7435925764363864,0
1145,1.5247145723262947,0
1146,-0.8494866703974647,0
1147,0.10977743325834499,0
1148,0.005898947476234043,0
1149,-0.07030475030749385,0
1150,0.09766217966722393,0
1151,0.026368607382193775,0
1152,0.0007097199053813638,0
1153,0.0014246058536008651,0
1154,-0.0207318244853397,0
1155,0.0048039525176027855,0
1156,-0.015817664374204402,0
1157,0.041368974141689115,0
1158,0.06338866818160552,0
1159,0.03668606795406426,0
1160,0.2527252605976262,0
1161,3.652965416927805,0
1162,6.779181201576088,0
1163,-0.5998818388648102,0
1164,-1.720390689829222,0
1165,1.5095453169050568,0
1166,-0.8398667233562281,0
1167,0.1412906730156204,0
1168,-0.025421713090040602,0
1169,-0.07317720433328577,0
1170,0.09434820695703743,0
1171,-0.012545566387097928,0
1172,-0.08060216834582949,0
1173,-0.07768103878169194,0
1174,0.025417980927811817,0
1175,0.11186060727258898,0
1176,-0.019655630474525905,0
1177,-0.06932449682124625,0
1178,-0.03453888633300957,0
1179,0.118759022802088,0
1180,0.3775463684370557,0
1181,3.7126376911181374,0
1182,6.850778529329835,0
1183,-0.564421642214683,0
1184,-1.764833736123864,0
1185,1.567475508269667,0
1186,-0.6910368160952981,0
1187,0.19565900575162634,0
1188,0.05134411780219125,0
1189,-0.002694140264007253,0
1190,0.18554344801290917,0
1191,-0.009019642396241995,0
1192,0.04270709741732982,0
1193,0.016702146761323033,0
1194,0.029061220035462507,0
1195,0.06745772103082501,0
1196,0.018847760701584913,0
1197,0.05748849877328261,0
1198,-0.025658961113254317,0
1199,-0.07835430107721146,0
1200,0.39992721229938594,0
1201,3.704053906150757,0
1202,6.815944651119308,0
1203,-0.5305891300674385,0
1204,-1.7428244439500709,0
1205,1.4060078165039744,0
1206,-0.7517594128901796,0
1207,0.23052349579536532,0
1208,-0.03593771450282643,0
1209,-0.09202301970256957,0
1210,0.057375318063998,0
1211,-0.07928511123445066,0
1212,0.07508718296389308,0
1213,-0.005156964342591525,0
1214,-0.008591115685517133,0
1215,-0.06801068953568855,0
1216,-0.03923260600922423,0
1217,-0.06905384657129304,0
1218,-0.07195813114203604,0
1219,-0.0118860759073499,0
1220,0.28437698722764526,0
1221,3.5748155347402366,0
1222,6.7908243616628035,0
1223,-0.548083073043323,0
1224,-1.7668618578622102,0
1225,1.5599720717497938,0
1226,-0.7437048749391731,0
1227,0.16417922927534945,0
1228,0.03912962884004514,0
1229,0.030788200726868137,0
1230,0.014997528144069988,0
1231,0.0964433716515015,0
1232,0.03566643719503826,0
1233,-0.023369655238162174,0
1234,-0.05934200840792681,0
1235,0.0394739212215322,0
1236,-0.03267080617706444,0
1237,-0.034746311009305815,0
1238,-0.0038884544696324366,0
1239,-0.016264152469960602,0
1240,0.309426350178662,0
1241,3.746451434353603,0
1242,6.743244292019561,0
1243,-0.6059411953625418,0
1244,-1.6755544294477973,0
1245,1.561729340255728,0
1246,-0.697304783418155,0
1247,0.19053500515909427,0
1248,-0.0366314816782704,0
1249,-0.03991375776955386,0
1250,0.06419126424471118,0
1251,-0.12470199995551734,0
1252,-0.027588939060991927,0
1253,-0.02004094614276821,0
1254,0.12345391084959294,0
1255,-0.05851500991062574,0
1256,0.015503046878255246,0
1257,0.007736738234033778,0
1258,0.05526544380776406,0
1259,-0.04679770356463456,0
1260,0.3321524276301266,0
1261,3.678200939817689,0
1262,6.7819221091551345,0
1263,-0.5341645229712797,0
1264,-1.7578979699618211,0
1265,1.546793631813647,0
1266,-0.7286967488677459,0
1267,0.27805794516699794,0
1268,0.08142202431909365,0
1269,-0.08814362767191328,0
1270,0.06432726388480516,0
1271,0.03133834995036984,0
1272,0.06048350782484199,0
1273,0.11209369490825416,0
1274,-0.0050544621408472115,0
1275,-0.01775208389376044,0
1276,-0.020060428527808323,0
1277,-0.014313849514214057,0
1278,0.06986093445963698,0
1279,-0.023194020221792715,0
1280,0.2806146937543931,0
1281,3.69057156548734,0
1282,6.7970953579073194,0
1283,-0.6350233655748748,0
1284,-1.8121414200420198,0
1285,1.4340363718201323,0
1286,-0.7772401586735834,0
1287,0.1251974679337382,0
1288,-0.0010854292388093323,0
1289,-0.11530357317856041,0
1290,-0.054441106808100076,0
1291,-0.019260281285780168,0
1292,-0.08703363098430406,0
1293,-0.050807046854342695,0
1294,-0.06131356449260177,0
1295,-0.05392345070141697,0
1296,-0.02726948072205649,0
1297,0.02283466490858377,0
1298,0.000881618652262342,0
1299,-0.03663308260927721,0
1300,0.320162654129662,0
1301,3.7944987951994222,0
1302,6.748153631345578,0
1303,-0.6519724680068093,0
1304,-1.8069769045303152,0
1305,1.50594836919917,0
1306,-0.7834036916116882,0
1307,0.15917829609643883,0
1308,-0.026190069811368934,0
1309,-0.08400806847810639,0
1310,0.11434332231927999,0
1311,0.11760647382279109,0
1312,-0.02770152322953467,0
1313,-0.014673775048731543,0
1314,-0.03195922038681841,0
1315,-0.04246118270235048,0
1316,-0.05327152278822245,0
1317,-0.01802039139113143,0
1318,-0.03717472163711777,0
1319,-0.009559723854924505,0
1320,0.22288125798991962,0
1321,3.7709705148010757,0
1322,6.727463275664894,0
1323,-0.6913161479439733,0
1324,-1.7876424979941314,0
1325,1.4992717795739452,0
1326,-0.8812115728453433,0
1327,0.0857397866413077,0
1328,-0.06911413395087211,0
1329,-0.09358689873457246,0
1330,0.007045305225077111,0
1331,-0.07392588327676763,0
1332,-0.02163832143254251,0
1333,-0.04697700631599749,0
1334,-0.06306655886961153,0
1335,-0.09739065017468168,0
1336,-0.031624312278764916,0
1337,-0.06701013153085467,0
1338,0.0014821237775046459,0
1339,-0.15186470884134254,0
1340,0.47257800655418486,0
1341,3.7042283991708618,0
1342,6.774578573373594,0
1343,-0.6450270883321153,0
1344,-1.749739482163438,0
1345,1.41386381135897,0
1346,-0.8148406281424591,0
1347,0.13476336778827191,0
1348,-0.030982257550914282,0
1349,-0.043610127102329053,0
1350,0.05638289732861281,0
1351,-0.05345074635941191,0
1352,-0.062056380905601796,0
1353,-0.10016553518883957,0
1354,-0.03835413973243652,0
1355,0.06101548450300218,0
1356,-0.07197820150185155,0
1357,-0.07186715932505224,0
1358,-0.09801445651468119,0
1359,0.015939500598197556,0
1360,0.2880069998034875,0
1361,3.652118607546442,0
1362,6.701725302816485,0
1363,-0.68945383995617,0
1364,-1.8279116610502015,0
1365,1.41547412612825,0
1366,-0.7637058976192556,0
1367,0.162389491200376,0
1368,-0.022135813702873885,0
1369,-0.055607815924707635,0
1370,-0.04844489760793838,0
1371,-0.024325045518690906,0
1372,-0.09315308638023043,0
1373,-0.014243352875537598,0
1374,0.003151921264326854,0
1375,0.014291372227042597,0
1376,0.060971250061794845,0
1377,-0.11016628631218436,0
1378,-0.05197794294496621,0
1379,-0.14614044998520836,0
1380,0.31080319887722263,0
1381,3.682239933751867,0
1382,6.700330159531099,0
1383,-0.5911199170797512,0
1384,-1.7573580037714072,0
1385,1.5070591605202694,0
1386,-0.7247702763243777,0
1387,0.11958049281710752,0
1388,0.07655914923180382,0
1389,-0.12751723706420692,0
1390,0.02394182485682899,0
1391,0.013933662761634644,0
1392,-0.0392994190699063,0
1393,-0.11704037595431019,0
1394,-0.043443018352403585,0
1395,-0.010508427304750281,0
1396,0.0033644236663982544,0
1397,0.007051964213705873,0
1398,-0.038641952432536125,0
1399,-0.0392726644202992,0
1400,0.30977123370614673,0
1401,3.6721025193955104,0
1402,6.748104291922866,0
1403,-0.7022467751020408,0
1404,-1.7796744509757916,0
1405,1.444668946627843,0
1406,-0.857110766832717,0
1407,0.16817438232750032,0
1408,-0.006048944631619273,0
1409,-0.017363215542195602,0
1410,0.06510188040817352,0
1411,-0.06812083030318818,0
1412,0.047810309681829616,0
1413,-0.00818026152798126,0
1414,0.12874064943626207,0
1415,-0.025743514959275675,0
1416,0.008364574725977968,0
1417,0.04052063083027849,0
1418,-0.021786452995840363,0
1419,-0.07620440449488985,0
1420,0.2152089425306915,0
1421,3.697359167739254,0
1422,6.673907880491043,0
1423,-0.7432657428485506,0
1424,-1.7050316709017301,0
1425,1.47725497969837,0
1426,-0.8305499834098268,0
1427,0.12452281765229484,0
1428,0.005838320439288551,0
1429,-0.1245644125975113,0
1430,0.03329038984728213,0
1431,-0.09191205161573587,0
1432,-0.10832807816567987,0
1433,-0.07965319921306183,0
1434,-0.02191541277563207,0
1435,-0.0059349037930247,0
1436,-0.04041408112896769,0
1437,-0.08505216892476188,0
1438,-0.065709945470885,0
1439,-0.1113091019753016,0
1440,0.2383659102117918,0
1441,3.6822243286358893,0
1442,6.610488882831699,0
1443,-0.7279887669864894,0
1444,-1.8288244900356494,0
1445,1.412610408163325,0
1446,-0.8620854687185305,0
1447,0.07512242685727365,0
1448,-0.06369452635541614,0
1449,-0.0801998941725118,0
1450,-0.13364096738228276,0
1451,-0.07225761782460365,0
1452,-0.058350752265462824,0
1453,0.02088826768050083,0
1454,0.016922335467363762,0
1455,-0.0830135808132631,0
1456,-0.09024609241682588,0
1457,-0.07915887463857482,0
1458,-0.06781179325204345,0
1459,-0.14646755704989617,0
1460,0.26163656659554607,0
1461,3.6892594169353314,0
1462,6.73886457250273,0
1463,-0.6453852005128301,0
1464,-1.8873370188576268,0
1465,1.535064489159248,0
1466,-0.705704338960198,0
1467,0.053192751882359286,0
1468,-0.0999845683194106,0
1469,-0.24661864763936814,0
1470,-0.049406559082599916,0
1471,-0.15492901111713464,0
1472,-0.05216317256498502,0
1473,-0.040854947780920935,0
1474,-0.02495666274730185,0
1475,-0.006232105437539187,0
1476,-0.02776400493429966,0
1477,-0.03987474175895738,0
1478,-0.07516094210203875,0
1479,-0.044450606742950496,0
1480,0.21128018407391974,0
1481,3.7404689419967827,0
1482,6.7533259229906255,0
1483,-0.7815760595882556,0
1484,-1.8472606254324506,0
1485,1.4463437026360082,0
1486,-0.7882083581874991,0
1487,0.042128025547203476,0
1488,-0.03929434564984232,0
1489,-0.10634746123517637,0
1490,-0.13021341011604842,0
1491,-0.09667855487308785,0
1492,-0.08977172133882827,0
1493,-0.07193292778454208,0
1494,-0.05909282626394509,0
1495,-0.08897667103079313,0
1496,-0.0517599253640492,0
1497,-0.016306417530587695,0
1498,0.027266414336126192,0
1499,-0.11304253594230741,0
1500,0.28271062802418556,0
1501,3.6475560447022684,0
1502,6.748169965324033,0
1503,-0.8054058007936409,0
1504,-1.826190752473685,0
1505,1.5021713540892396,0
1506,-0.9020793113278179,0
1507,0.13375765410260182,0
1508,-0.12741630601097637,0
1509,-0.13783017243727946,0
1510,-0.05821440007903889,0
1511,-0.13713800837476972,0
1512,-0.08829892795868033,0
1513,-0.16486242622919262,0
1514,-0.14528883792378472,0
1515,-0.13432707129627125,0
1516,-0.08998700740074238,0
1517,-0.09448803877795575,0
1518,-0.025635451575490006,0
1519,-0.13817642613790077,0
1520,0.30171177225060203,0
1521,3.687877130627947,0
1522,6.725482700272225,0
1523,-0.6704308820681688,0
1524,-1.7481416639481282,0
1525,1.5287137233771138,0
1526,-0.8273158737958769,0
1527,0.07630173292677422,0
1528,0.07049383144671414,0
1529,-0.12816095679875963,0
1530,-0.041716456798445545,0
1531,-0.05969152954073406,0
1532,0.04034018862079704,0
1533,-0.041523803670878136,0
1534,-0.0005841786338453316,0
1535,-0.07608943782545792,0
1536,-0.0035823094561405755,0
1537,-0.11333172100388263,0
1538,-0.10105002675705402,0
1539,-0.011250806816862236,0
1540,0.32428344804182435,0
1541,3.8298971112465585,0
1542,6.818233012247814,0
1543,-0.6524418236623301,0
1544,-1.7190265262683542,0
1545,1.4708140261533895,0
1546,-0.768735721299776,0
1547,0.15989986455716662,0
1548,0.04927880459842643,0
1549,-0.12142185239451235,0
1550,-0.01424719547272274,0
1551,-0.05991987917403927,0
1552,0.035622510555953495,0
1553,-0.14316765552764546,0
1554,-0.04732461254265953,0
1555,-0.003207224554544856,0
1556,-0.029055830194783534,0
1557,-0.03812743970876942,0
1558,-0.027821402532154395,0
1559,-0.04422961565767501,0
1560,0.31032217861183575,0
1561,3.7761718174910217,0
1562,6.705979334968749,0
1563,-0.80315638920979,0
1564,-1.7199610623867227,0
1565,1.5111814913631854,0
1566,-0.7286661700178358,0
1567,0.1264024227126325,0
1568,-0.07751354778921321,0
1569,-0.03138880098842695,0
1570,-0.0049514994764273,0
1571,-0.10397537162488762,0
1572,-0.012758257122317183,0
1573,0.06386611472787597,0
1574,-0.08592598917661619,0
1575,0.010347272768250506,0
1576,-0.004551574625487805,0
1577,0.0009366567295117922,0
1578,-0.012441978846162396,0
1579,-0.0640647415688285,0
1580,0.28917638551105085,0
1581,3.7353409049279724,0
1582,6.772797893059027,0
1583,-0.6879064976968666,0
1584,-1.7234581524421724,0
1585,1.4746716427455582,0
1586,-0.8059108021752719,0
1587,0.07742204702987646,0
1588,0.029479617732300026,0
1589,-0.08502930161844488,0
1590,-0.018046323775858956,0
1591,-0.022631984951327164,0
1592,-0.05650741891192555,0
1593,-0.03757138716327927,0
1594,-0.08857735805026506,0
1595,-0.034240111454187906,0
1596,-0.04985144971008544,0
1597,0.000734653551132846,0
1598,-0.03711511344646059,0
1599,-0.024302249419009166,0
1600,0.38692576496477565,0
1601,3.7931593770765826,0
1602,6.762938454019923,0
1603,-0.752755180039825,0
1604,-1.76013971408489,0
1605,1.505663552408137,0
1606,-0.728885443733498,0
1607,0.14665877795879304,0
1608,-0.026227563832169745,0
1609,-0.05729896710081654,0
1610,-0.07378303002476522,0
1611,-0.036160186198326026,0
1612,0.00494951366299522,0
1613,0.020785868972692332,0
1614,-0.08484212815400377,0
1615,-0.011579754533577933,0
1616,-0.0663630123061157,0
1617,-0.0319655147636622,0
1618,-0.03564453465623017,0
1619,-0.0779769617227653,0
1620,0.31215464578217944,0
1621,3.7856325092342953,0
1622,6.811491570015545,0
1623,-0.7170292525090074,0
1624,-1.5902960729009388,0
1625,1.6024563400132459,0
1626,-0.7771056301876129,0
1627,0.10643139357565543,0
1628,-0.043704699097047155,0
1629,-0.09469572131154888,0
1630,-0.025178407008408607,0
1631,0.0874874470571685,0
1632,0.034473957510386885,0
1633,0.006453339943899492,0
1634,0.008117210003319646,0
1635,-0.031094974723378313,0
1636,0.06728948168955792,0
1637,0.050955063190456985,0
1638,0.026791326652955815,0
1639,-0.012888319551573126,0
1640,0.3620104518306042,0
1641,3.8012906653374956,0
1642,6.731815247048146,0
1643,-0.6771810316277478,0
1644,-1.6371883348916432,0
1645,1.5334993000491994,0
1646,-0.6680400593362006,0
1647,0.15618171857493873,0
1648,0.06255039380817903,0
1649,0.012507060248194944,0
1650,0.017252420801888872,0
1651,0.03502940056097226,0
1652,0.12623378081449207,0
1653,-0.010754676668737435,0
1654,0.015821195508139912,0
1655,0.02618942903408961,0
1656,0.050602765470747164,0
1657,0.07211624280450897,0
1658,0.022313222095898273,0
1659,0.022117294565947018,0
1660,0.3553218803301251,0
1661,3.7869165310941324,0
1662,6.730045975237483,0
1663,-0.6210087768619795,0
1664,-1.64441209039485,0
1665,1.5675317925399854,0
1666,-0.771404068009968,0
1667,0.257020453043784,0
1668,-0.06503752599198187,0
1669,0.04241272063904613,0
1670,-0.03302773339741578,0
1671,-0.07027862747021422,0
1672,-0.04464422661829898,0
1673,-0.03465738908037862,0
1674,0.0489521992091398,0
1675,0.012769244759558828,0
1676,-0.06187686283513981,0
1677,0.041139161915358054,0
1678,0.014050726469087775,0
1679,0.04767869431725228,0
1680,0.38558286821918875,0
1681,3.7973529465428064,0
1682,6.808343710596502,0
1683,-0.7905470222887708,0
1684,-1.6846702584151418,0
1685,1.5037069567279253,0
1686,-0.7508354780849301,0
1687,0.1833998231525945,0
1688,-0.018265214677689042,0
1689,-0.03213597965290499,0
1690,0.05868369026165593,0
1691,0.03790212661954455,0
1692,0.03750981268047047,0
1693,-0.03163563727607205,0
1694,-0.0173970622818101,0
1695,-0.006352862517216097,0
1696,-0.0007478284420433575,0
1697,-5.654642619339588e-05,0
1698,0.05682597007026054,0
1699,-0.021295919572434544,0
1700,0.4267016960605323,0
1701,3.757336680355154,0
1702,6.77005241395851,0
1703,-0.7710369423559177,0
1704,-1.6196895304351144,0
1705,1.5186472528846076,0
1706,-0.7570562559926483,0
1707,0.15488206847905184,0
1708,-0.011246657955607,0
1709,-0.15681719401244795,0
1710,-0.016972409583947773,0
1711,-0.03454371143514807,0
1712,0.037139282443561954,0
1713,-0.02975959009969946,0
1714,-0.05510080786331452,0
1715,-0.07121564046196166,0
1716,0.010523653854486663,0
1717,0.03812785180591714,0
1718,0.011072091303721245,0
1719,-0.030842821918246065,0
1720,0.3098539587304882,0
1721,3.7830406677684234,0
1722,6.726227512445572,0
1723,-0.7612114373889087,0
1724,-1.7457128975566232,0
1725,1.4996695695623607,0
1726,-0.7904420289625526,0
1727,0.16941911194205297,0
1728,-0.02737426669765093,0
1729,-0.07785749679797271,0
1730,-0.040044512465811366,0
1731,0.11692771434180421,0
1732,0.025621485452618782,0
1733,0.031507494052877796,0
1734,-0.005178909507911396,0
1735,-0.02737717155878865,0
1736,0.10165458271469717,0
1737,-0.012739231322597373,0
1738,0.03904099667569691,0
1739,0.02295434448540765,0
1740,0.41160358402031255,0
1741,3.8705270953806408,0
1742,6.690289155318981,0
1743,-0.7645141335984817,0
1744,-1.6175187972358862,0
1745,1.5321599444673262,0
1746,-0.7248789049825102,0
1747,0.2508307025271201,0
1748,-0.013613906751682538,0
1749,-0.0408258613424725,0
1750,0.07238556842158503,0
1751,0.040576180747090684,0
1752,0.0004997376770505928,0
1753,0.07407828568952096,0
1754,0.008896369469740196,0
1755,0.03518165253962488,0
1756,0.10924379175534463,0
1757,0.0909446955869519,0
1758,-0.06030900211004456,0
1759,-0.055950919506072554,0
1760,0.33850042889121335,0
1761,3.852547817609803,0
1762,6.791848528654524,0
1763,-0.7275794197073217,0
1764,-1.656502259033544,0
1765,1.5454559939446884,0
1766,-0.7635716620607662,0
1767,0.24894575710101507,0
1768,-0.0163944336885043,0
1769,-0.06228057327170515,0
1770,-0.02323768929390506,0
1771,-0.002037205948670655,0
1772,-0.01904628362083204,0
1773,0.021532661237068238,0
1774,-0.002121084809849578,0
1775,0.027058663503305595,0
1776,0.03529376712976547,0
1777,0.09688850208052036,0
1778,0.04166169559408528,0
1779,0.11085398500903877,0
1780,0.4194187229569711,0
1781,3.816017950655639,0
1782,6.723318517532974,0
1783,-0.7872271216498963,0
1784,-1.6311935511362046,0
1785,1.4803642352428654,0
1786,-0.7230318543222192,0
1787,0.14108164623413144,0
1788,0.06272716871260042,0
1789,0.01714987039414563,0
1790,-0.08070753710114412,0
1791,0.06571916956100923,0
1792,0.05910568048341104,0
1793,0.07284196617145328,0
1794,0.024518402338370146,0
1795,0.08646616520510583,0
1796,-0.026864218573350605,0
1797,0.02218192619766861,0
1798,0.01738632171330512,0
1799,-0.007299225119778426,0
1800,0.41603786222189765,0
1801,3.9349232668626852,0
1802,6.7585571896180525,0
1803,-0.7181500340305482,0
1804,-1.6753911424990418,0
1805,1.5400766051245467,0
1806,-0.6941436436464326,0
1807,0.17356824631385165,0
1808,0.007130898271299344,0
1809,-0.028078134008366958,0
1810,-0.018585566219239444,0
1811,-0.03357091765441497,0
1812,0.03218863357583702,0
1813,0.004882307352719512,0
1814,0.031619080148602235,0
1815,-0.015616353651470478,0
1816,0.04796311469639904,0
1817,0.10156368269252944,0
1818,0.05023452552551613,0
1819,0.04022905312527919,0
1820,0.3231341423531491,0
1821,3.7812038130272367,0
1822,6.798204925176149,0
1823,-0.629767108660208,0
1824,-1.566179564010476,0
1825,1.5601310902062873,0
1826,-0.7042672734995769,0
1827,0.22877013178628774,0
1828,0.09411278400590749,0
1829,0.1042692867280395,0
1830,0.17978871715502015,0
1831,0.017214492187117417,0
1832,0.10031630400810307,0
1833,0.18755935374942945,0
1834,0.03173838990000361,0
1835,0.08022623575945348,0
1836,0.06342762543612561,0
1837,0.09675661987610257,0
1838,0.10491970327778286,0
1839,-0.011170001828964056,0
1840,0.35628091560708913,0
1841,3.8568163496350207,0
1842,6.655631880685166,0
1843,-0.6968081963985879,0
1844,-1.5447052564004355,0
1845,1.4809293238509398,0
1846,-0.8194723603131169,0
1847,0.17272681432021508,0
1848,0.044363256286535924,0
1849,-0.019431354678256747,0
1850,0.010031928456929066,0
1851,-0.048872337896549725,0
1852,0.053134387440792887,0
1853,-0.012505370746779113,0
1854,-0.0107179646640128,0
1855,0.07066314508145156,0
1856,-0.01226090605202037,0
1857,0.0874383708969265,0
1858,0.00541161976393212,0
1859,0.032874824831391314,0
1860,0.357536918718686,0
1861,3.848657331979216,0
1862,6.779490147019919,0
1863,-0.7204091394629715,0
1864,-1.6536943603928427,0
1865,1.4673582787966455,0
1866,-0.7256021263392474,0
1867,0.1662042397659609,0
1868,0.03514349765554136,0
1869,-0.0159531892516432,0
1870,0.09923540938630768,0
1871,0.043994135529479034,0
1872,0.1631810791491903,0
1873,0.02330712022679601,0
1874,-0.0004263915671813487,0
1875,0.004184590182407629,0
1876,0.1236419400649993,0
1877,0.02168293313610104,0
1878,-0.03448025367607017,0
1879,0.04869560247463408,0
1880,0.29393230614165955,0
1881,3.8965713502182986,0
1882,6.716583381159365,0
1883,-0.7791408332611548,0
1884,-1.6715209582151576,0
1885,1.4573277794245825,0
1886,-0.764698885058239,0
1887,0.10926546892718275,0
1888,-0.013238027445431469,0
1889,-0.06769516210434916,0
1890,-0.05052497662177666,0
1891,-0.019037303450737023,0
1892,-0.01079883551246976,0
1893,-0.021539521356142066,0
1894,0.00023088733950422198,0
1895,0.06375002803057944,0
1896,-0.017070329767191344,0
1897,-0.008198072520480592,0
1898,-0.04709175055904028,0
1899,-0.007814206612595775,0
1900,0.2850448370421384,0
1901,3.9026487112396064,0
1902,6.747020833892658,0
1903,-0.7641506562048976,0
1904,-1.5860213494547413,0
1905,1.4702917957951567,0
1906,-0.8432787890829719,0
1907,0.10249756556923265,0
1908,-0.00046702072164901166,0
1909,-0.1500952732278224,0
1910,0.025784213838796373,0
1911,-0.15189240263592602,0
1912,-0.04026531871168747,0
1913,0.003085563040818806,0
1914,0.06713370671564617,0
1915,-0.014800230720675265,0
1916,0.01968770263623166,0
1917,-0.01762600917166315,0
1918,-0.06823532106437635,0
1919,0.03310467798290272,0
1920,0.2839463361014777,0
1921,3.870171802856045,0
1922,6.744583103659356,0
1923,-0.7735649443206887,0
1924,-1.6668713152855081,0
1925,1.5293359089835619,0
1926,-0.7324937776306051,0
1927,0.15318062726279263,0
1928,0.00671934724161748,0
1929,-0.09730877149496883,0
1930,0.004875883338018663,0
1931,-0.041553453677928405,0
1932,0.04661161715571729,0
1933,0.052604308002757345,0
1934,-0.015296695919912392,0
1935,-0.03934121479393634,0
1936,-0.0010804941044617704,0
1937,0.0464986932873294,0
1938,-0.0571799136427234,0
1939,-0.12897039798788235,0
1940,0.3122527646018452,0
1941,3.8448213385151933,0
1942,6.625523777898901,0
1943,-0.7994366491602115,0
1944,-1.6483394433172072,0
1945,1.4294218083170307,0
1946,-0.7181244151532358,0
1947,0.17787586412307757,0
1948,-0.010191364464044502,0
1949,-0.0421070671718261,0
1950,-0.06961478684933438,0
1951,-0.05266389173125039,0
1952,0.03407415574974355,0
1953,0.02741092498856013,0
1954,0.027655464503437536,0
1955,-0.011154400561739287,0
1956,-0.042613969624733294,0
1957,-0.010942102977279615,0
1958,0.025550600252992158,0
1959,-0.06467936792088474,0
1960,0.3902553204096647,0
1961,3.8305565889079283,0
1962,6.610264053184852,0
1963,-0.8167560050730106,0
1964,-1.646221499367002,0
1965,1.3909200066272418,0
1966,-0.8286489617466621,0
1967,0.23591913230819178,0
1968,-0.06178358769469856,0
1969,-0.025888046415433963,0
1970,0.011642967355576773,0
1971,-0.0385327930549537,0
1972,-0.04704532340172167,0
1973,-0.004993026371156022,0
1974,0.062209266255452145,0
1975,0.010657588726944927,0
1976,-0.007416536069625411,0
1977,0.029329520490829382,0
1978,0.030128633230843468,0
1979,0.005546526531138615,0
1980,0.3474118871108514,0
1981,3.8127695727758333,0
1982,6.6909753568448975,0
1983,-0.871120641179999,0
1984,-1.6097659381337937,0
1985,1.3741309271583548,0
1986,-0.71633637014034,0
1987,0.20387906501888103,0
1988,0.01582761215882377,0
1989,-0.030543841945361784,0
1990,-0.08614423674007196,0
1991,0.0026884529275013076,0
1992,-0.07677584030101145,0
1993,0.041017363111493496,0
1994,0.019018928444365115,0
1995,-0.044027133461655446,0
1996,-0.03655827173224559,0
1997,-0.063036181566437,0
1998,-0.017462682204314933,0
1999,-0.03953687248172153,0
2000,0.2987935314900243,0
2001,3.8644507195414173,0
2002,6.731194624958429,0
2003,-0.7301505328331406,0
2004,-1.7380060930166623,0
2005,1.4757973549602246,0
2006,-0.6845861384362285,0
2007,0.17404662020625236,0
2008,-0.10246925464457109,0
2009,-0.13643959764166727,0
2010,-0.007834276000049817,0
2011,0.0031715756019584478,0
2012,-0.15442439698019697,0
2013,-0.052379499919154596,0
2014,0.085423996446887,0
2015,-0.03878022903183538,0
2016,-0.03087179743297237,0
2017,-0.004053382282856092,0
2018,0.02419745868700721,0
2019,-0.023870190791396493,0
2020,0.4005282121026784,0
2021,3.84415380642983,0
2022,6.721580325421013,0
2023,-0.7812035518833992,0
2024,-1.5955545489747691,0
2025,1.5328158204023563,0
2026,-0.7587205346422211,0
2027,0.2369113349888767,0
2028,-0.034163748014654334,0
2029,0.036933899435273254,0
2030,0.01939643376965153,0
2031,-0.017230272692787325,0
2032,0.06425002930109427,0
2033,0.008807493917037999,0
2034,-0.07548040635025205,0
2035,-0.018636137080100888,0
2036,-0.04987095382274406,0
2037,0.014467293651153729,0
2038,-0.06167250531582374,0
2039,0.016664245929336276,0
2040,1.3083436968125273,1
2041,4.932858975006219,1
2042,7.72184880145459,1
2043,0.23407705363508283,1
2044,-0.594660521853967,1
2045,2.4831385077648633,1
2046,0.18035377264411684,1
2047,1.1269496561603407,1
2048,1.0725264190158088,1
2049,0.9311388751727241,1
2050,0.955015670880867,1
2051,0.9997878875412847,1
2052,1.0299250737158026,1
2053,0.972565788033677,1
2054,1.000656417479922,1
2055,1.0210696055160093,1
2056,0.8595726488333036,1
2057,1.0833791356698568,1
2058,1.0773635135034736,1
2059,1.0525575939129646,1
2060,1.38830184700156,1
2061,4.937827877491415,1
2062,7.723208179006157,1
2063,0.16512184133148278,1
2064,-0.5921132616835034,1
2065,2.4538620100587525,1
2066,0.31516725952083424,1
2067,1.3247654754632274,1
2068,0.982489518824851,1
2069,0.9863580392854634,1
2070,0.9729192388169497,1
2071,0.9931906573868388,1
2072,0.9258838543973787,1
2073,1.0318396316519447,1
2074,0.9729385517084358,1
2075,0.9853894819415212,1
2076,0.9536169824320831,1
2077,0.9963377032063641,1
2078,1.0784052636647303,1
2079,1.065034820455003,1
2080,1.3710300425995647,1
2081,4.83220835165059,1
2082,7.741791593221661,1
2083,0.18757389315987483,1
2084,-0.6360088307725877,1
2085,2.4198281715261496,1
2086,0.17498332868435892,1
2087,1.170873549484519,1
2088,1.0250183843387366,1
2089,0.9989927079869405,1
2090,1.0351995381774706,1
2091,0.9854262096162952,1
2092,0.9376766499521995,1
2093,0.8949637536099304,1
2094,1.0439350939628715,1
2095,1.069313865964945,1
2096,1.0240648640239836,1
2097,0.9969884328654711,1
2098,0.9913868206814228,1
2099,0.9686754966612063,1
2100,1.3909688659071853,1
2101,4.8726161502673095,1
2102,7.788955155488031,1
2103,0.19008189737312672,1
2104,-0.6747307862522816,1
2105,2.4871386041293486,1
2106,0.17430054603598893,1
2107,1.1641394286437303,1
2108,1.0053834468370795,1
2109,0.9088389248741952,1
2110,1.0405424706037671,1
2111,1.0267282946418743,1
2112,0.9944170794827006,1
2113,1.0078870163746703,1
2114,1.0182914180112903,1
2115,1.0380901349376066,1
2116,0.9650526244527188,1
2117,0.916341385360543,1
2118,0.9925935949412998,1
2119,1.0978026680372464,1
2120,1.452576837681403,1
2121,4.936077106716425,1
2122,7.787830780378203,1
2123,0.11037606450681378,1
2124,-0.5996196079338597,1
2125,2.5337594876345224,1
2126,0.2614082414058086,1
2127,1.3361593566783196,1
2128,1.0343124703205169,1
2129,0.8306934699650579,1
2130,0.9514585710514979,1
2131,0.9554268126464834,1
2132,0.9921559069967193,1
2133,0.9559677493576785,1
2134,1.001493487800037,1
2135,1.0155570890272627,1
2136,0.9587305126595922,1
2137,0.963050992150231,1
2138,0.9665464323309798,1
2139,0.9356477912607819,1
2140,0.34913056443718243,0
2141,3.761906429315764,0
2142,6.681841784144094,0
2143,-0.9538305212031226,0
2144,-1.7063210460567917,0
2145,1.414233362933493,0
2146,-0.7881578034815362,0
2147,0.17135088525222447,0
2148,-0.022364045889820865,0
2149,-0.0413750003164855,0
2150,-0.04842356983265578,0
2151,-0.04842611178513536,0
2152,-0.10434139359467176,0
2153,-0.1251861484991807,0
2154,-0.01007053020127017,0
2155,0.06852531486039477,0
2156,-0.005151914672734785,0
2157,0.029006053776495205,0
2158,2.0249255580304278e-05,0
2159,-0.0019116041986157219,0
2160,0.4826794628525999,0
2161,3.868278581567861,0
2162,6.726683998187877,0
2163,-0.851217896744691,0
2164,-1.5479537366453489,0
2165,1.485138993064678,0
2166,-0.7623364008068095,0
2167,0.2917918308693207,0
2168,0.06190824583358451,0
2169,0.025711770924726547,0
2170,0.06740692728729528,0
2171,-0.017126588742436007,0
2172,-0.045125213721327474,0
2173,-0.06400790040189736,0
2174,0.0006328818249439756,0
2175,0.05236512063365225,0
2176,0.06522738526512961,0
2177,0.028594484458695085,0
2178,0.05430171140981606,0
2179,0.04331158760543207,0
2180,0.44371448094217547,0
2181,4.063935982172962,0
2182,6.753877163657981,0
2183,-0.7269373321896251,0
2184,-1.5910117413868465,0
2185,1.481414741782219,0
2186,-0.7110033232720651,0
2187,0.21362543531531386,0
2188,-0.014989224421095744,0
2189,0.04331523590448476,0
2190,0.135536902243791,0
2191,0.07528922432591029,0
2192,-0.03144679644694771,0
2193,0.08344964766123958,0
2194,-0.048769035607715325,0
2195,0.012716049887506303,0
2196,0.02748046208587004,0
2197,0.044852579277020285,0
2198,0.047100507063899635,0
2199,-0.018372261799102552,0
2200,0.41493368011511633,0
2201,4.0176224705795285,0
2202,6.712594824600086,0
2203,-0.8503581598216405,0
2204,-1.6065971657698839,0
2205,1.438892724437529,0
2206,-0.7615247277947739,0
2207,0.17724243494193076,0
2208,-0.11770656894509973,0
2209,-0.10044194917520191,0
2210,0.032170011567003165,0
2211,0.0732253095488221,0
2212,0.02605070616663504,0
2213,0.035761409342339096,0
2214,0.017914513539814738,0
2215,0.037102013890508496,0
2216,0.039550382199258126,0
2217,0.0036739906784976732,0
2218,0.06420794494771974,0
2219,0.025247214968899097,0
2220,0.4226734928982694,0
2221,3.9290903108444297,0
2222,6.701515065498994,0
2223,-0.8661211963510121,0
2224,-1.5880202598276012,0
2225,1.4649484342305312,0
2226,-0.892830083508403,0
2227,0.22819596601878722,0
2228,-0.06312981640774801,0
2229,-0.048450049792005366,0
2230,-0.01323453858314904,0
2231,-0.010577748852587653,0
2232,-0.08080821419302882,0
2233,-0.13083074021588956,0
2234,-0.011706562449489304,0
2235,-0.031553688971870324,0
2236,-0.014983825108852905,0
2237,-0.016041295006111952,0
2238,-0.05174682939023859,0
2239,-0.048318636441510826,0
2240,0.265765745362002,0
2241,3.8070799832563598,0
2242,6.674740113281812,0
2243,-0.8338348878015299,0
2244,-1.6163203443107452,0
2245,1.4638346362049606,0
2246,-0.7769778371535369,0
2247,0.26853585068248165,0
2248,0.04237116439732773,0
2249,-0.06762817670539352,0
2250,0.003054070067786561,0
2251,-0.006380962406625728,0
2252,-0.009270624852029107,0
2253,-0.03916642703601323,0
2254,0.015227161383235375,0
2255,-0.0046853285514323086,0
2256,-0.11241968795197199,0
2257,-0.07736041785763052,0
2258,0.011993315782322232,0
2259,-0.02107042642755362,0
2260,0.28509980914569616,0
2261,3.846842084489385,0
2262,6.605162085663696,0
2263,-0.8670355752265487,0
2264,-1.5619585476175895,0
2265,1.4452829554885285,0
2266,-0.8461376094506834,0
2267,0.08804958328558486,0
2268,-0.051514040874417265,0
2269,-0.049362717343370346,0
2270,0.07242209917410632,0
2271,-0.01579547272224599,0
2272,0.049199743809374585,0
2273,0.04126461998070475,0
2274,-0.00418916860509307,0
2275,-0.014508201959520685,0
2276,-0.007391334669976655,0
2277,-0.022974653408465502,0
2278,0.05640487700024012,0
2279,0.013288758437257485,0
2280,0.32371068509975354,0
2281,3.9119923716520546,0
2282,6.792559098845011,0
2283,-0.8535631904351256,0
2284,-1.5933142639893618,0
2285,1.481691300057977,0
2286,-0.7466816250528694,0
2287,0.3043635286301629,0
2288,0.04413949778979645,0
2289,-0.004914371404533432,0
2290,0.1447073077027283,0
2291,-0.04217486831440593,0
2292,-0.015368081966603428,0
2293,0.0056379219265950895,0
2294,0.07955930402458475,0
2295,0.1165874972011752,0
2296,-0.03918089290421846,0
2297,0.00851316484237531,0
2298,-0.05328763158743862,0
2299,-0.02668544975662704,0
2300,0.2582349676489978,0
2301,3.886933093923425,0
2302,6.669606443150773,0
2303,-1.002400400711897,0
2304,-1.5937109475333258,0
2305,1.431126758794429,0
2306,-0.8082434889974296,0
2307,0.12610347711412695,0
2308,-0.07522700403905866,0
2309,-0.07955405046259394,0
2310,0.0305349200453211,0
2311,0.028077686391718593,0
2312,0.10748426239360315,0
2313,-0.02789768252416378,0
2314,0.014073289972198333,0
2315,0.020052331322773467,0
2316,-0.007345511665519054,0
2317,0.0057805963799903,0
2318,0.04553555045804198,0
2319,-0.014079229692211054,0
2320,0.35313235205434207,0
2321,3.9530711410375714,0
2322,6.67047598497571,0
2323,-0.9414884519577307,0
2324,-1.6703895717945207,0
2325,1.416549485831061,0
2326,-0.8603814714706393,0
2327,0.2432190101961373,0
2328,-0.07103428415229987,0
2329,-0.006831462343020872,0
2330,0.009120797640116661,0
2331,0.013314077312529274,0
2332,0.04282150334039684,0
2333,-0.05574923277595044,0
2334,-0.028944015517865844,0
2335,0.04729237145547877,0
2336,-0.04285551786359053,0
2337,0.054317435308702235,0
2338,-0.046185150190868406,0
2339,0.03642495334165798,0
2340,0.45063616943129353,0
2341,3.9318544296239453,0
2342,6.783101449869,0
2343,-0.8440369087285902,0
2344,-1.4921065252409018,0
2345,1.4799740173294524,0
2346,-0.8148046814092298,0
2347,0.23379980237058082,0
2348,0.043425389799112014,0
2349,-0.021271475627124732,0
2350,0.06989768122820259,0
2351,0.09007141966718216,0
2352,0.08472770913080113,0
2353,0.02823272919028127,0
2354,0.09455179817640677,0
2355,-0.0069183685678220405,0
2356,0.04754446553162507,0
2357,0.07569788552032751,0
2358,-0.0061182586299001005,0
2359,0.06297515136467241,0
2360,0.4201331903837732,0
2361,3.919974242418054,0
2362,6.572732796016874,0
2363,-0.8239718006570993,0
2364,-1.5523081122276474,0
2365,1.4842926099674605,0
2366,-0.9208680343164789,0
2367,0.30821068746484515,0
2368,-0.01927873356385046,0
2369,0.08233351113066278,0
2370,-0.012172846774198491,0
2371,0.039079509337350805,0
2372,-0.027366225602811996,0
2373,0.061229910574380694,0
2374,0.07692256376337159,0
2375,0.02388559937933319,0
2376,0.08349841374391545,0
2377,0.0490249600759189,0
2378,-0.006323208416733096,0
2379,0.0383700324988356,0
2380,0.31887558620966083,0
2381,3.930910860056959,0
2382,6.740664476724887,0
2383,-0.9004464132831109,0
2384,-1.5949447498902727,0
2385,1.4550171872831241,0
2386,-0.7787593053602875,0
2387,0.11492917985234585,0
2388,0.0356969363699602,0
2389,-0.0027150346546066795,0
2390,0.04765708739948413,0
2391,0.0030077378817042026,0
2392,-0.005655520934501364,0
2393,-0.04623843426284721,0
2394,0.02593775304546952,0
2395,-0.054517686273612996,0
2396,-0.039255020298966284,0
2397,0.11015345915521602,0
2398,0.09413945997780927,0
2399,-0.008457071308048306,0
2400,0.38753595024603754,0
2401,3.888526581269116,0
2402,6.698796736722265,0
2403,-1.0201727190799772,0
2404,-1.6528669244076668,0
2405,1.381620470974279,0
2406,-0.7653478616601856,0
2407,0.133799517317784,0
2408,-0.10468230042925927,0
2409,-0.046182211060264614,0
2410,0.05849210957923276,0
2411,-0.10544152999068163,0
2412,-0.0645503810963474,0
2413,-0.10903528546923649,0
2414,0.017173255195748457,0
2415,0.054281888602974,0
2416,0.05864631420850515,0
2417,-0.017384901280149384,0
2418,0.02092745274482454,0
2419,-0.004625967217876184,0
2420,0.3509906312497656,0
2421,4.07158909241504,0
2422,6.66309290998988,0
2423,-0.8061105280544141,0
2424,-1.603989065508444,0
2425,1.3925080640213299,0
2426,-0.8040786088803568,0
2427,0.17945213251948572,0
2428,-0.04975413519817479,0
2429,0.05164685652966812,0
2430,-0.013832010378694238,0
2431,-0.01655644397079117,0
2432,0.07564531877591851,0
2433,0.06196362835064582,0
2434,0.19029495793102508,0
2435,-0.03419042264330774,0
2436,-0.009994374032524487,0
2437,-0.05391731278181032,0
2438,0.041020318785576104,0
2439,-0.029475964845097832,0
2440,0.3066103946914367,0
2441,3.97250416923537,0
2442,6.718450037304012,0
2443,-0.8593980586064474,0
2444,-1.5282182161536575,0
2445,1.4509248850360121,0
2446,-0.7609552164352138,0
2447,0.1804682677092081,0
2448,0.048474030340814905,0
2449,-0.09603124028591675,0
2450,-0.04477700060931475,0
2451,-0.022258881066015413,0
2452,0.042998598447790366,0
2453,-0.04069106973903873,0
2454,-0.015767253885736125,0
2455,-0.013829747723109246,0
2456,-0.024686352960179243,0
2457,0.05407117291348092,0
2458,0.011027370716257354,0
2459,-0.03239423178676726,0
2460,0.35149603770618487,0
2461,4.023710769727586,0
2462,6.762234241071335,0
2463,-0.7942834524322435,0
2464,-1.5823416322368515,0
2465,1.466022560930338,0
2466,-0.6881000300014363,0
2467,0.18236770830318405,0
2468,-0.01807405865382954,0
2469,0.013231656388578518,0
2470,-0.013556468235676706,0
2471,-0.06406576690660483,0
2472,0.010713555550993905,0
2473,0.08006282768665375,0
2474,0.039073661376502825,0
2475,-0.07748993865688421,0
2476,0.04333198639127448,0
2477,0.009742453051823106,0
2478,-0.02955937418368593,0
2479,0.000941567005552358,0
2480,0.3697877396279669,0
2481,4.013329822656417,0
2482,6.789960256205284,0
2483,-0.9956039389445315,0
2484,-1.5841536118672763,0
2485,1.4783447328220718,0
2486,-0.6991056563977535,0
2487,0.2557104284563961,0
2488,0.03563796345739391,0
2489,-0.020552160145645017,0
2490,0.04932842971305564,0
2491,0.014139033732982125,0
2492,-0.010548440833391886,0
2493,-0.018631609763982426,0
2494,0.12356031052896878,0
2495,-0.04230516998626477,0
2496,0.001015418975705746,0
2497,0.05474103237530196,0
2498,-0.02603103511458197,0
2499,0.022277713346335385,0
2500,0.32661683147475556,0
2501,3.9374709584183907,0
2502,6.748857388304204,0
2503,-0.889154446671197,0
2504,-1.5376810911438856,0
2505,1.4443675604015584,0
2506,-0.8458220666399225,0
2507,0.1833118534202503,0
2508,0.06943643075519819,0
2509,-0.048957537965327494,0
2510,0.10153901986139076,0
2511,0.019356655304064874,0
2512,0.02340486409214811,0
2513,0.04237244956726023,0
2514,-0.02757165878855724,0
2515,0.06507637771846865,0
2516,-0.016449908717206817,0
2517,0.06251909716483275,0
2518,-0.0589730237353431,0
2519,-0.07362903502808282,0
2520,0.3729875929342191,0
2521,3.9053038402342755,0
2522,6.678717405042607,0
2523,-0.911746612107206,0
2524,-1.6101206501512597,0
2525,1.5368410334874805,0
2526,-0.6878013861008512,0
2527,0.23739715368685393,0
2528,-0.0018536367923788766,0
2529,0.028749975275819507,0
2530,0.06051848148229108,0
2531,0.018536972054143577,0
2532,-0.0033349115618818634,0
2533,-0.1899652831277096,0
2534,-0.03125380394788706,0
2535,-0.04929534369317285,0
2536,0.09253132315923576,0
2537,0.061129392594020344,0
2538,0.04251340898305616,0
2539,0.04680851206207322,0
2540,0.35701338191829307,0
2541,3.986563664985135,0
2542,6.631155309519626,0
2543,-0.8644560840944127,0
2544,-1.5633852914381343,0
2545,1.5268195483856553,0
2546,-0.7431753357817286,0
2547,0.30963691391045534,0
2548,0.03086400210787375,0
2549,0.050731480934775273,0
2550,0.051699969532529394,0
2551,-0.0022005684683962887,0
2552,-0.043087278254059294,0
2553,-0.08566575223326159,0
2554,-0.003191361457960947,0
2555,-0.09568288924013409,0
2556,-0.07478661761570664,0
2557,0.0011203160231394354,0
2558,-0.037742815471984145,0
2559,0.027071860053902233,0
2560,0.31408324782147923,0
2561,3.9205272526958495,0
2562,6.690213618004191,0
2563,-0.9275340443820996,0
2564,-1.5744357601386494,0
2565,1.4808631070908995,0
2566,-0.789009631668618,0
2567,0.22014067825977707,0
2568,-0.13853687528755088,0
2569,0.019987566279759852,0
2570,-0.013957321615471186,0
2571,-0.03807727206909396,0
2572,-0.12363854993962158,0
2573,-0.05350754058175393,0
2574,0.001845894218285904,0
2575,-0.07321323805120132,0
2576,-0.0448896425617383,0
2577,-0.02089944930990565,0
2578,-0.1311869592465227,0
2579,-0.10355087421164572,0
2580,0.29318186646597066,0
2581,3.9284647791251186,0
2582,6.650055660786685,0
2583,-0.9657396312896236,0
2584,-1.564765118468835,0
2585,1.4527715609291485,0
2586,-0.8004674378364667,0
2587,0.1505670023604558,0
2588,0.020628453830452358,0
2589,0.10499202970866989,0
2590,0.09499996925003423,0
2591,0.030286067899500235,0
2592,0.06684440401926367,0
2593,0.144771002379086,0
2594,0.042901852176652655,0
2595,0.18539888116049338,0
2596,-0.0254655344135765,0
2597,0.053851472190770605,0
2598,0.006938744449335793,0
2599,0.005889917366049544,0
2600,0.32645138509337185,0
2601,3.977435267890883,0
2602,6.71910554557016,0
2603,-0.9749560447195951,0
2604,-1.5068434480030009,0
2605,1.4354981748267526,0
2606,-0.8374826284045854,0
2607,0.21126712291493324,0
2608,0.03741700255980793,0
2609,-0.06678079529960511,0
2610,0.042601248731816185,0
2611,-0.06940385899015031,0
2612,-0.016944406148032776,0
2613,0.0684077997376536,0
2614,-0.02392591380668242,0
2615,-0.045841157195589816,0
2616,-0.05882683131639754,0
2617,-0.027602562247819807,0
2618,-0.01510605878273268,0
2619,0.033490122985520294,0
2620,0.35332802144257863,0
2621,3.8983354106388624,0
2622,6.701065353599189,0
2623,-1.0016319066319028,0
2624,-1.4858077808298007,0
2625,1.413560697924511,0
2626,-0.7559561887650261,0
2627,0.18456077160472842,0
2628,0.05538877065081925,0
2629,0.014543848642686097,0
2630,0.04499325858038698,0
2631,-0.054136206775685876,0
2632,0.05021657467239147,0
2633,-0.04302043164866043,0
2634,-0.033296220694560265,0
2635,-0.005100387357110455,0
2636,-0.02823219894315613,0
2637,-0.06136915392826549,0
2638,0.00910647790345027,0
2639,-0.05374545621714766,0
2640,0.42899660894142,0
2641,4.037737634972897,0
2642,6.689710136026973,0
2643,-1.003959127052757,0
2644,-1.5443585990058142,0
2645,1.4589924863236194,0
2646,-0.7880852465874881,0
2647,0.20657097164998814,0
2648,-0.06993873342543909,0
2649,-0.09334409060967237,0
2650,0.017165346497019285,0
2651,-0.04916976733804054,0
2652,-0.02244218523987493,0
2653,-0.15172359659639656,0
2654,-0.09338242512056193,0
2655,-0.023275289165973743,0
2656,-0.05054314782128613,0
2657,-0.0806976444932068,0
2658,-0.027981320067010804,0
2659,-0.0064903321474272385,0
2660,0.46700381294679055,0
2661,4.0626312799924795,0
2662,6.712145522355162,0
2663,-0.8335268423454798,0
2664,-1.4630143401951685,0
2665,1.5057609568410533,0
2666,-0.7972947813758231,0
2667,0.23621046847631494,0
2668,-0.02622838866716707,0
2669,-0.007246697104852526,0
2670,-0.07169735660482371,0
2671,-0.026539462625478787,0
2672,-0.041344463096651234,0
2673,-0.1152050106167856,0
2674,-0.07445971635374567,0
2675,0.01656687173309595,0
2676,-0.10713131003826494,0
2677,-0.04684063926560582,0
2678,-0.031203115512538612,0
2679,0.03731855604597418,0
2680,0.3417501640373222,0
2681,3.9687362081693895,0
2682,6.5844401056070625,0
2683,-0.9917748880778988,0
2684,-1.6442674724826682,0
2685,1.3859565811590397,0
2686,-0.7679631910654245,0
2687,0.14836801124062504,0
2688,-0.08079716469358067,0
2689,-0.0629199907367767,0
2690,-0.0064554306260082295,0
2691,-0.03477382860427864,0
2692,-0.025644991570014194,0
2693,-0.037042680539472385,0
2694,-0.07111987248652601,0
2695,-0.016864692740276955,0
2696,-0.08544112656333011,0
2697,-0.028246715043231146,0
2698,-0.05358811171261929,0
2699,0.08757039442711133,0
2700,0.3635551995798304,0
2701,4.00653190440257,0
2702,6.639398014627233,0
2703,-0.8794926976442945,0
2704,-1.5195393617202098,0
2705,1.4417084838862335,0
2706,-0.778403306139962,0
2707,0.1685523456312913,0
2708,-0.03183343409548274,0
2709,-0.08581098375551036,0
2710,-0.05884601705011544,0
2711,-0.062262081641123256,0
2712,-0.11607549373382861,0
2713,-0.015026598341039643,0
2714,-0.08813093785599703,0
2715,-0.08375214749486362,0
2716,-0.07417786413764908,0
2717,-0.10644776150734644,0
2718,-0.03883694888711259,0
2719,-0.054627290011397885,0
2720,0.34413384816988096,1
2721,2.2228724075712267,1
2722,4.0216901999661285,1
2723,5.482821128046532,1
2724,5.891465059844502,1
2725,1.7961068405406466,1
2726,-1.1228338566897227,1
2727,-1.3768014280676535,1
2728,-0.9990905266768608,1
2729,0.6491597972796249,1
2730,0.840650304327132,1
2731,-0.36660685593997644,1
2732,-0.474655216312239,1
2733,0.018739138321159282,1
2734,0.13884351563971428,1
2735,-0.11055348484199362,1
2736,-0.08747181107144764,1
2737,-0.07932374681782405,1
2738,-0.05541908945854046,1
2739,-0.09923807588562204,1
2740,-0.028729483391239954,1
2741,-0.06701947606629954,1
2742,0.0010582538466552688,1
2743,0.03483272691109476,1
2744,0.014554121587114586,1
2745,-0.023524348171051958,1
2746,-0.16838348310698092,1
2747,-0.011978687721072176,1
2748,-0.023413345140031915,1
2749,-0.09175614838735557,1
2750,0.2016756402348526,1
2751,3.9561784748050917,1
2752,6.705205367317331,1
2753,-1.0599082153824377,1
2754,-1.5955924798377121,1
2755,1.3663477980722478,1
2756,-0.7455098658135935,1
2757,0.15767065546816333,1
2758,-0.07977884608171718,1
2759,-0.04493529091491846,1
2760,0.020862412338926054,1
2761,-0.03317371299012263,1
2762,0.019006271962708876,1
2763,-0.054381214183184784,1
2764,-0.10795930294774306,1
2765,-0.027132755967603082,1
2766,0.011093966545428526,1
2767,-0.04921618503875426,1
2768,0.050674607875522706,1
2769,-0.0567509630403685,1
2770,0.2677197951574032,1
2771,3.955427333053234,1
2772,6.582936388619105,1
2773,-1.0591307615434407,1
2774,-1.511997728807744,1
2775,1.3066983680858404,1
2776,-0.8184705667086065,1
2777,0.08283391448138716,1
2778,0.05070077735852076,1
2779,-0.05954728766331069,1
2780,-0.053765343170846754,1
2781,-0.10839454913338756,1
2782,-0.05649886567416855,1
2783,-0.06895529229830945,1
2784,-0.08107338804854951,1
2785,-0.058601587205702146,1
2786,0.005389761973230307,1
2787,0.0758541359242921,1
2788,0.009941965294761913,1
2789,0.014510046925209193,1
2790,0.44243263683005324,1
2791,3.970343301506509,1
2792,6.6590165767834435,1
2793,-1.0119956257193288,1
2794,-1.4121547022600267,1
2795,1.5285127326051706,1
2796,-0.8337629513709314,1
2797,0.2362547722359055,1
2798,-0.08951875398779668,1
2799,0.0066989689277382435,1
2800,0.028801658224275932,1
2801,-0.03452479533814075,1
2802,0.006315380275795795,1
2803,-0.028918542917500505,1
2804,0.005575482843976321,1
2805,-0.042189789534868335,1
2806,0.007909604426863025,1
2807,-0.03634315258960827,1
2808,-0.05482669254642642,1
2809,0.019629252872100184,1
2810,0.4292452385443836,1
2811,4.042415229995925,1
2812,6.704944869799212,1
2813,-1.0055145804737091,1
2814,-1.5520105861598241,1
2815,1.4555305667799439,1
2816,-0.7558152718122457,1
2817,0.24670025901551548,1
2818,0.014164615754892352,1
2819,0.02643455845529302,1
2820,0.4134310351043621,0
2821,4.070093923505256,0
2822,6.5933813746625844,0
2823,-0.9993372285300689,0
2824,-1.4595485201666487,0
2825,1.3759410131497791,0
2826,-0.7763255291814161,0
2827,0.21519179021318985,0
2828,-0.0638092478907108,0
2829,-0.13693487438007285,0
2830,-0.06316013515242447,0
2831,-0.03629832987390159,0
2832,-0.020437174332806007,0
2833,-0.009079469672116793,0
2834,-0.023115753794408632,0
2835,-0.05992024980967693,0
2836,0.011685252881406205,0
2837,-0.09263201691003117,0
2838,-0.15683362616168722,0
2839,-0.12255376962704392,0
2840,0.45233649423998457,0
2841,4.026050378361993,0
2842,6.632970552956649,0
2843,-1.0011032442259287,0
2844,-1.4968934581179667,0
2845,1.4134353599558076,0
2846,-0.7570306558515012,0
2847,0.25601907096548615,0
2848,0.07028564757805017,0
2849,-0.014200785937076833,0
2850,0.09800438030273191,0
2851,-0.010144229736486716,0
2852,-0.009189976636092691,0
2853,0.033522654913830614,0
2854,-0.027908938850590478,0
2855,0.04034401497662973,0
2856,0.03998585010661444,0
2857,0.07859641706072161,0
2858,-0.010189026664425518,0
2859,0.013352563800406812,0
2860,0.42406204197970276,0
2861,4.064041051123365,0
2862,6.620537537625974,0
2863,-0.9797154862648395,0
2864,-1.3297901142588857,0
2865,1.5174303027118108,0
2866,-0.6806169186789812,0
2867,0.3385649801425138,0
2868,0.05694990339756219,0
2869,0.03861790890009839,0
2870,0.13764185063579112,0
2871,0.10004386771572446,0
2872,-0.019202659043903503,0
2873,0.14324274585414082,0
2874,0.03975397789363966,0
2875,0.15540894269411282,0
2876,0.15011358467881003,0
2877,0.054414205505232995,0
2878,0.10509672217531027,0
2879,0.03457959706244925,0
2880,0.5729066631847454,0
2881,4.017295999657788,0
2882,6.666944762064452,0
2883,-1.0837030222070876,0
2884,-1.4610822792692746,0
2885,1.5260184100310161,0
2886,-0.7494440914302053,0
2887,0.2514440397407571,0
2888,-0.012264972902125013,0
2889,0.03683469910306232,0
2890,0.17630618161868156,0
2891,0.05723440199929149,0
2892,0.05256034070725793,0
2893,0.12005831847527243,0
2894,0.10575845273754919,0
2895,0.0942575338068865,0
2896,0.034322107597347024,0
2897,0.020654645871330868,0
2898,0.005583368136917115,0
2899,0.07364133401635065,0
2900,0.40044989315964324,0
2901,4.0058616445478,0
2902,6.716655793039822,0
2903,-0.9993366874910828,0
2904,-1.4057436934516783,0
2905,1.4765341976043047,0
2906,-0.7320301228461142,0
2907,0.21494647640665895,0
2908,-0.03359302804885116,0
2909,0.09020113941214904,0
2910,0.07410467156452714,0
2911,0.08837322656591215,0
2912,0.06854739761132872,0
2913,0.030472580488350866,0
2914,0.054413207097540855,0
2915,0.10376635955539532,0
2916,0.07062231178624334,0
2917,-0.0062052593224116576,0
2918,0.08993872330829147,0
2919,0.08232497537847142,0
2920,0.43295456915653596,0
2921,4.130161263443227,0
2922,6.712844864435925,0
2923,-0.9719039517865496,0
2924,-1.4644989031792128,0
2925,1.488744757458235,0
2926,-0.7400072119830007,0
2927,0.22577698491588613,0
2928,-0.0039057879943192736,0
2929,0.03383320365274267,0
2930,0.03854970245634196,0
2931,0.031938314906649896,0
2932,0.08572721386666443,0
2933,0.02906815595970432,0
2934,0.02757458318458597,0
2935,0.0924283654259712,0
2936,0.01166208196748094,0
2937,0.07089743094788928,0
2938,0.025165039472947508,0
2939,0.061172646731127586,0
2940,0.49292444194283014,0
2941,4.1256312180384,0
2942,6.758714629629639,0
2943,-1.0113716071224397,0
2944,-1.4366856984137115,0
2945,1.459596023730015,0
2946,-0.734440913984053,0
2947,0.33799449445695995,0
2948,0.036698208181079876,0
2949,0.058725744364479436,0
2950,0.030194195024665055,0
2951,0.056482804031664925,0
2952,0.03308355926761526,0
2953,0.09067589434244025,0
2954,-0.0431788534635239,0
2955,0.10460232760704444,0
2956,0.04783314729950514,0
2957,0.03089321077679897,0
2958,0.11620770581828122,0
2959,0.00960662454357674,0
2960,0.44859394409058856,0
2961,4.1253457125379205,0
2962,6.875132064124882,0
2963,-0.9689449442916342,0
2964,-1.4241648623929604,0
2965,1.5207196468810908,0
2966,-0.7321415404288721,0
2967,0.35877398560779356,0
2968,0.07147711199809771,0
2969,0.026812072717404312,0
2970,0.046016512792701615,0
2971,0.05111822026533839,0
2972,0.10251070342122814,0
2973,0.13220578008535894,0
2974,0.14903462578911042,0
2975,0.04445485984015142,0
2976,-0.021101026216046162,0
2977,0.07399237452997671,0
2978,0.05646220609860188,0
2979,-0.03753260773127107,0
2980,0.5288831828903284,0
2981,4.078857224750324,0
2982,6.635013074343486,0
2983,-0.9836921325615506,0
2984,-1.4881412745232667,0
2985,1.409321225401361,0
2986,-0.8087597474495122,0
2987,0.23477926112143468,0
2988,-0.008445201613009814,0
2989,-0.013801079833434045,0
2990,-0.03468342848154709,0
2991,-0.1031264184185905,0
2992,0.009138024306233622,0
2993,0.07839396683731642,0
2994,0.12770136557997022,0
2995,0.0427590728117639,0
2996,-0.015042666420540642,0
2997,-0.03047290294489877,0
2998,-0.0016750964255089987,0
2999,-0.0005200891784926526,0
3000,0.3868725228078405,0
3001,4.024951153175893,0
3002,6.560540656384916,0
3003,-1.0838472704583286,0
3004,-1.3817291067510833,0
3005,1.4374394341380594,0
3006,-0.7595817434213349,0
3007,0.28258581880598466,0
3008,-0.03574347021970113,0
3009,0.006955231985785883,0
3010,0.021431218205594998,0
3011,0.009918331632450917,0
3012,0.04260484264443845,0
3013,0.015451712251034914,0
3014,-0.045386700579253175,0
3015,0.020898331766854447,0
3016,-0.07531495491766893,0
3017,-0.035761631077593975,0
3018,-0.0419820133808427,0
3019,0.021744332948014217,0
3020,0.44454802396875015,0
3021,4.016978206280418,0
3022,6.583505376487604,0
3023,-1.0531393951818202,0
3024,-1.3943008858381727,0
3025,1.4678375198983717,0
3026,-0.824544034727763,0
3027,0.2187403919913084,0
3028,0.007314859534809681,0
3029,-0.06746841069172675,0
3030,0.06231650612437833,0
3031,0.005384354936133721,0
3032,0.04641532037674309,0
3033,-0.041936679159980145,0
3034,-0.007528722583447752,0
3035,0.05194188898757816,0
3036,0.009429690394378585,0
3037,-0.0034437688110877922,0
3038,-0.04840122051648009,0
3039,0.052730421350450404,0
3040,0.42834309415672744,0
3041,3.9782675547626876,0
3042,6.562426571179747,0
3043,-1.092972138652745,0
3044,-1.462665295288991,0
3045,1.4675314930600314,0
3046,-0.8286013234608538,0
3047,0.2093185104258951,0
3048,-0.08682628910965434,0
3049,0.019393360639984147,0
3050,0.022032044672922906,0
3051,0.016070543518902282,0
3052,-0.0803026373514579,0
3053,0.057722277536899055,0
3054,0.042305080300242486,0
3055,0.03804231267139083,0
3056,-0.043983547954367465,0
3057,0.053772393101018195,0
3058,-0.023276174298698035,0
3059,-0.054413409362307846,0
3060,0.40065569244772126,0
3061,4.022436369564837,0
3062,6.4942883955467705,0
3063,-1.0273912555654905,0
3064,-1.4638624653933157,0
3065,1.4097068074213939,0
3066,-0.811431740738912,0
3067,0.28490348049445,0
3068,-0.02345310989219777,0
3069,-0.06612912651369553,0
3070,0.05279294569406166,0
3071,-0.06466055594392728,0
3072,0.007357415858342849,0
3073,-0.0041308832401847,0
3074,-0.08180569632762091,0
3075,-0.10516650983630685,0
3076,-0.03646391118496138,0
3077,0.054217816269027067,0
3078,-0.06506749550711224,0
3079,-0.049634888043507144,0
3080,0.4089049278886628,0
3081,3.9441060993619708,0
3082,6.562138402089828,0
3083,-1.0935511136050122,0
3084,-1.4796689245303798,0
3085,1.3622880324831406,0
3086,-0.8811145890915003,0
3087,0.14676730462865897,0
3088,0.014100239358262379,0
3089,-0.06310948993058552,0
3090,0.036894169855696074,0
3091,0.04817235997750432,0
3092,-0.055776920278537395,0
3093,-0.10716336225155756,0
3094,-0.07495306108958452,0
3095,-0.006932027479470582,0
3096,-0.07202883879007288,0
3097,-0.08906013902540473,0
3098,-0.05899752564564056,0
3099,-0.08588276063217015,0
3100,0.38768247361879926,0
3101,3.9602768909275445,0
3102,6.63795979317484,0
3103,-1.1260924640072998,0
3104,-1.5979111230288934,0
3105,1.4547302018081392,0
3106,-0.7909928387953941,0
3107,0.19389731840056937,0
3108,-0.10081553428822758,0
3109,-0.11284287313520891,0
3110,0.05964089486175737,0
3111,-0.05018494577340611,0
3112,-0.02502704202369501,0
3113,-0.07867251912860798,0
3114,-0.01610670824980518,0
3115,-0.0026203033824208286,0
3116,-0.05909899983550182,0
3117,-0.04387212514175272,0
3118,-0.14002641839885077,0
3119,-0.05015479318492738,0
3120,0.30776101200360745,0
3121,4.054381684109339,0
3122,6.572733480293414,0
3123,-1.202125972781701,0
3124,-1.5476020863764253,0
3125,1.294423234219511,0
3126,-0.8745401159594578,0
3127,0.11464025159242039,0
3128,-0.0576023087622454,0
3129,-0.03672194614362162,0
3130,-0.0352104034929585,0
3131,-0.15599152322837645,0
3132,0.025948181031346773,0
3133,-0.15057766106621773,0
3134,-0.005115250538725712,0
3135,0.018254140862469813,0
3136,-0.017895392529112545,0
3137,-0.076276260633397,0
3138,0.07644438505973912,0
3139,-0.019612761854699682,0
3140,0.36230947749046455,0
3141,4.0937547592633265,0
3142,6.662384186984823,0
3143,-1.0933395070914087,0
3144,-1.4243921783366116,0
3145,1.48191611773791,0
3146,-0.6773710262906376,0
3147,0.191869192091792,0
3148,0.03349071692557055,0
3149,-0.06825738494557423,0
3150,0.0005424110821117198,0
3151,-0.028880249314967674,0
3152,-0.05182880408042755,0
3153,-0.0798566663044246,0
3154,-0.11123410435560946,0
3155,-0.004939198578317462,0
3156,0.07524367462499469,0
3157,0.02255980454267282,0
3158,-0.043730386163641534,0
3159,0.04581572730962714,0
3160,0.3285286664640429,0
3161,3.9876074232494574,0
3162,6.6219996535708665,0
3163,-1.1640049497405782,0
3164,-1.3886315086028427,0
3165,1.391334000137145,0
3166,-0.8114377466899649,0
3167,0.27555807398510906,0
3168,-0.03542677469116654,0
3169,0.048797531980350445,0
3170,0.013449813792625831,0
3171,0.018104476405740522,0
3172,-0.020087717014171363,0
3173,0.05738664444497475,0
3174,-0.003169536150636713,0
3175,-0.009863003061748908,0
3176,-0.04070915727765107,0
3177,2.289143086373069e-05,0
3178,0.0005783667178251711,0
3179,-0.022806527535158636,0
3180,0.2704600660725536,0
3181,4.048965416570533,0
3182,6.63833902309429,0
3183,-1.1847237381071885,0
3184,-1.478650380680798,0
3185,1.3367881083274482,0
3186,-0.788758015136426,0
3187,0.16645086385480984,0
3188,-0.10060383991152781,0
3189,-0.053660738660882876,0
3190,-0.00618205810941913,0
3191,-0.024628625302224642,0
3192,-0.024896268350588398,0
3193,-0.08405722983792914,0
3194,-0.023108621773658928,0
3195,0.08984617205477623,0
3196,0.053922174122234226,0
3197,0.046286082484888136,0
3198,-0.004254552451279866,0
3199,-0.009384845319251444,0
3200,0.35941933619359623,0
3201,3.9641370559701845,0
3202,6.580935535875111,0
3203,-1.1190451630745473,0
3204,-1.512994456142105,0
3205,1.3453467119084572,0
3206,-0.7322233734203524,0
3207,0.1933260768320214,0
3208,-0.0927785386251446,0
3209,-0.07863704664294204,0
3210,-0.04411475368370995,0
3211,-0.10704348146183734,0
3212,-0.0476733133274309,0
3213,-0.040861385692752925,0
3214,0.07250626675090775,0
3215,-0.02595492330392824,0
3216,-0.018730954123358307,0
3217,0.006285647509423321,0
3218,0.032058939135823326,0
3219,-0.010860994285439095,0
3220,0.41000148314369145,0
3221,4.104239150789998,0
3222,6.520210506458546,0
3223,-1.1458038431870927,0
3224,-1.5120419654960167,0
3225,1.4791712503053875,0
3226,-0.75467233297258,0
3227,0.22741425638582516,0
3228,-0.08369241739194996,0
3229,-0.1309546794668035,0
3230,0.0013271866731141176,0
3231,-0.1062626072926999,0
3232,-0.037947015545901894,0
3233,-0.06868309787555861,0
3234,-0.08818107209588338,0
3235,0.07805882545117704,0
3236,-0.05120624380814971,0
3237,-0.07788672419137524,0
3238,-0.12251457068718,0
3239,-0.012381484498838021,0
3240,0.44161069197708386,0
3241,4.092800466018738,0
3242,6.560563219157281,0
3243,-1.0560665319570497,0
3244,-1.4548164685235665,0
3245,1.4152400288852087,0
3246,-0.7518517787247221,0
3247,0.22486435690556503,0
3248,-0.0524272356040056,0
3249,-0.04317624887491136,0
3250,-0.07225414185391434,0
3251,-0.0644716066667039,0
3252,0.078092673920062,0
3253,-0.006153291599685158,0
3254,0.0175937375126504,0
3255,-0.033907064135013154,0
3256,0.025404755159379025,0
3257,0.007879908434684904,0
3258,-0.005936578335566873,0
3259,-0.023792176259697147,0
3260,0.3804645232708536,0
3261,4.0843247967892555,0
3262,6.675736904352518,0
3263,-1.0489960328583199,0
3264,-1.3810980888074549,0
3265,1.395195514962028,0
3266,-0.8143495809640268,0
3267,0.18094988997289074,0
3268,-0.009272581992175559,0
3269,-0.13749299339882035,0
3270,-0.05279408285226345,0
3271,-0.06237705214988694,0
3272,-0.03941936519293447,0
3273,0.05013841821266706,0
3274,-0.08260754854554654,0
3275,0.02356839639990588,0
3276,-0.08037920900639678,0
3277,-0.023307217089386434,0
3278,0.023576519588735367,0
3279,0.08232090067713976,0
3280,0.5051206746317762,0
3281,4.21967414667974,0
3282,6.665334703706581,0
3283,-0.9761817198311126,0
3284,-1.2732915915673972,0
3285,1.5147891345979394,0
3286,-0.6724525660730748,0
3287,0.25552012220726056,0
3288,0.16242338732327566,0
3289,0.032345351152633484,0
3290,0.007581120363362299,0
3291,0.03604303340911176,0
3292,-0.017405679074680738,0
3293,-0.18733492777879196,0
3294,-0.07500037485170666,0
3295,-0.06483492669456234,0
3296,-0.03797127351792916,0
3297,0.03091700483521434,0
3298,-0.05510278095263303,0
3299,-0.03845740238158152,0
3300,0.3283466824140453,0
3301,4.097873101883538,0
3302,6.600138855541474,0
3303,-1.0777486939313066,0
3304,-1.4164563972814566,0
3305,1.3806044871565981,0
3306,-0.8054328430115558,0
3307,0.23237704792643493,0
3308,-0.009324707540161582,0
3309,0.00827259691304504,0
3310,0.01772502787848735,0
3311,-0.03345992718825977,0
3312,0.05341719879071969,0
3313,0.04961646344765509,0
3314,0.007940608738338373,0
3315,0.06305659960509029,0
3316,0.01950266191754605,0
3317,-0.03568842075595027,0
3318,-0.03691176014669679,0
3319,0.0007685052319083199,0
3320,0.3543439148933279,0
3321,4.0956574245635595,0
3322,6.498252744354749,0
3323,-1.1417498513203561,0
3324,-1.450192133563729,0
3325,1.346281665741179,0
3326,-0.74652398729963,0
3327,0.1988759684224973,0
3328,0.07243509128877225,0
3329,0.019717595355973287,0
3330,0.08657150540948932,0
3331,0.04236174227361181,0
3332,0.12347528589423612,0
3333,0.12042796257802885,0
3334,0.042369807179811134,0
3335,0.11624403394093633,0
3336,0.07537436916177016,0
3337,0.041447208953828946,0
3338,0.09189178078345558,0
3339,-0.008799359218372958,0
3340,0.4557230179105186,0
3341,4.085984523408056,0
3342,6.692265282045989,0
3343,-1.1510344956345038,0
3344,-1.3251450718259195,0
3345,1.3980551269055568,0
3346,-0.7495046023512267,0
3347,0.19851564871856167,0
3348,-0.06859887582552865,0
3349,0.0005103734610030219,0
3350,-0.024510814017605263,0
3351,0.08109508321680234,0
3352,0.006875279042280417,0
3353,0.08767864381601982,0
3354,-0.08570225512516448,0
3355,0.05482861684688982,0
3356,0.019808731442321287,0
3357,-0.03336085416819532,0
3358,-0.03465087065481884,0
3359,0.011551024520518052,0
3360,0.4731553353463091,0
3361,4.253200031820942,0
3362,6.7243421518546365,0
3363,-0.9954546559657725,0
3364,-1.2608970024374724,0
3365,1.494985939191085,0
3366,-0.7073102956473447,0
3367,0.31901531537631617,0
3368,0.1010418917133431,0
3369,-0.01850451865340786,0
3370,0.07899814759799412,0
3371,0.04900832241750666,0
3372,0.08426192390021192,0
3373,-0.037644654018031715,0
3374,0.03175358586829469,0
3375,-0.03651014258734091,0
3376,-0.05462202131650172,0
3377,0.05926647890525508,0
3378,0.017906492196875824,0
3379,-0.011968513791302482,0
3380,0.4027816976126279,0
3381,4.121336639882359,0
3382,6.570635755554317,0
3383,-1.1721282931442882,0
3384,-1.3518064433107948,0
3385,1.4970479828914112,0
3386,-0.7730224115684664,0
3387,0.2809731397921368,0
3388,-0.028179524858099377,0
3389,0.1359832730783243,0
3390,0.029203971928156654,0
3391,0.018584838489827206,0
3392,0.03377280762896684,0
3393,0.003820647398666409,0
3394,0.008918616272491808,0
3395,0.091893093609549,0
3396,0.09771510046640577,0
3397,0.016246887832723,0
3398,0.09647567211820375,0
3399,0.05023845067319213,0
3400,0.4253882236372537,0
3401,4.160422094376592,0
3402,6.562641596729848,0
3403,-1.178079278820189,0
3404,-1.4334687264304515,0
3405,1.5477019176282818,0
3406,-0.687077507919347,0
3407,0.2862288195355926,0
3408,0.04461520713609213,0
3409,-0.0013697471169257375,0
3410,0.04678743860382605,0
3411,0.11984144630029447,0
3412,0.07377383948842953,0
3413,-0.0067440029136570795,0
3414,0.011163403871636016,0
3415,0.015329523516813427,0
3416,0.03303926951152364,0
3417,-0.0011298421274495707,0
3418,0.020240544230276804,0
3419,0.04761047736856455,0
3420,0.43963849124099497,0
3421,4.134822954584552,0
3422,6.598425030373783,0
3423,-1.1715808377616106,0
3424,-1.3785135026637847,0
3425,1.3691205780992928,0
3426,-0.852590502379601,0
3427,0.19018421344239383,0
3428,0.01861860874690426,0
3429,0.035791805638627855,0
3430,0.06044500032064719,0
3431,-0.0721747630753288,0
3432,0.01198920575344087,0
3433,-0.0012601038473584614,0
3434,-0.059404081368103746,0
3435,0.009767975319843433,0
3436,-0.03749360748610467,0
3437,-0.08392499175035714,0
3438,-0.01800140659842318,0
3439,-0.030907893042450483,0
3440,0.38030135536598514,0
3441,4.140554015373787,0
3442,6.504229137379615,0
3443,-1.2309458768939585,0
3444,-1.397116225315402,0
3445,1.4660304967844748,0
3446,-0.8074695543094488,0
3447,0.14239435118956326,0
3448,-0.16364687518854695,0
3449,-0.08536251238159875,0
3450,-0.050167138045574045,0
3451,0.052182878023210255,0
3452,0.02992248884089728,0
3453,0.009977265658092566,0
3454,0.013783560634914083,0
3455,-0.011864438151500081,0
3456,-0.003497704920074552,0
3457,-0.019454442126537845,0
3458,0.04825481619779469,0
3459,0.020480578069110297,0
3460,0.48315229471698196,0
3461,4.157090927171212,0
3462,6.561140481405447,0
3463,-1.214619585646072,0
3464,-1.3745836273780483,0
3465,1.4211488684337685,0
3466,-0.7573536921819687,0
3467,0.24188119576128936,0
3468,-0.08057274462606501,0
3469,-0.0046813976165457,0
3470,-0.029393956577777797,0
3471,-0.072442770450734,0
3472,0.0272963982296708,0
3473,0.1663874323796503,0
3474,0.006968913694417414,0
3475,0.0673841433407871,0
3476,-0.12527085877350114,0
3477,-0.10969366334103574,0
3478,-0.0011181866660281044,0
3479,0.046275854134843836,0
3480,0.4490864226715358,0
3481,4.132571096528467,0
3482,6.6059792283466425,0
3483,-1.1585239717337286,0
3484,-1.3118460844347435,0
3485,1.441948808136132,0
3486,-0.7537707573401878,0
3487,0.347549112592176,0
3488,0.11139937280388551,0
3489,-0.006857046775103938,0
3490,0.0757770787683495,0
3491,0.032265893991081394,0
3492,0.0879832971512338,0
3493,0.06218462907562026,0
3494,0.0417164362399213,0
3495,0.13218250374457963,0
3496,-0.0017777436680001396,0
3497,0.043515624545622564,0
3498,0.07300998787742113,0
3499,0.07337737172785075,0
3500,0.518566246099189,0
3501,4.064353438129794,0
3502,6.597215319431583,0
3503,-1.188304100675292,0
3504,-1.306897654848964,0
3505,1.4365264101964932,0
3506,-0.730827625896328,0
3507,0.2916094397918135,0
3508,0.03325664381306123,0
3509,0.012163338577741004,0
3510,0.09485489894976859,0
3511,0.05576938747953954,0
3512,0.012077330842563863,0
3513,0.03192631643955018,0
3514,0.07172704518884443,0
3515,0.057107792812124705,0
3516,0.0048497193447728515,0
3517,0.08478994690708386,0
3518,-0.03540830912357834,0
3519,0.06847599032739977,0
3520,0.4596644756082387,0
3521,4.265711919212442,0
3522,6.670673721604859,0
3523,-1.1242144942853218,0
3524,-1.3772001290200662,0
3525,1.4970885926582118,0
3526,-0.8167590501009808,0
3527,0.24782254352028552,0
3528,-0.02881567045931385,0
3529,-0.005509691696694841,0
3530,0.030293991341849704,0
3531,0.07622391044573383,0
3532,-0.039250354365377896,0
3533,0.09584941217510365,0
3534,0.046396118965757654,0
3535,0.09427604182507271,0
3536,0.0757312849482949,0
3537,0.01749515203048893,0
3538,0.051477585048339075,0
3539,0.11273538390842436,0
3540,0.5202855989645813,0
3541,4.208626694919225,0
3542,6.54007827822095,0
3543,-1.294474599143567,0
3544,-1.308009943125251,0
3545,1.4431805462584844,0
3546,-0.7580768729784874,0
3547,0.22507082363494596,0
3548,-0.06886488755215836,0
3549,-0.013123599041743525,0
3550,-0.028608525868771363,0
3551,0.11336657587154797,0
3552,-0.06296523659964456,0
3553,0.07069844453077039,0
3554,-0.007873613171394634,0
3555,0.017082294811897596,0
3556,0.07305185051758403,0
3557,0.07618769226539457,0
3558,0.018381198004801626,0
3559,0.06151402123025414,0
3560,0.5807257313217602,0
3561,4.217084404902179,0
3562,6.593230606462207,0
3563,-1.1034304319335242,0
3564,-1.2993034841104105,0
3565,1.4881164267061506,0
3566,-0.6937372314017223,0
3567,0.37507215838215385,0
3568,0.058434396265817624,0
3569,0.00565393576346539,0
3570,0.03460657211289729,0
3571,0.036444952723003174,0
3572,0.0074661920206517615,0
3573,-0.048042801005037966,0
3574,-0.0413041219387769,0
3575,0.04803154422851047,0
3576,0.044664461564696875,0
3577,-0.021487762715014676,0
3578,-0.006956827815247323,0
3579,0.037989887075439405,0
3580,0.4894020468788897,0
3581,4.179828961699465,0
3582,6.574015733089428,0
3583,-1.1216106016027223,0
3584,-1.4204130281840555,0
3585,1.4020617432391251,0
3586,-0.7128423412776266,0
3587,0.24984068984615382,0
3588,-0.03760715381611279,0
3589,-0.03814105081650759,0
3590,-0.13379089941422373,0
3591,0.054724961195300126,0
3592,0.03441119570078285,0
3593,-0.023791076997762124,0
3594,0.04463717351310606,0
3595,0.08277165198440527,0
3596,0.03466463794857457,0
3597,0.1090411105967197,0
3598,0.044165802706047357,0
3599,0.027938256299982207,0
3600,0.42811738479164974,0
3601,4.232093084181959,0
3602,6.585363961743539,0
3603,-1.219441326492456,0
3604,-1.3193229251926488,0
3605,1.4162042305022047,0
3606,-0.7419499142570116,0
3607,0.26635692546304524,0
3608,0.035844691609746335,0
3609,-0.04946506220563727,0
3610,0.03935606608605294,0
3611,0.017988972530220023,0
3612,-0.0613101570730616,0
3613,-0.02138105804364663,0
3614,0.09749282076516654,0
3615,0.017791567200293318,0
3616,-0.03375048573763282,0
3617,0.11774501098315153,0
3618,0.065893969249102,0
3619,0.05619156722307701,0
3620,0.46676676145513396,0
3621,4.2928399181540735,0
3622,6.662826039136666,0
3623,-1.0476320857293393,0
3624,-1.2506539667173724,0
3625,1.4916961948907792,0
3626,-0.5831804701251965,0
3627,0.29544716606289667,0
3628,0.06283502240325439,0
3629,0.08697129137197664,0
3630,0.05168394272546089,0
3631,0.12919691751696794,0
3632,-0.024964644069627215,0
3633,0.02013985136903498,0
3634,0.06674048943124904,0
3635,0.0393131325253675,0
3636,-0.06580368941664688,0
3637,0.06128354478472759,0
3638,0.028932489852372935,0
3639,0.0045794032114409265,0
3640,0.4119528573201539,0
3641,4.1589821438436525,0
3642,6.569912274514418,0
3643,-1.118936535658338,0
3644,-1.3473724970063454,0
3645,1.3930531752314725,0
3646,-0.7896125732035195,0
3647,0.2140059376320465,0
3648,0.05163284208806896,0
3649,0.025143845217034486,0
3650,0.047352859944681996,0
3651,0.0542937842685261,0
3652,-0.029263478194839466,0
3653,0.07722464948698846,0
3654,0.07803297962731987,0
3655,0.06987503839986521,0
3656,-0.029194771012141234,0
3657,0.006293536227173879,0
3658,0.12166846790097333,0
3659,-0.02224777147385175,0
3660,0.4425678442107244,0
3661,4.204243165097881,0
3662,6.617229056673877,0
3663,-1.136788324571737,0
3664,-1.3091751041704376,0
3665,1.3880400346807977,0
3666,-0.7324249059882485,0
3667,0.28056448165783926,0
3668,0.06380559508688428,0
3669,0.01343946574066061,0
3670,0.09609900589405714,0
3671,0.09601458402271845,0
3672,-0.014459899422266095,0
3673,0.03593009853570079,0
3674,0.04406928428479775,0
3675,0.07685876710703775,0
3676,0.061946354171854415,0
3677,0.07060289709044501,0
3678,0.04306615491012784,0
3679,0.11033076902778305,0
3680,0.5853675796845967,0
3681,4.293226467111149,0
3682,6.759509737631286,0
3683,-1.0648703404510067,0
3684,-1.2280902901144994,0
3685,1.5277608348520988,0
3686,-0.6127229541673728,0
3687,0.3745845958443795,0
3688,0.136940652596084,0
3689,0.038316161110844155,0
3690,0.05897827124048676,0
3691,0.05621533565802766,0
3692,0.0812228147578852,0
3693,0.01846461637655523,0
3694,0.04569960710387787,0
3695,0.07751955533874667,0
3696,0.0943300258125945,0
3697,-0.02626993377034489,0
3698,0.02505975874032491,0
3699,0.0132969573848369,0
3700,0.444612196233161,0
3701,4.21949715282641,0
3702,6.603657105398012,0
3703,-1.1342989707389197,0
3704,-1.238893636268807,0
3705,1.4938895988895575,0
3706,-0.7214182984957633,0
3707,0.24540141995120884,0
3708,0.01624012234405501,0
3709,0.07430620866323151,0
3710,0.07504574938489682,0
3711,0.04602290953652512,0
3712,-0.012087108797645817,0
3713,0.027499043353056293,0
3714,0.011105775029471368,0
3715,0.10036234858014469,0
3716,0.030005238948638734,0
3717,0.07391863985090821,0
3718,0.04030201436918461,0
3719,0.07717972197226111,0
3720,0.5658894194732027,0
3721,4.253260382413761,0
3722,6.5350534153779085,0
3723,-1.15356956263971,0
3724,-1.2555935230072475,0
3725,1.4199957759764383,0
3726,-0.7544501877774259,0
3727,0.31122440096837806,0
3728,-0.07477244668870403,0
3729,0.0658594342007264,0
3730,-0.043026001168298134,0
3731,0.07016831300885168,0
3732,0.01848094021079899,0
3733,-0.05886385806089348,0
3734,-0.014653781261464608,0
3735,-0.008499836851405464,0
3736,-0.013978261537626192,0
3737,0.03134615733655012,0
3738,-0.008993048125444339,0
3739,0.11467170263150145,0
3740,0.5770337463911549,0
3741,4.312321332738559,0
3742,6.638768760307357,0
3743,-1.1598161164970289,0
3744,-1.2373740521056773,0
3745,1.4605125189780241,0
3746,-0.7220775000178674,0
3747,0.30753613058822454,0
3748,0.08972615993213426,0
3749,0.010009121435852322,0
3750,0.07400538469378723,0
3751,0.0350693755379065,0
3752,0.05267312746826226,0
3753,0.05712017062065512,0
3754,0.046431315739375145,0
3755,-0.058950932032998775,0
3756,0.05338792180663979,0
3757,-0.09777573216682289,0
3758,-0.00277683037959122,0
3759,-0.033346444350393564,0
3760,0.4772408363051265,0
3761,4.161569567041248,0
3762,6.525361625139875,0
3763,-1.31357249709388,0
3764,-1.3620466103189517,0
3765,1.4025511617500017,0
3766,-0.6544083410115855,0
3767,0.14595315834837658,0
3768,-0.0408451826531507,0
3769,0.05299185482233107,0
3770,0.07248276879847622,0
3771,-0.06031844338360544,0
3772,-0.05158521889334775,0
3773,0.03393759207058335,0
3774,-0.021209532945251745,0
3775,-0.07169192575262111,0
3776,0.04340507217153655,0
3777,0.07930262832163593,0
3778,0.04112449132664614,0
3779,0.015515809652541054,0
3780,0.4611067226413185,0
3781,4.079617254725815,0
3782,6.574542917156429,0
3783,-1.3472230890259942,0
3784,-1.2654499146472837,0
3785,1.4086561197910354,0
3786,-0.837265200163101,0
3787,0.26081894586460724,0
3788,-0.04956617709941413,0
3789,-0.055435022165240974,0
3790,-0.05860511491160464,0
3791,-0.0008949438166962953,0
3792,0.035641458616717754,0
3793,-0.023655109869825865,0
3794,-0.018936111941058632,0
3795,-0.018412073400382718,0
3796,-0.01493753794611384,0
3797,0.050064750684277716,0
3798,-0.01997937718444316,0
3799,0.02800695617117134,0
3800,0.37950041076760543,0
3801,4.138366321699958,0
3802,6.5246494450112555,0
3803,-1.2943190174813415,0
3804,-1.330517006359764,0
3805,1.4092563019648112,0
3806,-0.9007535944855072,0
3807,0.16105270240844716,0
3808,0.04719925078129528,0
3809,0.026252172754409702,0
3810,0.012015585543626344,0
3811,-0.054235978392004794,0
3812,0.00538622484260398,0
3813,-0.010653179062042283,0
3814,-0.03314701331301491,0
3815,-0.014320945132894093,0
3816,0.04396633577149365,0
3817,-0.020865448680709865,0
3818,-0.02674470951009091,0
3819,-0.0642312255935197,0
3820,0.47826622958226367,0
3821,4.200358628212872,0
3822,6.50546337027697,0
3823,-1.2112519795686145,0
3824,-1.3901623511834227,0
3825,1.25619079335594,0
3826,-0.7966378093252376,0
3827,0.1932864982697287,0
3828,-0.07493591818624175,0
3829,-0.01310953903459193,0
3830,-0.06635215578175459,0
3831,-0.07682256945192996,0
3832,0.00794922833768169,0
3833,0.024851311346861145,0
3834,-0.007023342397742299,0
3835,-0.06039607571397783,0
3836,-0.09103639288902099,0
3837,0.06413052035544614,0
3838,-0.09859576389283597,0
3839,-0.015322021845096035,0
3840,0.44314064303172407,0
3841,4.2043642658830915,0
3842,6.4279303532918135,0
3843,-1.236448744961261,0
3844,-1.4008273291865962,0
3845,1.385598482069849,0
3846,-0.7959822103205649,0
3847,0.18767413891600948,0
3848,0.03170545231753111,0
3849,-0.1649401706789634,0
3850,-0.08373858264632345,0
3851,-0.11907265195535917,0
3852,-0.06012276135815432,0
3853,-0.046546766587493106,0
3854,-0.08068255227964623,0
3855,-0.1169327667270685,0
3856,-0.17795204103171267,0
3857,-0.08940668062543554,0
3858,-0.021709930014981997,0
3859,-0.08227133992389102,0
3860,0.4706943873888766,0
3861,4.030536128109612,0
3862,6.388245998497718,0
3863,-1.3016226485393219,0
3864,-1.255528189336479,0
3865,1.3488985640349347,0
3866,-0.8706730941471633,0
3867,0.2262103240669733,0
3868,-0.00148677354890428,0
3869,-0.07806710081084926,0
3870,0.0001767506447076933,0
3871,-0.10616714804991612,0
3872,-0.050077011473509354,0
3873,-0.14480678781936118,0
3874,-0.021753635787337702,0
3875,-0.153622152985689,0
3876,-0.022541091338530897,0
3877,-0.1311096178443812,0
3878,-0.04707798788686905,0
3879,-0.069742045471536,0
3880,0.4540276457994917,0
3881,4.227813389539639,0
3882,6.467944213431449,0
3883,-1.3967098464553438,0
3884,-1.3189551821248198,0
3885,1.3348107642001283,0
3886,-0.8436383972125637,0
3887,0.21161968452708205,0
3888,-0.06405354274211732,0
3889,-0.1477231270634989,0
3890,-0.014286094473560858,0
3891,-0.012745227417227419,0
3892,-0.022592788768897636,0
3893,-0.05774384775410683,0
3894,-0.02820223413297423,0
3895,-0.026771600450207274,0
3896,-0.12980703234197538,0
3897,-0.11617876341231399,0
3898,-0.08727079697643433,0
3899,-0.03837668058725093,0
3900,0.45892495270968076,0
3901,4.110816894555206,0
3902,6.486824660381616,0
3903,-1.3125229303241852,0
3904,-1.358074954535512,0
3905,1.322066515974586,0
3906,-0.8364789881840444,0
3907,0.2601636367354414,0
3908,0.031083309168767892,0
3909,-0.052893609576952445,0
3910,-0.029340295654136456,0
3911,-0.03231488694418131,0
3912,-0.1041772998698158,0
3913,0.02830749761852669,0
3914,-0.04013951508289246,0
3915,-0.03175594081304781,0
3916,-0.012523532386450986,0
3917,-0.025663473308730565,0
3918,-0.05362077192170269,0
3919,-0.09969892515187487,0
3920,0.31171916543992406,0
3921,4.250134538966985,0
3922,6.439012477125318,0
3923,-1.26579580416644,0
3924,-1.3207788833019765,0
3925,1.394602590319478,0
3926,-0.7837173998356187,0
3927,0.1936436971290003,0
3928,-0.054525463565981966,0
3929,-0.07259729403238588,0
3930,0.01608577377418438,0
3931,-0.03060385572683133,0
3932,0.06335885698192974,0
3933,0.003610411326651644,0
3934,-0.0425376604522285,0
3935,-0.10126656021709413,0
3936,-0.021189137663800456,0
3937,-0.03796612982112336,0
3938,0.029598171186721617,0
3939,-0.022211202457889975,0
3940,0.5125939782063273,0
3941,4.181386820311017,0
3942,6.447836081064205,0
3943,-1.274367100325458,0
3944,-1.2738281781769027,0
3945,1.3270573152827638,0
3946,-0.8069063391601585,0
3947,0.234500089542596,0
3948,-0.0037102611757211523,0
3949,-0.04723478925455658,0
3950,0.06016336868749232,0
3951,0.01787281095329449,0
3952,0.06076325007414484,0
3953,-0.01394798989773936,0
3954,-0.0032195809446739863,0
3955,-0.026479328890392194,0
3956,-0.017293829776430944,0
3957,-0.029660188291778997,0
3958,0.03157319957312587,0
3959,-0.053001425695223196,0
3960,0.506322876281822,0
3961,4.2465215236236995,0
3962,6.512274887081527,0
3963,-1.264472812163488,0
3964,-1.3439566026535261,0
3965,1.4441363971392054,0
3966,-0.7413475887994513,0
3967,0.2403770279175169,0
3968,-0.017337620209542992,0
3969,-0.047103032363701426,0
3970,-0.09438588972846476,0
3971,-0.07226513709916103,0
3972,-0.06875846223789536,0
3973,-0.10933833900254016,0
3974,-0.07239026625955314,0
3975,0.03329878338929243,0
3976,-0.06891454661992405,0
3977,-0.06251899602347093,0
3978,-0.06001929662235796,0
3979,-0.08924535577535152,0
3980,0.36840346885419006,0
3981,4.188419220615771,0
3982,6.472875732217512,0
3983,-1.4032009879303085,0
3984,-1.4035140592377624,0
3985,1.2617640519029747,0
3986,-0.7648991484343377,0
3987,0.19305970665250702,0
3988,-0.1521904807947163,0
3989,-0.0815163752791445,0
3990,-0.06585371943181992,0
3991,-0.06896497628157841,0
3992,-0.11520122209365403,0
3993,-0.04345717678250833,0
3994,-0.10415608552278714,0
3995,-0.0913464677056394,0
3996,-0.0766304150807742,0
3997,-0.03451545422392659,0
3998,0.01466876904452484,0
3999,-0.08744910250990678,0
4000,0.43164963574216586,0
4001,4.196298769824919,0
4002,6.51366009123584,0
4003,-1.2644864334220234,0
4004,-1.2801210013667064,0
4005,1.38351017482323,0
4006,-0.7216201761783021,0
4007,0.11628572732335071,0
4008,-0.10026484128465184,0
4009,-0.1807740775794655,0
4010,-0.010916816095741449,0
4011,-0.0673409181641795,0
4012,0.030711651614727616,0
4013,-0.0785524948504486,0
4014,-0.04663189756060063,0
4015,-0.05038513137248664,0
4016,-0.062263256578916466,0
4017,-0.055318587016991855,0
4018,-0.048166562547941306,0
4019,-0.06021876905962231,0
4020,0.3323628002877784,0
4021,4.147430199838451,0
4022,6.515962637410536,0
4023,-1.440941046183355,0
4024,-1.3462286700139061,0
4025,1.411762355654194,0
4026,-0.8256615567301814,0
4027,0.28548888839503783,0
4028,-0.031608438449424875,0
4029,0.021013245857232545,0
4030,-0.007584220323751924,0
4031,-0.028333323290320026,0
4032,0.006639971630610256,0
4033,0.020792316968786008,0
4034,-0.11697026512914535,0
4035,-0.09100920923499578,0
4036,-0.06355473309318709,0
4037,-0.03966066536648351,0
4038,0.0368245244341731,0
4039,-0.0037349269575025767,0
4040,0.3411977093150859,0
4041,4.237374512987481,0
4042,6.399679988720141,0
4043,-1.33441828343148,0
4044,-1.4459522663653301,0
4045,1.2943438631006183,0
4046,-0.8431666587860814,0
4047,0.14546634865798694,0
4048,-0.05800949609806887,0
4049,-0.1416609793303482,0
4050,-0.057296916993218046,0
4051,-0.047794464813300894,0
4052,-0.02096820469331814,0
4053,-0.10716270701303965,0
4054,-0.08830971110323232,0
4055,-0.007214135398321598,0
4056,0.0448330095749265,0
4057,-0.08159838122757519,0
4058,0.023714976273047767,0
4059,-0.10851012569757647,0
4060,0.4229304095780564,0
4061,4.266245370297107,0
4062,6.502897659209038,0
4063,-1.3268872552213429,0
4064,-1.3312517747424724,0
4065,1.3265912340551707,0
4066,-0.7799787183176294,0
4067,0.2528350117680763,0
4068,0.020683168581180286,0
4069,-0.0421161350190598,0
4070,0.008657636317316942,0
4071,-0.07645050476540774,0
4072,0.0371883044900311,0
4073,-0.03619704361929165,0
4074,0.04616832089472124,0
4075,-0.051773471293707324,0
4076,-0.014215249686834089,0
4077,-0.06043341705508916,0
4078,-0.06823155870430701,0
4079,-0.06671388166881696,0
4080,0.3592311884746518,0
4081,4.2798545623329725,0
4082,6.457550803989609,0
4083,-1.484714495142427,0
4084,-1.3827582768625588,0
4085,1.3401235811350232,0
4086,-0.8211299836636494,0
4087,0.19870811461906268,0
4088,-0.14137573513834356,0
4089,-0.17870222733922952,0
4090,-0.08424093962568396,0
4091,-0.04811603508352399,0
4092,-0.008959730370443245,0
4093,-0.03373245253366092,0
4094,-0.07706131714477416,0
4095,-0.10136295019958463,0
4096,-0.06664126961662412,0
4097,-0.0677095674670374,0
4098,-0.022502520695404475,0
4099,0.0190464365957404,0
4100,0.37336832743026416,0
4101,4.143904529989361,0
4102,6.523158849527731,0
4103,-1.3631278246649634,0
4104,-1.2362534630852453,0
4105,1.2780327364301343,0
4106,-0.872420611290957,0
4107,0.11267136305223356,0
4108,-0.06740429172857074,0
4109,-0.0650569868839923,0
4110,-0.019092874956212293,0
4111,-0.055656751812613064,0
4112,-0.028275340374662235,0
4113,-0.14207539448488443,0
4114,0.017286020859120156,0
4115,-0.003169921372154813,0
4116,0.007299283144816815,0
4117,-0.09432726880188738,0
4118,-0.005650810535501632,0
4119,-0.03356234238358517,0
4120,0.4145337630076317,0
4121,4.262713841069639,0
4122,6.450325344998799,0
4123,-1.311008729545471,0
4124,-1.2279042042534307,0
4125,1.4238782998038348,0
4126,-0.8357961503104573,0
4127,0.21545719075712721,0
4128,-0.0069466750623766865,0
4129,0.040058685574515904,0
4130,-0.010194884151141984,0
4131,0.03995359966141147,0
4132,-0.017204901375915353,0
4133,-0.07368099858735636,0
4134,-0.043997487371220056,0
4135,-0.01578157097160659,0
4136,-0.016450045145165113,0
4137,-0.03241704364455831,0
4138,0.022437404850104974,0
4139,-0.04326895036536969,0
4140,0.5139440422920517,0
4141,4.336515732814997,0
4142,6.455848108703606,0
4143,-1.310484432285748,0
4144,-1.2430337433310412,0
4145,1.3518271417883692,0
4146,-0.7964390223838682,0
4147,0.2827985943481396,0
4148,-0.11588677326053874,0
4149,-0.05056996363004475,0
4150,0.0714832981039634,0
4151,0.018598057272181827,0
4152,0.06996119030156515,0
4153,-0.04566459195100581,0
4154,0.02587939814726679,0
4155,-0.1006166357056833,0
4156,0.009618298497142474,0
4157,0.018551167122315644,0
4158,0.0034812796783178345,0
4159,0.09545200235874951,0
4160,0.40770829780449563,0
4161,4.260168377851996,0
4162,6.422663947572737,0
4163,-1.3943611105723428,0
4164,-1.1682003282007043,0
4165,1.332529162297131,0
4166,-0.8078448722722893,0
4167,0.28020138816673934,0
4168,-0.09071984912385887,0
4169,-0.06601071035681086,0
4170,-0.07866180806054496,0
4171,-0.11620109483598855,0
4172,-0.09561144570114506,0
4173,-0.0720882718853036,0
4174,-0.04420993531968319,0
4175,-0.1361106887023314,0
4176,0.012437428007952098,0
4177,-0.05701147523456067,0
4178,-0.08252198875796317,0
4179,-0.1342631843308167,0
4180,0.34818468871704955,0
4181,4.19266793650752,0
4182,6.417323470748274,0
4183,-1.387560564791748,0
4184,-1.3028119061924202,0
4185,1.2276238842182048,0
4186,-0.8276957813292973,0
4187,0.2112581444902392,0
4188,-0.0767872874440915,0
4189,-0.05179628633854915,0
4190,0.03164840581490565,0
4191,0.020888603631825882,0
4192,-0.026550096610826343,0
4193,-0.025429204724657446,0
4194,-0.06182099570865508,0
4195,-0.06660249757188885,0
4196,-0.13171261870156206,0
4197,-0.08663557867158998,0
4198,-0.022712198544463068,0
4199,0.014400545678043282,0
4200,0.43541132364520985,0
4201,4.309103373613038,0
4202,6.407178888093534,0
4203,-1.3599829147719036,0
4204,-1.2227641667513112,0
4205,1.2921064487251126,0
4206,-0.7384427897120992,0
4207,0.2692612141694626,0
4208,-0.17395524025645354,0
4209,0.0245482402519547,0
4210,-0.026069062926885024,0
4211,0.02061156542875739,0
4212,-0.04360231159744509,0
4213,-0.04331413798385218,0
4214,-0.012323116721956033,0
4215,-0.08464954208382669,0
4216,0.031268122708291435,0
4217,-0.09561196792426932,0
4218,0.044684933825164794,0
4219,-0.0018350080749778702,0
4220,0.5166106988416165,0
4221,4.210478131048625,0
4222,6.470520922024897,0
4223,-1.422833072750354,0
4224,-1.2207813911185414,0
4225,1.3538919429161598,0
4226,-0.9126871394158623,0
4227,0.16505718573319075,0
4228,-0.051421047807170835,0
4229,-0.07076190728272941,0
4230,0.04040484956361894,0
4231,-0.04703097040284088,0
4232,0.02584078158876228,0
4233,0.04588831439028194,0
4234,-0.009921014488219772,0
4235,-0.09792170001937239,0
4236,0.018809864695652014,0
4237,0.040009705097961173,0
4238,-0.07803376669388051,0
4239,-0.07272493067351793,0
4240,0.511182918095456,0
4241,4.230947079548226,0
4242,6.424320453554695,0
4243,-1.4413267778256045,0
4244,-1.1895924200644832,0
4245,1.3513140238452466,0
4246,-0.8847033659783502,0
4247,0.13418711208882494,0
4248,0.029336810674776517,0
4249,-0.09847538902680167,0
4250,0.025046934020555744,0
4251,0.008789205541718081,0
4252,0.07046377358204457,0
4253,-0.07425506136292032,0
4254,-0.07898052331860433,0
4255,-0.04211394672708557,0
4256,-0.014115691110028384,0
4257,-0.021330945067003414,0
4258,-0.04283626981524505,0
4259,-0.147196910474787,0
4260,0.32361642708535693,0
4261,4.339617151141947,0
4262,6.48031628491163,0
4263,-1.4213710770695496,0
4264,-1.3888825163334046,0
4265,1.3391229020927564,0
4266,-0.8202719716336063,0
4267,0.2361830694844068,0
4268,-0.04316517813195793,0
4269,-0.011790667890848386,0
4270,0.050737755826123165,0
4271,-0.1018668876827157,0
4272,0.09703427142990945,0
4273,-0.044398831236263266,0
4274,-0.01751178179732161,0
4275,-0.02925288350866427,0
4276,-0.00308292471500074,0
4277,0.0069560601283806655,0
4278,0.025818702279850184,0
4279,-0.025296187608079692,0
4280,0.4114291752140256,0
4281,4.222822311742545,0
4282,6.462131013594607,0
4283,-1.4200445528878523,0
4284,-1.1958803055967528,0
4285,1.3601718487095265,0
4286,-0.7559255287471109,0
4287,0.19964263482220626,0
4288,-0.15566962325731246,0
4289,-0.10435823653079503,0
4290,0.019312278384907657,0
4291,-0.08320629713142934,0
4292,0.03355698352057496,0
4293,-0.01866782184021819,0
4294,-0.07216880341319748,0
4295,-0.002725810646544106,0
4296,0.01706624660082095,0
4297,0.019101770698788295,0
4298,0.008819803357421023,0
4299,0.08592669769108033,0
4300,0.5249760515523163,0
4301,4.1692703481821995,0
4302,6.542382487189876,0
4303,-1.4059780057210856,0
4304,-1.284979305313637,0
4305,1.3672723397194564,0
4306,-0.7330244788101098,0
4307,0.13950498746838338,0
4308,0.017601455002328945,0
4309,0.028188261954118124,0
4310,-0.0015242012501172064,0
4311,-0.021797914863649858,0
4312,0.005274217622356385,0
4313,-0.012165714564885015,0
4314,0.07104076308404786,0
4315,-0.03376302117702965,0
4316,0.00028358443928789764,0
4317,0.02508975985554062,0
4318,-0.02019990313598127,0
4319,-0.021757832923797783,0
4320,0.49757904454902524,0
4321,4.348728977902665,0
4322,6.449451613708055,0
4323,-1.4552434852384846,0
4324,-1.1912531733909804,0
4325,1.5001335831172837,0
4326,-0.7699424630666619,0
4327,0.41291453772295306,0
4328,0.016101240860926985,0
4329,-0.04288881417611106,0
4330,0.03819466266770737,0
4331,-0.00080931848424084,0
4332,-0.014329660465744238,0
4333,0.010099982616296254,0
4334,0.03604256395421898,0
4335,0.003198414242782218,0
4336,0.0448272816227828,0
4337,0.1113770386372809,0
4338,0.0694953339071272,0
4339,0.03354810714973647,0
4340,0.5331185335813813,0
4341,4.3044271661327675,0
4342,6.43384705495951,0
4343,-1.3070653603846976,0
4344,-1.1783500184771198,0
4345,1.5014083002801102,0
4346,-0.707169077252431,0
4347,0.2546410130231421,0
4348,0.01906877844768756,0
4349,0.07391729241932783,0
4350,0.09884258362496884,0
4351,-0.09140881331433252,0
4352,0.05965726928898716,0
4353,0.007823471570767595,0
4354,-0.11635264930359603,0
4355,0.010359246592304184,0
4356,-0.03494397732534299,0
4357,0.01880731652359667,0
4358,0.08028070786289668,0
4359,-0.030449797927245344,0
4360,0.49492860345553513,0
4361,4.286498057053392,0
4362,6.498148816209002,0
4363,-1.3823069384099145,0
4364,-1.2260471951908514,0
4365,1.4203566426699645,0
4366,-0.7195390428516911,0
4367,0.20406613985995614,0
4368,-0.14235276270954308,0
4369,0.12344174649833346,0
4370,-0.08281728419545123,0
4371,-0.06836605472617781,0
4372,-0.09500254008559336,0
4373,0.04318705411875546,0
4374,-0.05091293269685826,0
4375,0.045673624756105535,0
4376,0.07826679475971914,0
4377,0.0030951456675241216,0
4378,0.06930031642190261,0
4379,0.03370729148878007,0
4380,0.5200200590815093,0
4381,4.352209713352812,0
4382,6.616601644815252,0
4383,-1.3442594886887114,0
4384,-1.1007814146712092,0
4385,1.4658498566172373,0
4386,-0.634608446877416,0
4387,0.2834133196746921,0
4388,0.0757461663809233,0
4389,-0.024411279730151017,0
4390,0.1254492227578689,0
4391,0.04829133553159758,0
4392,-0.00923105646934732,0
4393,0.022748678882592903,0
4394,-0.013978706430230067,0
4395,0.06632461623586501,0
4396,0.01153470356882505,0
4397,0.037754471678856205,0
4398,-0.003073130577477285,0
4399,0.017397801685917848,0
4400,0.5279228071851999,0
4401,4.377708080398701,0
4402,6.470572216473335,0
4403,-1.4332017273739268,0
4404,-1.1462970588163084,0
4405,1.4429808114851088,0
4406,-0.7499338839296618,0
4407,0.23441155018962362,0
4408,-0.07253735224389311,0
4409,-0.028357744821352497,0
4410,-0.023668922375785457,0
4411,0.039416882616541235,0
4412,0.02968972397717009,0
4413,-0.0014358976933350025,0
4414,-0.04128522034941695,0
4415,0.06845308816663376,0
4416,-0.07114379370063625,0
4417,-0.004855528799385731,0
4418,-0.06729132229688786,0
4419,-0.045531998477179966,0
4420,0.47281712743090515,0
4421,4.293504406820601,0
4422,6.3898888194026195,0
4423,-1.3951139738037133,0
4424,-1.3514279035049508,0
4425,1.2898031553254965,0
4426,-0.7553192534741711,0
4427,0.23871264349760665,0
4428,-0.06216337700360525,0
4429,-0.006991638943664745,0
4430,-0.057023622022983556,0
4431,-0.07672956229805045,0
4432,0.05478211872419545,0
4433,-0.06608965436548885,0
4434,-0.10343396655347917,0
4435,-0.061154896975548635,0
4436,-0.044943328865417076,0
4437,-0.0865772713876183,0
4438,0.022553823159232288,0
4439,-0.022892813231097583,0
4440,0.4033919497619926,0
4441,4.317042346385937,0
4442,6.326570920554908,0
4443,-1.508288068671174,0
4444,-1.2945020120383486,0
4445,1.2656813509225104,0
4446,-0.790227159441336,0
4447,0.2804311722089339,0
4448,-0.13692609662863686,0
4449,-0.1700898963437598,0
4450,-0.10290740912537827,0
4451,-0.01952202882360629,0
