timestamp,value-0,is_anomaly
0,0.22733813182517437,0.0
1,3.6110870781001747,0.0
2,7.026910104405556,0.0
3,-0.2051872375419746,0.0
4,-1.9587399392801434,0.0
5,1.5680256874297966,0.0
6,-0.7324984904638258,0.0
7,0.07013856568988779,0.0
8,0.016014418698237616,0.0
9,-0.07689309656242727,0.0
10,0.03173377592879811,0.0
11,0.05378207099611161,0.0
12,-0.06268224800616723,0.0
13,0.07423644449073662,0.0
14,0.03424974648728816,0.0
15,0.059436818370530775,0.0
16,0.06753834743813512,0.0
17,0.01752625746337635,0.0
18,-0.03150280196443127,0.0
19,-0.03739451696628055,0.0
20,0.24317508301827773,0.0
21,3.503517242010332,0.0
22,6.93578387800049,0.0
23,-0.1785790079688861,0.0
24,-1.9737728425074546,0.0
25,1.5290168726065798,0.0
26,-0.648085450561284,0.0
27,0.19712126985824996,0.0
28,-0.020071936836886572,0.0
29,-0.0750527691497485,0.0
30,0.05284781522590466,0.0
31,0.01033494263387029,0.0
32,0.06409302695404374,0.0
33,-0.005769037179502549,0.0
34,0.0035229539013101434,0.0
35,0.06632445205216449,0.0
36,0.005251817916142605,0.0
37,0.005613884182496309,0.0
38,-0.0006475347313245026,0.0
39,-0.03456508859300446,0.0
40,0.23450923287353764,0.0
41,3.5523947661065414,0.0
42,6.896896817620261,0.0
43,-0.27933601699590593,0.0
44,-1.9609018798683788,0.0
45,1.534160218363069,0.0
46,-0.738261429542344,0.0
47,0.12796348342163366,0.0
48,-0.02997571499541432,0.0
49,-0.030683352555652132,0.0
50,0.007482100515994981,0.0
51,0.014558387058906367,0.0
52,-0.004461971480523193,0.0
53,0.08264077954093049,0.0
54,0.054833435595299795,0.0
55,0.013659086059693248,0.0
56,0.09941790369483197,0.0
57,0.006904331659370435,0.0
58,0.06972310078055616,0.0
59,0.01594853083711891,0.0
60,0.25536250187957676,0.0
61,3.526558474060885,0.0
62,6.906690558912545,0.0
63,-0.31551208953501597,0.0
64,-1.8476076489290074,0.0
65,1.6087111628410877,0.0
66,-0.6875821221554574,0.0
67,0.10201711920980502,0.0
68,0.0210426916280739,0.0
69,-0.054767756573741735,0.0
70,0.025861021438465658,0.0
71,0.0342420086264494,0.0
72,0.015774759492809556,0.0
73,0.014965279798318874,0.0
74,0.06695972045035212,0.0
75,0.03573600807266143,0.0
76,-0.014500292010835438,0.0
77,0.0071235298329856075,0.0
78,0.027725762520600553,0.0
79,-0.016970855761703894,0.0
80,0.25896316056747715,0.0
81,3.5560450600223596,0.0
82,6.951488105875274,0.0
83,-0.32185156181474855,0.0
84,-1.860899268719644,0.0
85,1.5698300813461747,0.0
86,-0.5735392671245156,0.0
87,0.26451640575489505,0.0
88,0.22994918581219254,0.0
89,0.14543821829196674,0.0
90,0.17238015537534865,0.0
91,0.17273109950531643,0.0
92,0.10747848939090796,0.0
93,0.10876886775943079,0.0
94,0.07944016487457618,0.0
95,0.12607445849051596,0.0
96,0.037807632094447347,0.0
97,0.022555905343973726,0.0
98,-0.06368817426939943,0.0
99,-0.02270530917303458,0.0
100,0.3121152432384308,0.0
101,3.5464882033269185,0.0
102,6.865708221829844,0.0
103,-0.30070668197896927,0.0
104,-1.93886606452424,0.0
105,1.4282186801466112,0.0
106,-0.7258483265512096,0.0
107,0.17440759162459152,0.0
108,0.053667925624254195,0.0
109,0.0277343763345856,0.0
110,-0.06556613958347611,0.0
111,-0.09690530084029673,0.0
112,-0.07284328647664456,0.0
113,-0.12559957210816652,0.0
114,-0.024879774817450764,0.0
115,0.05175906098263552,0.0
116,0.014032390988683325,0.0
117,0.06166539590887041,0.0
118,-0.07882502628604515,0.0
119,0.04214722566014525,0.0
120,0.36289298572455864,0.0
121,3.47004346839819,0.0
122,6.8892044893532915,0.0
123,-0.2968366422128879,0.0
124,-1.8606020434039139,0.0
125,1.5815835891298122,0.0
126,-0.6521121963951063,0.0
127,0.17769094984941902,0.0
128,0.10669505681233676,0.0
129,-0.057644967347627446,0.0
130,0.12493544801128519,0.0
131,0.005745063401041976,0.0
132,0.07097307647711283,0.0
133,0.05139634825026766,0.0
134,-0.02212934778135014,0.0
135,0.037840625819088716,0.0
136,0.048169520817068365,0.0
137,0.025308547120603264,0.0
138,0.10937934504114602,0.0
139,0.031745331400187454,0.0
140,0.3053930093287454,0.0
141,3.465493756208184,0.0
142,6.92592333295305,0.0
143,-0.26215634415623584,0.0
144,-1.9445487898645353,0.0
145,1.543326639735598,0.0
146,-0.7370337152912525,0.0
147,0.1531930197753236,0.0
148,0.1038455221515957,0.0
149,-0.10278098786996386,0.0
150,0.06118510178428664,0.0
151,-0.06849126288912476,0.0
152,0.07341175249514764,0.0
153,-0.01259436476661984,0.0
154,-0.015498934385170813,0.0
155,0.03916276480299051,0.0
156,0.09912477848288856,0.0
157,0.06485711132614785,0.0
158,0.012038845345655377,0.0
159,0.06133677787091561,0.0
160,0.3202631385975989,0.0
161,3.532782771165422,0.0
162,6.827240601565434,0.0
163,-0.2522007178953227,0.0
164,-1.91172609892897,0.0
165,1.4982178986258192,0.0
166,-0.7676267869858091,0.0
167,0.06352470157313564,0.0
168,-0.011679101855803137,0.0
169,-0.07123584790019785,0.0
170,-0.12167977463391721,0.0
171,-0.0898616779474237,0.0
172,-0.04963988990419398,0.0
173,-0.04974057866512493,0.0
174,-0.022354223346024195,0.0
175,-0.09197555778794488,0.0
176,-0.020868027888387524,0.0
177,-0.05771412781741511,0.0
178,0.040747105184036,0.0
179,-0.08703543070978258,0.0
180,0.3502214269126134,0.0
181,3.572742711528037,0.0
182,6.934498710656071,0.0
183,-0.2822588995815193,0.0
184,-1.9491177547624925,0.0
185,1.512176138010661,0.0
186,-0.707741570546631,0.0
187,0.11855104320619603,0.0
188,0.03833744773089841,0.0
189,-0.07030046626954836,0.0
190,0.014157621228165763,0.0
191,0.06157329211486762,0.0
192,0.022996101364102954,0.0
193,-0.05606021364659393,0.0
194,0.03967146444038062,0.0
195,0.07987617745860404,0.0
196,-0.013195231118975213,0.0
197,0.055678989126368636,0.0
198,0.05837374684961015,0.0
199,0.040905449643320976,0.0
200,0.3128518620166727,0.0
201,3.5505910577396707,0.0
202,6.779104049709591,0.0
203,-0.40325969848088367,0.0
204,-1.9438472989614395,0.0
205,1.5084357755258186,0.0
206,-0.737779240184301,0.0
207,0.1432286904784859,0.0
208,-0.00901230999389803,0.0
209,-0.13654046172497702,0.0
210,0.020357378234425433,0.0
211,-0.061807785274158776,0.0
212,0.011517228808159748,0.0
213,-0.002330640411650261,0.0
214,-0.06144495635836948,0.0
215,0.011763260718205666,0.0
216,0.006107815165766048,0.0
217,-0.054423711078415656,0.0
218,-0.020424402135033545,0.0
219,-0.035558251094683635,0.0
220,0.25494015319194635,0.0
221,3.432353890951004,0.0
222,6.916027977041172,0.0
223,-0.30858890707644016,0.0
224,-1.8949436832129571,0.0
225,1.4555770256655465,0.0
226,-0.8034202013836337,0.0
227,0.17334667115579777,0.0
228,-0.022682489169819544,0.0
229,-0.05221761038579188,0.0
230,-0.029807223952027524,0.0
231,-0.0985446787381182,0.0
232,0.019871105028921594,0.0
233,0.0028632059851269155,0.0
234,0.09040235128729811,0.0
235,0.015612471017962846,0.0
236,0.002337043648896392,0.0
237,0.027540624368158285,0.0
238,0.07856142033406496,0.0
239,-0.016486519313406854,0.0
240,0.37507492897189476,0.0
241,3.5486138009709047,0.0
242,6.930064706897284,0.0
243,-0.2890804732157277,0.0
244,-1.8288310305225077,0.0
245,1.559541975327163,0.0
246,-0.6451613205513724,0.0
247,0.13023782126474848,0.0
248,0.05833347337850027,0.0
249,-0.03388690254518098,0.0
250,0.06674609452984076,0.0
251,0.0907199652670858,0.0
252,0.0067045194765474716,0.0
253,-0.029374989190949753,0.0
254,0.0055431234742476035,0.0
255,-0.01963404591461217,0.0
256,-1.2476714329648364e-05,0.0
257,0.011798112961966211,0.0
258,0.02886141807577714,0.0
259,0.020470029282707403,0.0
260,0.2579801576505736,0.0
261,3.5302077272709185,0.0
262,6.947164607124702,0.0
263,-0.2622325061538784,0.0
264,-1.80147693344944,0.0
265,1.424462205628115,0.0
266,-0.7641635888145942,0.0
267,0.16982143612286305,0.0
268,0.07010367994795988,0.0
269,-0.09941751342602767,0.0
270,0.0838153529072552,0.0
271,0.004070506297583067,0.0
272,0.0747210881760341,0.0
273,0.05529530346569951,0.0
274,0.06320175348192189,0.0
275,0.032230373507322135,0.0
276,0.0013767760768536932,0.0
277,0.06790077820124885,0.0
278,0.19215585653195227,0.0
279,0.048370960912324124,0.0
280,0.2966393222590853,0.0
281,3.534904579475229,0.0
282,6.965107524049928,0.0
283,-0.30068397890616133,0.0
284,-1.8385170139720137,0.0
285,1.544841475302339,0.0
286,-0.715180004502572,0.0
287,0.2075810338146783,0.0
288,0.021079099072675175,0.0
289,-0.014854745981134856,0.0
290,0.09309532022101047,0.0
291,0.037897002429128426,0.0
292,0.03172383472381157,0.0
293,0.0046215341647195055,0.0
294,-0.0044187064368644904,0.0
295,0.06133901619492337,0.0
296,0.06852710429908734,0.0
297,0.0435302032760156,0.0
298,0.0992981469857249,0.0
299,0.06199202528353985,0.0
300,0.2790291761738457,0.0
301,3.6182750231107392,0.0
302,7.038053277608522,0.0
303,-0.2882318263624352,0.0
304,-1.8185418538625555,0.0
305,1.5474089787635585,0.0
306,-0.6362228956717175,0.0
307,0.21551966224212038,0.0
308,0.03156579168121182,0.0
309,0.02547913441208742,0.0
310,0.053078811720932595,0.0
311,0.03088676009664712,0.0
312,0.019792942171679963,0.0
313,-0.00618577060121351,0.0
314,-0.007082951198821595,0.0
315,0.05231257467686473,0.0
316,0.05655479891394688,0.0
317,-0.05303390124347129,0.0
318,0.0829208392704156,0.0
319,-0.015961892904812272,0.0
320,0.35659935473554133,0.0
321,3.685507483334269,0.0
322,6.880951092654603,0.0
323,-0.3192090798971776,0.0
324,-1.8414866739867328,0.0
325,1.5298579446532192,0.0
326,-0.7130032871807326,0.0
327,0.07841853363484505,0.0
328,0.13499099436320883,0.0
329,-0.03408835247805167,0.0
330,0.06574399873891641,0.0
331,-0.015802006824904374,0.0
332,0.044973513973739804,0.0
333,0.0033614056664300167,0.0
334,0.04515768686514895,0.0
335,-0.008804552076530397,0.0
336,-0.05448139655057903,0.0
337,0.0014870346906192544,0.0
338,0.010072281919092499,0.0
339,0.04384363565535882,0.0
340,0.19803436423891457,0.0
341,3.621927585100756,0.0
342,6.9139102386737,0.0
343,-0.3272224465962851,0.0
344,-1.9087401516187892,0.0
345,1.5792716154284114,0.0
346,-0.6729353388596448,0.0
347,0.17874132302745932,0.0
348,0.01140456034768321,0.0
349,-0.11705325572359374,0.0
350,0.03383553548206595,0.0
351,-0.004415256859580278,0.0
352,0.062119959307801634,0.0
353,0.07769371286828852,0.0
354,0.05010445646603884,0.0
355,0.037405898302415266,0.0
356,0.07686315682825672,0.0
357,0.010992464370072508,0.0
358,0.040316669154334836,0.0
359,0.10113185190392668,0.0
360,0.3339530077868194,0.0
361,3.5033461194624893,0.0
362,6.9219701649221355,0.0
363,-0.25062199008592434,0.0
364,-1.8868800180088698,0.0
365,1.5886082228015184,0.0
366,-0.6358771400708111,0.0
367,0.13352724619703654,0.0
368,0.078221485122032,0.0
369,-0.05595864040720347,0.0
370,-0.003610740808004928,0.0
371,0.11801973183344597,0.0
372,0.01741934063914663,0.0
373,0.04006309991926957,0.0
374,0.006466862944934697,0.0
375,0.017595789442780983,0.0
376,0.054910149384265,0.0
377,0.005915668674058426,0.0
378,0.026887508825082722,0.0
379,0.14937748056495204,0.0
380,0.27859838825551986,0.0
381,3.679440026082933,0.0
382,6.856326069031947,0.0
383,-0.3509643648460561,0.0
384,-1.8613176964960192,0.0
385,1.5937741297548995,0.0
386,-0.6770709591795068,0.0
387,0.18684818728545713,0.0
388,0.06652481034941315,0.0
389,-0.10629727824477717,0.0
390,-0.04984315094402145,0.0
391,-0.02863823749624456,0.0
392,-0.024503788098760887,0.0
393,-0.050095519739348726,0.0
394,-0.05242648102842725,0.0
395,0.006806357552874143,0.0
396,-0.031460377945124345,0.0
397,-0.002040358241599891,0.0
398,0.09090719301856325,0.0
399,-0.03774113382658542,0.0
400,0.31780370498033084,0.0
401,3.5261152821248185,0.0
402,6.841039393737091,0.0
403,-0.34382802172283544,0.0
404,-1.847381344385197,0.0
405,1.5230302178804451,0.0
406,-0.7159036146890618,0.0
407,0.11776998584488217,0.0
408,-0.01730622834787126,0.0
409,-0.1278055630487523,0.0
410,-0.003420019512065298,0.0
411,-0.0088493032472176,0.0
412,-0.080654936373149,0.0
413,0.0029848106550606802,0.0
414,-0.08601925334207283,0.0
415,-0.015862441393811613,0.0
416,-0.08734515738877541,0.0
417,-0.06592146073302009,0.0
418,-0.004037280026903893,0.0
419,-0.048270769716914255,0.0
420,0.22949094644195667,0.0
421,3.528633351376381,0.0
422,6.785043605787337,0.0
423,-0.4112178292481809,0.0
424,-1.8890935353883194,0.0
425,1.4896158777388124,0.0
426,-0.7270997070074989,0.0
427,0.13613088205778806,0.0
428,0.05481991353601562,0.0
429,-0.05074673519936748,0.0
430,0.076640206034981,0.0
431,-0.02576122769324377,0.0
432,-0.02190466132425836,0.0
433,-0.0028880041931233945,0.0
434,0.02568464457883653,0.0
435,-0.03088933774741889,0.0
436,-0.01740287466977745,0.0
437,0.01921693061806635,0.0
438,0.01199241522659504,0.0
439,-0.12012865592744339,0.0
440,0.19516112593559234,0.0
441,3.486857506544034,0.0
442,6.74720812522216,0.0
443,-0.3990890158932904,0.0
444,-1.8657560253366783,0.0
445,1.4552357765781123,0.0
446,-0.7529445909505144,0.0
447,0.11099613756354779,0.0
448,0.005427808254046467,0.0
449,-0.07224233847631559,0.0
450,-0.10449941479182337,0.0
451,-0.09151302181344592,0.0
452,-0.07200552749173988,0.0
453,-0.030676909897508944,0.0
454,-0.1554393349388642,0.0
455,-0.07356159136251884,0.0
456,-0.09756061685087818,0.0
457,-0.10406424963850355,0.0
458,0.010292464912525404,0.0
459,-0.07475980902620824,0.0
460,0.12722281853970738,0.0
461,3.5252056110448633,0.0
462,6.8303723973900805,0.0
463,-0.41917756832824465,0.0
464,-2.041739768607451,0.0
465,1.5903997841158757,0.0
466,-0.7557440199500685,0.0
467,0.11032525293802677,0.0
468,-0.02421557226992424,0.0
469,0.02534269701356119,0.0
470,0.07546864798891621,0.0
471,0.011745719655297679,0.0
472,0.0026870208526909543,0.0
473,-0.023037899059579012,0.0
474,-0.11493169162765104,0.0
475,-0.04976840398551294,0.0
476,-0.0019244962906751623,0.0
477,-0.1459720647452996,0.0
478,-0.093928916862459,0.0
479,-0.008957047126927017,0.0
480,0.2503869639892317,0.0
481,3.5548878973708677,0.0
482,6.802022822640448,0.0
483,-0.4535684614647952,0.0
484,-1.9523148327955457,0.0
485,1.5042404901257718,0.0
486,-0.6815183546677612,0.0
487,0.06303319469354057,0.0
488,0.015736539982995356,0.0
489,-0.07253484050438122,0.0
490,0.04646206485059118,0.0
491,-0.09128498676908373,0.0
492,-0.027800573924678218,0.0
493,0.027875379594407362,0.0
494,-0.04174775523159677,0.0
495,-0.011552790584332187,0.0
496,0.019991564509073544,0.0
497,-0.014085695420880062,0.0
498,-0.029845639394693407,0.0
499,0.016592382680370076,0.0
500,0.26356165666921766,0.0
501,3.5777797121492294,0.0
502,6.779681593545437,0.0
503,-0.44709527267006793,0.0
504,-1.7909223892068251,0.0
505,1.5555326092853976,0.0
506,-0.6385617123932401,0.0
507,0.1326003927662424,0.0
508,0.041452952596775956,0.0
509,0.0998072921090292,0.0
510,0.12126747792842478,0.0
511,0.009181066328588759,0.0
512,0.09219314113637755,0.0
513,-0.003860638313815133,0.0
514,0.08334558949946863,0.0
515,0.0225896786883939,0.0
516,-0.07316001908142138,0.0
517,0.016683814165582494,0.0
518,0.05866218570797235,0.0
519,0.018994217868991706,0.0
520,0.25495079686813477,0.0
521,3.5958042757390696,0.0
522,6.822978134230202,0.0
523,-0.4428283444016695,0.0
524,-1.9207460932019498,0.0
525,1.5503466504504213,0.0
526,-0.7791933435614878,0.0
527,0.15829001092060765,0.0
528,0.025714987543123593,0.0
529,-0.034625707494383005,0.0
530,0.03859691286973847,0.0
531,0.018935968980639185,0.0
532,-0.04981845725488425,0.0
533,-0.010742867445409865,0.0
534,-0.07525043459035974,0.0
535,0.08812449598761284,0.0
536,-0.04816210289844758,0.0
537,-0.041946427372936614,0.0
538,-0.013902256458452509,0.0
539,-0.07710419864043179,0.0
540,0.28421861748838695,0.0
541,3.6001477459310833,0.0
542,6.841734262449424,0.0
543,-0.39024219933580584,0.0
544,-2.0042589339089627,0.0
545,1.5070390344354907,0.0
546,-0.7155199334060278,0.0
547,0.17636040116790816,0.0
548,0.047930242305008273,0.0
549,0.002049479417385744,0.0
550,0.03948077940626221,0.0
551,-0.04105819970385587,0.0
552,-0.00891079264428282,0.0
553,-0.013275287465915758,0.0
554,-0.10087247862281962,0.0
555,0.04582714633660172,0.0
556,-0.06618590840425045,0.0
557,-0.03504869315490926,0.0
558,-0.029172918314656335,0.0
559,-0.00704586943275916,0.0
560,0.17735877397951083,0.0
561,3.488752243952572,0.0
562,6.918902181650568,0.0
563,-0.3779593274024117,0.0
564,-1.8236028711155488,0.0
565,1.4989086625504178,0.0
566,-0.7510199728304008,0.0
567,0.08141542842426412,0.0
568,-0.008580740567656855,0.0
569,0.05371939403214375,0.0
570,0.12026381206878994,0.0
571,0.05936385083954121,0.0
572,0.047213974132585435,0.0
573,0.05557630883068824,0.0
574,-0.0011301356408756555,0.0
575,0.05312842241750732,0.0
576,0.04725834617462016,0.0
577,-0.0998054683448112,0.0
578,-0.04807281342750433,0.0
579,-0.052525548520535474,0.0
580,0.3721662739695377,0.0
581,3.565010335285244,0.0
582,6.816835576944579,0.0
583,-0.4038974994448487,0.0
584,-1.9405916984596214,0.0
585,1.5779889085491294,0.0
586,-0.790277578719737,0.0
587,0.11477171291834377,0.0
588,-0.05281700510221955,0.0
589,-0.04438772818492484,0.0
590,0.09397428815035896,0.0
591,-0.0912702264494567,0.0
592,0.03433504286208863,0.0
593,-0.039078235241242425,0.0
594,-0.016435700408759125,0.0
595,0.041743659382242344,0.0
596,-0.14586503588353045,0.0
597,-0.05725975524984225,0.0
598,-0.03264396263202556,0.0
599,-0.07505973109560106,0.0
600,0.2903755904978405,0.0
601,3.5959804468311276,0.0
602,6.814926433337673,0.0
603,-0.500588078511308,0.0
604,-1.8277275090496765,0.0
605,1.5171262022761483,0.0
606,-0.7500944465925911,0.0
607,0.028747877078885264,0.0
608,0.05437149071197633,0.0
609,-0.05635451427583537,0.0
610,-0.0070537023957692995,0.0
611,0.05473639533840359,0.0
612,0.04330567693414961,0.0
613,0.08095539340024671,0.0
614,0.006015144405533933,0.0
615,-0.0615639087010422,0.0
616,-0.06472360905967116,0.0
617,0.053936621197026066,0.0
618,-0.03280284621549563,0.0
619,0.008580710251571104,0.0
620,0.33859241565991194,0.0
621,3.6301551115480715,0.0
622,6.847091626515215,0.0
623,-0.4496577397835381,0.0
624,-1.8183152405325897,0.0
625,1.4803115873529182,0.0
626,-0.7859767839504708,0.0
627,0.06340196054587863,0.0
628,-0.02198583481984087,0.0
629,-0.10836757799648668,0.0
630,-0.018544333626335063,0.0
631,-0.005174698112281675,0.0
632,-0.025796612748568894,0.0
633,0.04035730674105854,0.0
634,0.049340058704918296,0.0
635,0.01514617028298866,0.0
636,-0.0526578261918337,0.0
637,0.016075299144228502,0.0
638,0.0008007171728704673,0.0
639,0.0573657767367515,0.0
640,0.39412010215940807,0.0
641,3.6463083595114765,0.0
642,6.918593057724122,0.0
643,-0.3902507439287943,0.0
644,-1.7812881226925588,0.0
645,1.6281383643868517,0.0
646,-0.8009867003747623,0.0
647,0.19730019253063774,0.0
648,0.0024477166912686516,0.0
649,-0.12339555913546271,0.0
650,-0.015576224120828663,0.0
651,-0.07000343074225196,0.0
652,-0.021187127904902976,0.0
653,-0.018466795011421844,0.0
654,-0.05606226775606056,0.0
655,-0.03125154060658451,0.0
656,0.004988727316802483,0.0
657,0.014701383026298028,0.0
658,0.13332682441452734,0.0
659,-0.0026405577784458373,0.0
660,0.3399437155348143,0.0
661,3.6689271159120924,0.0
662,6.8366807580762385,0.0
663,-0.3702277867747109,0.0
664,-1.8688153894750728,0.0
665,1.5213498633755065,0.0
666,-0.7398018229841874,0.0
667,0.07782519700796323,0.0
668,-0.07194336314091451,0.0
669,-0.07901788224065666,0.0
670,-0.14079384372986908,0.0
671,-0.08422751023968378,0.0
672,-0.20255158211001742,0.0
673,0.0124439742816395,0.0
674,-0.19596995878429452,0.0
675,-0.11682320034304623,0.0
676,-0.07982831705590411,0.0
677,-0.1077118087924328,0.0
678,-0.14222216569289653,0.0
679,-0.08918305473652074,0.0
680,0.19642052635857768,0.0
681,3.5713174075678507,0.0
682,6.792355694431184,0.0
683,-0.5242045622456883,0.0
684,-1.866959219778086,0.0
685,1.4655902753916108,0.0
686,-0.8062970333687173,0.0
687,0.1396589675709055,0.0
688,-0.07284143892312495,0.0
689,-0.14056669463577812,0.0
690,-0.06594401474696578,0.0
691,-0.03552804932291018,0.0
692,-0.05248003021345222,0.0
693,-0.019731122733628835,0.0
694,-0.055924479817490505,0.0
695,0.0021024413768417974,0.0
696,0.037955856205326786,0.0
697,-0.04410063571932778,0.0
698,-0.07773718297216309,0.0
699,-0.07968186223091085,0.0
700,0.20110889486516023,0.0
701,3.623028443097951,0.0
702,6.731811257188006,0.0
703,-0.45652223210700943,0.0
704,-1.8896253260623694,0.0
705,1.4772593615815985,0.0
706,-0.7105727216717752,0.0
707,0.09971215041925266,0.0
708,-0.03711300486401072,0.0
709,-0.02407566670162123,0.0
710,-0.1505179188136177,0.0
711,-0.0828824911285348,0.0
712,-0.026135617406388777,0.0
713,-0.04354516871207413,0.0
714,-0.047507518329578384,0.0
715,-0.066263686932669,0.0
716,-0.028508896538353905,0.0
717,0.03325020921975085,0.0
718,-0.07397599712479974,0.0
719,0.011122116967927718,0.0
720,0.2977055846927128,0.0
721,3.5745162848723977,0.0
722,6.892892731347878,0.0
723,-0.49260317774171475,0.0
724,-1.912303892711437,0.0
725,1.4348085907493644,0.0
726,-0.7196360270551228,0.0
727,0.11249080502738462,0.0
728,-0.07729160795689226,0.0
729,-0.12990609212180595,0.0
730,-0.10757639755375462,0.0
731,-0.09057623181147337,0.0
732,-0.1521696061064009,0.0
733,-0.165690185492678,0.0
734,-0.20510610640945753,0.0
735,-0.14391715948761646,0.0
736,-0.04076023276330376,0.0
737,-0.08682136939517282,0.0
738,-0.10244797745665433,0.0
739,-0.14908594865304847,0.0
740,0.16485850896156168,0.0
741,3.563454124564508,0.0
742,6.771185324899638,0.0
743,-0.6401151572731268,0.0
744,-1.9439826620694318,0.0
745,1.415929417098583,0.0
746,-0.831550874721925,0.0
747,0.015103784664048048,0.0
748,-0.034552221798866786,0.0
749,-0.13538280999653976,0.0
750,-0.07578225721825499,0.0
751,-0.0614307871513552,0.0
752,0.02028015319081715,0.0
753,-0.0779398187809758,0.0
754,-0.03783683874347189,0.0
755,-0.019794317074744182,0.0
756,-0.10072565659529063,0.0
757,-0.015439837191919943,0.0
758,-0.06609006629752144,0.0
759,-0.04979785108490663,0.0
760,0.16440177554922392,0.0
761,3.6107686787050666,0.0
762,6.785143654234188,0.0
763,-0.6685304157449515,0.0
764,-1.891175999273378,0.0
765,1.4340733921811404,0.0
766,-0.7696137425734744,0.0
767,0.16154770679299318,0.0
768,-0.03254253183446755,0.0
769,-0.0973499202523135,0.0
770,-0.06808923787984464,0.0
771,0.03396191554337159,0.0
772,-0.08918200780287078,0.0
773,0.0005542429702590362,0.0
774,-0.059368622408648264,0.0
775,-0.01792292213603411,0.0
776,0.006380935053097746,0.0
777,-0.011934779834460023,0.0
778,0.006861299395175309,0.0
779,0.0002647417591895296,0.0
780,0.30363127183633737,0.0
781,3.762435462146893,0.0
782,6.840595174542761,0.0
783,-0.4424498253248208,0.0
784,-1.7820357134149811,0.0
785,1.5629889361061096,0.0
786,-0.6860299268513496,0.0
787,0.14640699839255367,0.0
788,0.04436753980767587,0.0
789,-0.00815980746527923,0.0
790,0.036566343468667946,0.0
791,-0.03679696336812396,0.0
792,0.03541388856040157,0.0
793,0.04221513348670086,0.0
794,0.06059101134131408,0.0
795,-0.10399584366627808,0.0
796,-0.03654273960140895,0.0
797,-0.08102992776706915,0.0
798,-0.06282545591675599,0.0
799,-0.06882667397131714,0.0
800,0.3024823763962651,0.0
801,3.622412505887547,0.0
802,6.841421692945082,0.0
803,-0.5414730600326625,0.0
804,-1.8802066016956107,0.0
805,1.4908585364522866,0.0
806,-0.8710231570647456,0.0
807,0.14104899598422846,0.0
808,0.015845777819568967,0.0
809,-0.09779976089849865,0.0
810,0.024983015778557723,0.0
811,-0.03234914650710787,0.0
812,-0.028040831186935667,0.0
813,-0.04952420079560063,0.0
814,-0.022050811422895885,0.0
815,0.04171443409800177,0.0
816,-0.11468155738154295,0.0
817,-0.05073179590626103,0.0
818,-0.037186423167611296,0.0
819,-0.0101245982832934,0.0
820,0.32687789616433605,0.0
821,3.660064148446867,0.0
822,6.87039171635609,0.0
823,-0.4697452889835133,0.0
824,-1.802808620070969,0.0
825,1.485981193544445,0.0
826,-0.7169366726481026,0.0
827,0.05777775925067266,0.0
828,0.02031322428793434,0.0
829,-0.0201593134173715,0.0
830,0.03435444406910829,0.0
831,0.025687772896907123,0.0
832,-0.024710230928703315,0.0
833,0.0010965906913372114,0.0
834,0.05533864683361782,0.0
835,-0.03884793565999227,0.0
836,-0.002257929916404302,0.0
837,0.02572718699499922,0.0
838,-0.0605598947834376,0.0
839,0.06025570920814975,0.0
840,0.3603709110495479,0.0
841,3.70863166811223,0.0
842,6.940527413229886,0.0
843,-0.4788665203756926,0.0
844,-1.9159716574865713,0.0
845,1.5022681500616333,0.0
846,-0.7702308088403731,0.0
847,0.01141045269160762,0.0
848,0.01941795115000358,0.0
849,-0.05153077988305547,0.0
850,0.0015679162761044804,0.0
851,0.009961908696225784,0.0
852,0.0022434992044792317,0.0
853,-0.08603494248806337,0.0
854,-0.07178114790549016,0.0
855,-0.09292177108479534,0.0
856,0.0013454059446826525,0.0
857,-0.010940079323252047,0.0
858,-0.02884525250681897,0.0
859,-0.08190242838869286,0.0
860,0.39975794105099716,0.0
861,3.713109437503743,0.0
862,6.747548468791849,0.0
863,-0.45634696428860394,0.0
864,-1.8331019293031534,0.0
865,1.5829340113431598,0.0
866,-0.7930720888964005,0.0
867,0.18581607542218206,0.0
868,0.05043754695701877,0.0
869,-0.06651637804108093,0.0
870,0.11230058138834559,0.0
871,0.035792210633201295,0.0
872,-0.025546862006333604,0.0
873,-0.011306850387266278,0.0
874,0.0243061618592066,0.0
875,-0.027880019781490094,0.0
876,0.017600003119965627,0.0
877,-0.013049527339846222,0.0
878,0.04580823839044012,0.0
879,-0.03577253408306284,0.0
880,0.24409432446056312,0.0
881,3.6044411422805793,0.0
882,6.805913264379159,0.0
883,-0.48005382838815763,0.0
884,-1.7404757971045768,0.0
885,1.4040937799938837,0.0
886,-0.7587771946986317,0.0
887,0.18947299032440917,0.0
888,0.1068104164949248,0.0
889,-0.1071386217998776,0.0
890,0.02338725990033516,0.0
891,-0.05081761530885934,0.0
892,0.0543323893041892,0.0
893,-0.03257180340109314,0.0
894,0.08785447662203989,0.0
895,-0.04765894999660924,0.0
896,-0.018160456315859944,0.0
897,-0.014083067332950918,0.0
898,0.03157446169711069,0.0
899,-0.06765771935046683,0.0
900,0.30704020243549224,0.0
901,3.6455437356967058,0.0
902,6.850506327296054,0.0
903,-0.5182312100020839,0.0
904,-1.837767761878304,0.0
905,1.5607592875735163,0.0
906,-0.8369772958257705,0.0
907,0.16794601332004563,0.0
908,0.01457568950465914,0.0
909,-0.02608674968271303,0.0
910,-0.02683578915925267,0.0
911,0.007077964847546855,0.0
912,0.060854687168708815,0.0
913,-0.021311125496035088,0.0
914,-0.04101784540600929,0.0
915,-0.02344785361599175,0.0
916,0.050353857267163106,0.0
917,0.001826990645992805,0.0
918,-0.014196120033524901,0.0
919,-0.09593487604537322,0.0
920,0.21151126644286006,0.0
921,3.5994593904988124,0.0
922,6.876292175276084,0.0
923,-0.5943663614206449,0.0
924,-1.8724873019806336,0.0
925,1.5041651602270203,0.0
926,-0.7411519135315865,0.0
927,0.13479335298960998,0.0
928,0.021061732921359908,0.0
929,-0.058728786458848534,0.0
930,0.031670965872012194,0.0
931,0.07278437371627816,0.0
932,-0.09008027309403299,0.0
933,0.006484549357865422,0.0
934,0.09961744396129647,0.0
935,0.02583745522780404,0.0
936,0.018109091780391245,0.0
937,0.04442914939676446,0.0
938,0.00949467956755275,0.0
939,0.11748337908468104,0.0
940,0.330983831672071,0.0
941,3.7543258903511085,0.0
942,6.8343430298397205,0.0
943,-0.6015442051423346,0.0
944,-1.7795932622591195,0.0
945,1.4809911184781621,0.0
946,-0.7851130995641968,0.0
947,0.11736574124882788,0.0
948,-0.06069655837613146,0.0
949,-0.004652200705580853,0.0
950,-0.11197493791796259,0.0
951,-0.07361495566818518,0.0
952,-0.08122344575278762,0.0
953,-0.09803064542696248,0.0
954,-0.04212095989237417,0.0
955,-0.05516532644062415,0.0
956,0.006056765400553572,0.0
957,0.0024785529051556364,0.0
958,0.06771858040709147,0.0
959,0.09388342362072383,0.0
960,0.34469885178360105,0.0
961,3.72585050723994,0.0
962,6.793687466837816,0.0
963,-0.6035524788232376,0.0
964,-1.8528547179770005,0.0
965,1.5516822796448053,0.0
966,-0.7390097988427135,0.0
967,0.10183573893648987,0.0
968,0.026449521728236915,0.0
969,-0.05847069718668867,0.0
970,-0.016782133358646437,0.0
971,-0.025891418487994713,0.0
972,-0.029171958986365362,0.0
973,-0.0668415883999352,0.0
974,-0.06905114024921714,0.0
975,-0.07171830913699423,0.0
976,-0.14020389895746785,0.0
977,-0.020441056046275958,0.0
978,0.034509534229760205,0.0
979,-0.011426519565921722,0.0
980,0.2867076665435961,0.0
981,3.5568978169426377,0.0
982,6.733541941833951,0.0
983,-0.5743714019484113,0.0
984,-1.8016334813928914,0.0
985,1.4591699712217647,0.0
986,-0.6927621003469463,0.0
987,0.0957823429362199,0.0
988,0.025389703751292146,0.0
989,-0.09450239281278003,0.0
990,-0.11551500371650635,0.0
991,-0.02147772105987501,0.0
992,-0.018438633055465024,0.0
993,-0.030613356127229163,0.0
994,-0.0069559614256487325,0.0
995,-0.04580654038181915,0.0
996,0.09091425944397723,0.0
997,0.0469743940660913,0.0
998,-0.020680760937193385,0.0
999,-0.030622506408741666,0.0
1000,0.35260478378548105,0.0
1001,3.6471350036365062,0.0
1002,6.757639754257571,0.0
1003,-0.5468772736988233,0.0
1004,-1.8225249965363604,0.0
1005,1.49611954590398,0.0
1006,-0.6708296583860509,0.0
1007,0.04383697450806781,0.0
1008,-0.018193099207943465,0.0
1009,-0.07399174095534614,0.0
1010,0.07427254605371146,0.0
1011,-0.06864404388157377,0.0
1012,-0.10812354870141293,0.0
1013,0.051367913707557486,0.0
1014,0.02111003255605337,0.0
1015,0.023529552970508127,0.0
1016,-0.09144521152270213,0.0
1017,0.0073269252827582315,0.0
1018,-0.055319480863847845,0.0
1019,-0.04685972422638833,0.0
1020,0.29007001744455774,0.0
1021,3.6464763883391687,0.0
1022,6.767816342558986,0.0
1023,-0.5520991538291381,0.0
1024,-1.8032537760600569,0.0
1025,1.5287278265891704,0.0
1026,-0.8121486278280867,0.0
1027,0.19069403291272113,0.0
1028,-0.0715600435067105,0.0
1029,-0.05364120469144876,0.0
1030,-0.13607293530160708,0.0
1031,-0.03558459325275748,0.0
1032,-0.05571722682263942,0.0
1033,-0.03702009022649057,0.0
1034,-0.06446830598733987,0.0
1035,0.04594734384558634,0.0
1036,-0.10197230969527558,0.0
1037,-0.023312616898212943,0.0
1038,0.00016663945382089373,0.0
1039,-0.06340255032363339,0.0
1040,0.25222118469125404,0.0
1041,3.731735470633976,0.0
1042,6.720805742120171,0.0
1043,-0.6532139130664264,0.0
1044,-1.7782503415418025,0.0
1045,1.5565354389697164,0.0
1046,-0.7931386321586836,0.0
1047,0.08231551361436254,0.0
1048,-0.10925222305003669,0.0
1049,0.049445046978714116,0.0
1050,-0.014518707844057928,0.0
1051,-0.0178581554650006,0.0
1052,0.0025640099266559663,0.0
1053,-0.13177281763031534,0.0
1054,-0.009488265550403045,0.0
1055,-0.0696503257802123,0.0
1056,0.05892708013475012,0.0
1057,-0.07834246382571558,0.0
1058,0.057192518503820844,0.0
1059,0.00037254470075563477,0.0
1060,0.2625860417533079,0.0
1061,3.6847771363142066,0.0
1062,6.837526188151164,0.0
1063,-0.5917900754458739,0.0
1064,-1.8544287677971094,0.0
1065,1.5264137000583928,0.0
1066,-0.7610698829244531,0.0
1067,0.09781041590934035,0.0
1068,0.022668470753351835,0.0
1069,-0.07436612666513528,0.0
1070,-0.038364393805336766,0.0
1071,-0.05309528083762714,0.0
1072,0.05383274140792306,0.0
1073,-0.002321916594545559,0.0
1074,-0.07152304240075097,0.0
1075,-0.08070653724733359,0.0
1076,-0.05215058008649816,0.0
1077,-0.07014993489586202,0.0
1078,-0.004676211431207937,0.0
1079,-0.050652217618376655,0.0
1080,0.19287645636110395,0.0
1081,3.6697815802778577,0.0
1082,6.89767675572165,0.0
1083,-0.5793112114651408,0.0
1084,-1.8018051695619188,0.0
1085,1.4595146430323973,0.0
1086,-0.8769982079724136,0.0
1087,0.11669142357092609,0.0
1088,-0.016183832274875742,0.0
1089,-0.05091490311805734,0.0
1090,-0.054370897348319375,0.0
1091,-0.0324240605240764,0.0
1092,-0.041420157096740955,0.0
1093,-0.027935189948817923,0.0
1094,0.060039810285730966,0.0
1095,-0.04820928816740609,0.0
1096,-0.068096411204862,0.0
1097,-0.020243912736539086,0.0
1098,-0.018094904941419843,0.0
1099,-0.0570007591181595,0.0
1100,0.2809207035462204,0.0
1101,3.7185287683395947,0.0
1102,6.8239217882181435,0.0
1103,-0.5845359066699096,0.0
1104,-1.8668780143508776,0.0
1105,1.4334007455844255,0.0
1106,-0.8364414551590836,0.0
1107,0.11704131440261308,0.0
1108,-0.013168565437529863,0.0
1109,0.002760981711067173,0.0
1110,-0.016268791455419228,0.0
1111,-0.00474641840490881,0.0
1112,-0.02795360470351546,0.0
1113,-0.0677701217896484,0.0
1114,0.013805598097787183,0.0
1115,-0.04627580784019495,0.0
1116,0.04921895902659045,0.0
1117,-0.11217451115379488,0.0
1118,-0.031025906797677305,0.0
1119,-0.08699552044547242,0.0
1120,0.29543853812624205,0.0
1121,3.7392345023512195,0.0
1122,6.79175291686528,0.0
1123,-0.5342612640187034,0.0
1124,-1.7482320998134278,0.0
1125,1.559213124175551,0.0
1126,-0.7541509228492349,0.0
1127,0.19532866335470092,0.0
1128,0.04113393172555062,0.0
1129,0.0022325223502984055,0.0
1130,0.019305095047073208,0.0
1131,-0.017439120999451628,0.0
1132,0.08411935231477918,0.0
1133,-0.0864014121370575,0.0
1134,0.09635666503523055,0.0
1135,0.07213546159363471,0.0
1136,-0.044105950369667815,0.0
1137,-0.03938628976107614,0.0
1138,-0.029885846943498117,0.0
1139,-0.04166587643326789,0.0
1140,0.18897261629165513,0.0
1141,3.723956147605968,0.0
1142,6.717566134561919,0.0
1143,-0.5549922700209209,0.0
1144,-1.8428269339471806,0.0
1145,1.4728365779108747,0.0
1146,-0.7697526289472387,0.0
1147,0.22086087309440844,0.0
1148,0.0065512133582438965,0.0
1149,-0.08290038542318345,0.0
1150,0.08567234381924929,0.0
1151,-0.04940388627012444,0.0
1152,0.03243664254670731,0.0
1153,-0.1143834416479447,0.0
1154,-0.027325401525325595,0.0
1155,0.0051411761609918005,0.0
1156,-0.037092798935402536,0.0
1157,0.045710998318559834,0.0
1158,0.007349981130083516,0.0
1159,0.025723824503928162,0.0
1160,0.365748168946833,0.0
1161,3.643057971784116,0.0
1162,6.845100909627249,0.0
1163,-0.5300584968660247,0.0
1164,-1.8073224644513963,0.0
1165,1.553889945302834,0.0
1166,-0.7015003881931127,0.0
1167,0.23622880857820255,0.0
1168,-0.015788410266287342,0.0
1169,-0.059165326543607885,0.0
1170,0.03339553667445157,0.0
1171,-0.010142242844449468,0.0
1172,0.05057484348561728,0.0
1173,0.032992671942411095,0.0
1174,0.03585899816773634,0.0
1175,0.00162274705925782,0.0
1176,0.12256267520368826,0.0
1177,0.03520121625541973,0.0
1178,0.11037097775204881,0.0
1179,-0.020712229182656798,0.0
1180,0.2343856761781375,0.0
1181,3.7790012712688106,0.0
1182,6.881299176333884,0.0
1183,-0.6418045770235544,0.0
1184,-1.7070423481186174,0.0
1185,1.5274970601530988,0.0
1186,-0.6161714635076682,0.0
1187,0.23379226412800613,0.0
1188,0.09422779204577947,0.0
1189,0.03856363513421085,0.0
1190,0.007858618157567963,0.0
1191,0.0031424253717875945,0.0
1192,0.052971751613183196,0.0
1193,0.0033171986064661867,0.0
1194,0.06467440711651237,0.0
1195,0.05209333853885534,0.0
1196,0.018636080471940354,0.0
1197,0.05981542917671613,0.0
1198,0.023253278874294975,0.0
1199,0.051885826316259126,0.0
1200,0.21884185515547944,0.0
1201,3.852077366053156,0.0
1202,6.9210320485088666,0.0
1203,-0.5261749200006394,0.0
1204,-1.741916873648194,0.0
1205,1.5863003423221504,0.0
1206,-0.7279953954830973,0.0
1207,0.15722032615545947,0.0
1208,0.053697890079546395,0.0
1209,0.016489661568580227,0.0
1210,0.1452483749167791,0.0
1211,-0.07095006336287564,0.0
1212,0.005555380856123478,0.0
1213,0.014941686727366548,0.0
1214,-0.04375956028622069,0.0
1215,0.06859698550737447,0.0
1216,-0.10082569454811305,0.0
1217,-0.00656235451599895,0.0
1218,-0.009326070046917873,0.0
1219,-0.08062315825073556,0.0
1220,0.3396769139993724,0.0
1221,3.718093314164973,0.0
1222,6.767873607439233,0.0
1223,-0.6137657273321395,0.0
1224,-1.8322883741724065,0.0
1225,1.472736437648141,0.0
1226,-0.8060809702680728,0.0
1227,0.20207268572306453,0.0
1228,-0.002065201423282627,0.0
1229,-0.002908010581115981,0.0
1230,0.07338168942663287,0.0
1231,0.07023126800589179,0.0
1232,0.06386205279450588,0.0
1233,0.023976979720095264,0.0
1234,0.04871547974606479,0.0
1235,-0.08056308490226889,0.0
1236,-0.03511900933368597,0.0
1237,0.05746361229778992,0.0
1238,-0.012105819673033022,0.0
1239,-0.0002837495473699894,0.0
1240,0.3747679584965417,0.0
1241,3.776350801182402,0.0
1242,6.849973716903962,0.0
1243,-0.6361389695098411,0.0
1244,-1.734262061162204,0.0
1245,1.5561199104975334,0.0
1246,-0.8017718814198677,0.0
1247,0.12642692974314787,0.0
1248,0.041353220119775706,0.0
1249,-0.03985861682414035,0.0
1250,0.03758334954636985,0.0
1251,0.017061946770602514,0.0
1252,-0.03357235203496696,0.0
1253,-0.08478401724203598,0.0
1254,-0.09887968615991191,0.0
1255,0.032282383881831064,0.0
1256,-0.020546132470064902,0.0
1257,0.013040977590473034,0.0
1258,-0.08423838998721264,0.0
1259,-0.04433705635819852,0.0
1260,0.14827192251937318,0.0
1261,3.6983898563813025,0.0
1262,6.812231844842133,0.0
1263,-0.6176562882149244,0.0
1264,-1.7047710423655194,0.0
1265,1.4809004927436578,0.0
1266,-0.748685214640988,0.0
1267,0.15201318863487503,0.0
1268,0.0734414156776866,0.0
1269,-0.027481637414632675,0.0
1270,0.018912797636177058,0.0
1271,-0.012285673390578433,0.0
1272,0.01883497338824565,0.0
1273,0.036271587858003114,0.0
1274,0.0073082521559343,0.0
1275,-0.0028240129987366566,0.0
1276,-0.05331424274601074,0.0
1277,-0.04380577482054927,0.0
1278,0.0015371985265019306,0.0
1279,-0.04509429393467044,0.0
1280,0.27168044296167426,0.0
1281,3.7809215655998103,0.0
1282,6.788245751412134,0.0
1283,-0.6549336817236876,0.0
1284,-1.6920025735376645,0.0
1285,1.5444563599683454,0.0
1286,-0.7290000452255647,0.0
1287,0.21074048342113363,0.0
1288,0.015160371242203695,0.0
1289,0.023429931437071436,0.0
1290,0.07853498559097045,0.0
1291,0.06966226495194576,0.0
1292,-0.032216939557277405,0.0
1293,-0.0563892766356503,0.0
1294,-0.03768210459371825,0.0
1295,0.020607547986110503,0.0
1296,-0.08610482023083954,0.0
1297,-0.012174303615669235,0.0
1298,-0.010382711571973638,0.0
1299,-0.06414928785553659,0.0
1300,0.3324965028025726,0.0
1301,3.6533870300263542,0.0
1302,6.730621007995075,0.0
1303,-0.6380198176140592,0.0
1304,-1.710155406473738,0.0
1305,1.4619939738371588,0.0
1306,-0.8111746360238785,0.0
1307,0.13397855365102215,0.0
1308,-0.10917871838312425,0.0
1309,-0.06011933425979038,0.0
1310,0.007582049343242969,0.0
1311,0.07611938408252746,0.0
1312,0.023904065982193436,0.0
1313,0.029573803546359766,0.0
1314,0.052936481052794776,0.0
1315,0.022309971109830632,0.0
1316,0.04465741340773656,0.0
1317,0.046284271907800816,0.0
1318,-0.016374151460957175,0.0
1319,0.06786106927978666,0.0
1320,0.3521293178831935,0.0
1321,3.731153646878713,0.0
1322,6.8454400552070815,0.0
1323,-0.6735055854959676,0.0
1324,-1.7532670785651732,0.0
1325,1.5717682408208975,0.0
1326,-0.772295871100347,0.0
1327,0.2432533197671349,0.0
1328,0.05298346331853974,0.0
1329,-0.04692812727904495,0.0
1330,0.10662152040584506,0.0
1331,-0.01895302771562124,0.0
1332,-0.0702511913359821,0.0
1333,0.0642984715579686,0.0
1334,0.1304179338143408,0.0
1335,-0.0032862083088184765,0.0
1336,0.059960124853711105,0.0
1337,-0.03609792324929571,0.0
1338,-0.01388260507869895,0.0
1339,-0.05158834121667004,0.0
1340,0.3591772487858194,0.0
1341,3.6715667392136355,0.0
1342,6.788419900010231,0.0
1343,-0.6758171147394203,0.0
1344,-1.8507122738695678,0.0
1345,1.51916772545651,0.0
1346,-0.8026958793235575,0.0
1347,0.21503729968637436,0.0
1348,0.09632975930142279,0.0
1349,-0.04220500870462254,0.0
1350,0.04846696042659256,0.0
1351,-0.03519644316294282,0.0
1352,0.1773041785145173,0.0
1353,-0.029781412857433173,0.0
1354,0.09872020464262371,0.0
1355,0.14129201191985732,0.0
1356,0.021012392263041097,0.0
1357,-0.06766692496994298,0.0
1358,0.06467252149296995,0.0
1359,0.06970218588493463,0.0
1360,0.36065911837933723,0.0
1361,3.7738690664411068,0.0
1362,6.841999783712337,0.0
1363,-0.5231375763584679,0.0
1364,-1.8033871359000808,0.0
1365,1.5163434744779427,0.0
1366,-0.6157606093502361,0.0
1367,0.18839812192713146,0.0
1368,0.005731055095200235,0.0
1369,0.037344800577632536,0.0
1370,0.1184943995623309,0.0
1371,0.042178412622861296,0.0
1372,-0.042232849713790786,0.0
1373,-0.006794789537954149,0.0
1374,-0.014841786063649998,0.0
1375,0.052296553761681845,0.0
1376,0.002812374039797179,0.0
1377,-0.01944548515439943,0.0
1378,0.02116811872603315,0.0
1379,0.07712491715118266,0.0
1380,0.2917713831038875,0.0
1381,3.7973130333430842,0.0
1382,6.845105755114508,0.0
1383,-0.5865538456346419,0.0
1384,-1.6291447198253597,0.0
1385,1.6092545817928499,0.0
1386,-0.6970803861730673,0.0
1387,0.13828483772284306,0.0
1388,0.134555551599554,0.0
1389,0.012252273425321088,0.0
1390,0.13086724691794813,0.0
1391,0.036615512945813056,0.0
1392,0.0684924825306176,0.0
1393,0.1083585064606086,0.0
1394,0.035038468673487096,0.0
1395,0.07311514428725671,0.0
1396,0.05248831547466837,0.0
1397,0.0678353446696682,0.0
1398,0.04445775943075948,0.0
1399,-0.027156658462163683,0.0
1400,0.2878868747827368,0.0
1401,3.6767378795928933,0.0
1402,6.799020555611853,0.0
1403,-0.6797143347875685,0.0
1404,-1.7467987825725038,0.0
1405,1.4940130093064137,0.0
1406,-0.8431353738232369,0.0
1407,0.1453018215902263,0.0
1408,-0.03906902659882574,0.0
1409,-0.11494006997453332,0.0
1410,-0.10636993002145957,0.0
1411,-0.025967204272734225,0.0
1412,-0.04456961014988872,0.0
1413,-0.09247726925366255,0.0
1414,-0.07487071728886752,0.0
1415,-0.02236107632278915,0.0
1416,-0.018864439186407393,0.0
1417,-0.021928313826632857,0.0
1418,0.05171356257125913,0.0
1419,-0.01656998025754328,0.0
1420,0.37392526428649275,0.0
1421,3.781497857186441,0.0
1422,6.75886774497617,0.0
1423,-0.5654716702021376,0.0
1424,-1.636165798661095,0.0
1425,1.4765225251586942,0.0
1426,-0.7127073193835806,0.0
1427,0.27193885163705456,0.0
1428,0.07645078873482125,0.0
1429,-0.06034853064415077,0.0
1430,0.04523905321299376,0.0
1431,0.07412297675962057,0.0
1432,0.0847870455602417,0.0
1433,0.031814623854270876,0.0
1434,0.06439115134648196,0.0
1435,0.03419483416957971,0.0
1436,0.0023924443819582086,0.0
1437,-0.042382612832340225,0.0
1438,0.10219629068698016,0.0
1439,0.01283145597219097,0.0
1440,0.3296379596696399,0.0
1441,3.838694854379295,0.0
1442,6.775233156606423,0.0
1443,-0.5775745739980525,0.0
1444,-1.7160676563746153,0.0
1445,1.526249347957013,0.0
1446,-0.7384074953540397,0.0
1447,0.229888067153364,0.0
1448,0.08725899173562988,0.0
1449,0.026793548993552758,0.0
1450,0.09173823387043006,0.0
1451,-0.02839112102399228,0.0
1452,-0.03842825680219919,0.0
1453,-0.0186538246980589,0.0
1454,-0.019983791998350073,0.0
1455,0.01789712853935938,0.0
1456,0.005699051081422303,0.0
1457,-0.048063895792333534,0.0
1458,0.017022622249501615,0.0
1459,-0.04506141462934683,0.0
1460,0.29493931862166706,0.0
1461,3.791098906683506,0.0
1462,6.701420331731525,0.0
1463,-0.8068367044123874,0.0
1464,-1.7623288223369145,0.0
1465,1.4843390954846734,0.0
1466,-0.8311591362970685,0.0
1467,0.1503927880697322,0.0
1468,0.03347668628742963,0.0
1469,0.00037183478910290946,0.0
1470,0.1100247259618036,0.0
1471,-0.03879672453813822,0.0
1472,0.03634354083694702,0.0
1473,-0.024625380348649382,0.0
1474,-0.0033934364057951368,0.0
1475,-0.06808621524766531,0.0
1476,0.010723127121851814,0.0
1477,0.0014638288406178708,0.0
1478,0.04076664123554141,0.0
1479,-0.04224741070690485,0.0
1480,0.2900219121443495,0.0
1481,3.7893248956353505,0.0
1482,6.734023024396832,0.0
1483,-0.6311448661569344,0.0
1484,-1.7258370202075073,0.0
1485,1.4990831914517229,0.0
1486,-0.742543436027314,0.0
1487,0.26288289626375405,0.0
1488,0.018817383279780046,0.0
1489,-0.0777416442982222,0.0
1490,-0.052235144268142,0.0
1491,-0.05713405114392683,0.0
1492,-0.06689267969534078,0.0
1493,-0.06833365019669177,0.0
1494,-0.06549361682057106,0.0
1495,-0.011089137919152083,0.0
1496,-0.023122983064082236,0.0
1497,-0.029164517847576735,0.0
1498,-0.04515174021146316,0.0
1499,-0.0239704088641278,0.0
1500,0.2621987934309501,0.0
1501,3.717413068739476,0.0
1502,6.778658733406947,0.0
1503,-0.6695666585797815,0.0
1504,-1.8203724429157822,0.0
1505,1.4668779361934947,0.0
1506,-0.8424901980290624,0.0
1507,0.09493319023326381,0.0
1508,-0.08287860617389319,0.0
1509,-0.05005370585921179,0.0
1510,0.03577806828978418,0.0
1511,0.03661251076598604,0.0
1512,0.019860198542383235,0.0
1513,0.0742596621022033,0.0
1514,-0.045214048041671076,0.0
1515,-0.1524571920667985,0.0
1516,-0.012204092632317504,0.0
1517,-0.050743267543191625,0.0
1518,-0.026722394892835982,0.0
1519,0.0036819246558195268,0.0
1520,0.32332182769918666,0.0
1521,3.771584039601592,0.0
1522,6.716050436441643,0.0
1523,-0.7211977026454696,0.0
1524,-1.7778183450769593,0.0
1525,1.4312974345634866,0.0
1526,-0.7775448222214799,0.0
1527,0.07485558914316942,0.0
1528,-0.05300465001004964,0.0
1529,-0.095857796450983,0.0
1530,-0.007690880140771272,0.0
1531,-0.07264744619968719,0.0
1532,0.006155071535774562,0.0
1533,-0.06811235834828519,0.0
1534,-0.07792426981340306,0.0
1535,-0.07464232198257484,0.0
1536,-0.03331029910375994,0.0
1537,-0.021711572789207222,0.0
1538,-0.1123788809047796,0.0
1539,-0.10528499026953929,0.0
1540,0.40317499933965273,0.0
1541,3.708883795671271,0.0
1542,6.874954453031239,0.0
1543,-0.7344588254950033,0.0
1544,-1.8331770497637017,0.0
1545,1.5398217373100633,0.0
1546,-0.8644765376891149,0.0
1547,0.11531680435876485,0.0
1548,-0.05933657474701351,0.0
1549,-0.12387413620817204,0.0
1550,-0.09568087931452265,0.0
1551,-0.06243546591720346,0.0
1552,-0.05952864378020551,0.0
1553,-0.04583567726633188,0.0
1554,-0.14380963489525092,0.0
1555,0.09494948627945768,0.0
1556,-0.04505913747545545,0.0
1557,-0.060241766127583425,0.0
1558,-0.13521723606336275,0.0
1559,-0.10533886145508323,0.0
1560,0.34155915973020884,0.0
1561,3.728002062926149,0.0
1562,6.723454391357202,0.0
1563,-0.660714387838254,0.0
1564,-1.7386877844350908,0.0
1565,1.4516793830422177,0.0
1566,-0.7865038686876529,0.0
1567,0.14921834212711385,0.0
1568,-0.03765210582244426,0.0
1569,-0.1165755895645843,0.0
1570,-0.015392945382985197,0.0
1571,-0.056454184801969794,0.0
1572,0.0013377641864258105,0.0
1573,0.03939029156000249,0.0
1574,-0.0731567272452091,0.0
1575,-0.10136279814847181,0.0
1576,-0.07452388780280993,0.0
1577,-0.02392450504346108,0.0
1578,-0.09251685129379209,0.0
1579,0.004789105866930633,0.0
1580,0.34910724598952886,0.0
1581,3.7885548339827593,0.0
1582,6.708401143422515,0.0
1583,-0.721685796024204,0.0
1584,-1.812282022633917,0.0
1585,1.4600677736646526,0.0
1586,-0.7833537581306639,0.0
1587,0.19487269388671147,0.0
1588,-0.09763016598688501,0.0
1589,-0.024479037093503894,0.0
1590,0.03214217230642767,0.0
1591,0.026461107368182364,0.0
1592,-0.06281243753673971,0.0
1593,-0.06178903416740156,0.0
1594,-0.05872083943569497,0.0
1595,-0.008651889590504811,0.0
1596,-0.0017325171340913659,0.0
1597,-0.03552482583486009,0.0
1598,-0.05323823061707864,0.0
1599,-0.014116879420044456,0.0
1600,0.21379053946688595,0.0
1601,3.762552577886196,0.0
1602,6.738618709589054,0.0
1603,-0.7357976511682628,0.0
1604,-1.7681155953889187,0.0
1605,1.4094225904876947,0.0
1606,-0.7598146728744498,0.0
1607,0.07001650402716614,0.0
1608,-0.053433941802439454,0.0
1609,-0.03107039108492904,0.0
1610,0.07516038354896387,0.0
1611,-0.0447791906355589,0.0
1612,-0.04929504872330187,0.0
1613,-0.05491337904633625,0.0
1614,-0.059718044455771384,0.0
1615,-0.04725574636322957,0.0
1616,0.003874275419667495,0.0
1617,-0.08762608554554542,0.0
1618,-0.12440791123480902,0.0
1619,-0.020112858961627317,0.0
1620,0.31629688315133725,0.0
1621,3.78377436445542,0.0
1622,6.757916843834847,0.0
1623,-0.744796578715502,0.0
1624,-1.7767466311396802,0.0
1625,1.4308324827242167,0.0
1626,-0.8539910853916147,0.0
1627,0.18462560069703063,0.0
1628,0.007969134378955904,0.0
1629,-0.09960367042084578,0.0
1630,-0.01406892423371672,0.0
1631,-0.1432098045705354,0.0
1632,-0.025411915969764227,0.0
1633,-0.1172835233880366,0.0
1634,-0.018008494928960495,0.0
1635,-0.06770439742190798,0.0
1636,-0.07257000901422378,0.0
1637,-0.006531546486936744,0.0
1638,0.07917304960834627,0.0
1639,-0.04517586747062452,0.0
1640,0.18458930805407375,0.0
1641,3.7459278525178195,0.0
1642,6.79405861385199,0.0
1643,-0.7676785005270027,0.0
1644,-1.729507677947645,0.0
1645,1.3827965551485655,0.0
1646,-0.8295793695230634,0.0
1647,0.028330026313389656,0.0
1648,-0.0195395804087809,0.0
1649,-0.008141480127527828,0.0
1650,-0.07678428647768629,0.0
1651,-0.034613563340006266,0.0
1652,-0.0758611470282675,0.0
1653,-0.04187026158921764,0.0
1654,-0.034860427727027236,0.0
1655,-0.07887702372644992,0.0
1656,-0.05752185921230421,0.0
1657,0.04210822729441664,0.0
1658,-0.001338625636077763,0.0
1659,-0.0013565687395591178,0.0
1660,0.3721166238276349,0.0
1661,3.771350625829688,0.0
1662,6.617691202027112,0.0
1663,-0.7724710001544057,0.0
1664,-1.7117860740183248,0.0
1665,1.4407479754417454,0.0
1666,-0.826026402998618,0.0
1667,0.061592469398671454,0.0
1668,-0.0727312579869373,0.0
1669,-0.09600667329108378,0.0
1670,-0.026939036866177688,0.0
1671,-0.07048105568402685,0.0
1672,-0.1230090707824252,0.0
1673,-0.09320242898690762,0.0
1674,-0.1568832695109536,0.0
1675,-0.05966798263779785,0.0
1676,-0.09588369250809793,0.0
1677,-0.03877580462312354,0.0
1678,-0.058097485614088215,0.0
1679,-0.14585308836084143,0.0
1680,0.3235980213796667,0.0
1681,3.891534156542626,0.0
1682,6.789047156556746,0.0
1683,-0.7272937528010524,0.0
1684,-1.7153156935141056,0.0
1685,1.4601701668722151,0.0
1686,-0.7191117353639147,0.0
1687,0.11497102942070789,0.0
1688,-0.013718170494476774,0.0
1689,-0.12262703982601904,0.0
1690,0.008481455941847868,0.0
1691,0.0006616418534097848,0.0
1692,-0.06894787248191503,0.0
1693,-0.03796389646370911,0.0
1694,-0.12699397905893356,0.0
1695,-0.03354072375814857,0.0
1696,-0.05322745178329314,0.0
1697,-0.1412259177517387,0.0
1698,-0.07835310699149547,0.0
1699,-0.1840472227596846,0.0
1700,0.2371247385161459,0.0
1701,3.625324274438433,0.0
1702,6.696650316756752,0.0
1703,-0.755462676651057,0.0
1704,-1.770813303500682,0.0
1705,1.4139647733103358,0.0
1706,-0.7778618564009824,0.0
1707,0.12408034952552346,0.0
1708,-0.014200964875192856,0.0
1709,-0.07807206616682048,0.0
1710,0.12512268164265683,0.0
1711,0.02772401589688282,0.0
1712,0.024657070194236297,0.0
1713,0.026451135888008123,0.0
1714,0.018733737838476504,0.0
1715,0.04966960789298183,0.0
1716,-0.028137846213657263,0.0
1717,0.011509184097929701,0.0
1718,0.014173004064057658,0.0
1719,-0.013456705820107119,0.0
1720,0.27209729811768285,0.0
1721,3.8935743377451604,0.0
1722,6.736622942917491,0.0
1723,-0.8283585673889463,0.0
1724,-1.6752651600860873,0.0
1725,1.382895102552227,0.0
1726,-0.7657316921207837,0.0
1727,0.15430202636343346,0.0
1728,-0.07490170185213892,0.0
1729,-0.021098398097178235,0.0
1730,0.09150762839513758,0.0
1731,-0.012905668465457099,0.0
1732,0.0984303325045572,0.0
1733,-0.015723034260547504,0.0
1734,-0.04053336747475078,0.0
1735,0.02120120679731637,0.0
1736,-0.09030200166174984,0.0
1737,-0.08674330684100792,0.0
1738,-0.07350404958701226,0.0
1739,0.004682116745158525,0.0
1740,0.32183326221685987,0.0
1741,3.7841625716659073,0.0
1742,6.691504040382691,0.0
1743,-0.7505642338068091,0.0
1744,-1.7904571163853316,0.0
1745,1.4364141815641416,0.0
1746,-0.7520147621804145,0.0
1747,0.17741139524171912,0.0
1748,-0.09872005398888375,0.0
1749,-0.0809613993317854,0.0
1750,0.013512495052026818,0.0
1751,0.026736983821197158,0.0
1752,-0.00765914509810061,0.0
1753,-0.01669475980648009,0.0
1754,0.08221940140663156,0.0
1755,-0.01959479997989635,0.0
1756,-0.02227274017174231,0.0
1757,0.03950217323324513,0.0
1758,-0.10293250464513144,0.0
1759,0.03783470682131357,0.0
1760,0.3437447289596923,0.0
1761,3.763795813204358,0.0
1762,6.682260814704733,0.0
1763,-0.7879078246168473,0.0
1764,-1.7650040828430056,0.0
1765,1.5420113703972476,0.0
1766,-0.7511914302127624,0.0
1767,0.14884022015361204,0.0
1768,-0.05257336908492183,0.0
1769,-0.13546509121639083,0.0
1770,0.041596923223985977,0.0
1771,0.04543925279128306,0.0
1772,0.11753687962146478,0.0
1773,-0.0977321096642293,0.0
1774,0.06145557639694638,0.0
1775,-0.05292793679862867,0.0
1776,0.10564910832092514,0.0
1777,0.0017215604660137268,0.0
1778,-0.019066426173503664,0.0
1779,-0.10519608376125053,0.0
1780,0.29165733670846977,0.0
1781,3.858884050170063,0.0
1782,6.690465381145877,0.0
1783,-0.7616204089599596,0.0
1784,-1.618616094603208,0.0
1785,1.4674418623078052,0.0
1786,-0.7641465289421571,0.0
1787,0.20641851733674155,0.0
1788,0.04568446373483888,0.0
1789,0.002569738792405969,0.0
1790,0.10803837964462959,0.0
1791,-0.0030484834436931424,0.0
1792,-0.030319480528580238,0.0
1793,0.013383754950922982,0.0
1794,-0.007150108155458437,0.0
1795,0.05723902800429545,0.0
1796,-0.023948546644909315,0.0
1797,-0.024373342092195965,0.0
1798,-0.03938781370237898,0.0
1799,-0.020084991219092563,0.0
1800,0.3602665534041143,0.0
1801,3.85147096297618,0.0
1802,6.770950096478502,0.0
1803,-0.7710576668812533,0.0
1804,-1.6521521839503197,0.0
1805,1.4674451335984215,0.0
1806,-0.7422499516189099,0.0
1807,0.2462906749762765,0.0
1808,0.01839937308990045,0.0
1809,-0.09266311980931197,0.0
1810,0.052423594959741575,0.0
1811,0.06679964334100848,0.0
1812,-0.04458385068413627,0.0
1813,-0.07217395644864655,0.0
1814,0.05891282028370414,0.0
1815,-0.03101033873887634,0.0
1816,0.03958396517874445,0.0
1817,0.03173069721427031,0.0
1818,-0.007740127384306322,0.0
1819,-0.08503416734470844,0.0
1820,0.3117760460713332,0.0
1821,3.8026084572910572,0.0
1822,6.714885582292216,0.0
1823,-0.7930978647364206,0.0
1824,-1.6663651961538286,0.0
1825,1.45572703059788,0.0
1826,-0.8010473727935202,0.0
1827,0.11033832684097847,0.0
1828,0.035759036204302166,0.0
1829,-0.07128510614869492,0.0
1830,0.0028259159819763926,0.0
1831,-0.05246524993586498,0.0
1832,0.0945822237728037,0.0
1833,0.013370460440527738,0.0
1834,0.07541060326378254,0.0
1835,-0.0013038160601262939,0.0
1836,-0.04729750590401318,0.0
1837,-0.0407992263527176,0.0
1838,-0.019951593497879106,0.0
1839,-0.04311579082569882,0.0
1840,0.28464165933243185,0.0
1841,3.81653212019035,0.0
1842,6.63801924857516,0.0
1843,-0.7365234067358534,0.0
1844,-1.6302628673240733,0.0
1845,1.4649382825598005,0.0
1846,-0.7047732345801287,0.0
1847,0.17628380771138608,0.0
1848,0.02885549265334665,0.0
1849,-0.07803690201765849,0.0
1850,0.024006066719494616,0.0
1851,-0.0820550287585535,0.0
1852,-0.03140587699231414,0.0
1853,0.02201713117993935,0.0
1854,0.004753714337515626,0.0
1855,-0.04086366270610109,0.0
1856,-0.026108651143168862,0.0
1857,0.06156277662879754,0.0
1858,-0.021411655414348314,0.0
1859,-0.2049580286541655,0.0
1860,0.3569122460987428,0.0
1861,3.8532130930266844,0.0
1862,6.644731032742423,0.0
1863,-0.7830109348332076,0.0
1864,-1.7498847028437705,0.0
1865,1.4733523528794494,0.0
1866,-0.7639704684970509,0.0
1867,0.19068407325914571,0.0
1868,-0.0501149391900856,0.0
1869,-0.086272814163536,0.0
1870,0.04679607988133225,0.0
1871,-0.02395691272537184,0.0
1872,0.10518012482661132,0.0
1873,-0.08270586824540704,0.0
1874,-0.06341661376495586,0.0
1875,-0.19097020341613338,0.0
1876,0.016340638081970726,0.0
1877,-0.01454800351329542,0.0
1878,0.014562643155651995,0.0
1879,0.03292563783900558,0.0
1880,0.38119318276199105,0.0
1881,3.7723030003548024,0.0
1882,6.654409025782948,0.0
1883,-0.8696143173112103,0.0
1884,-1.7121160999441742,0.0
1885,1.4452638232177137,0.0
1886,-0.8375904761958801,0.0
1887,0.07766959081232486,0.0
1888,-0.03662326307128616,0.0
1889,-0.030957960212383437,0.0
1890,-0.06109251042361778,0.0
1891,0.026433332352849184,0.0
1892,-0.034572696451859064,0.0
1893,-0.05706591796433891,0.0
1894,-0.12569645025431309,0.0
1895,0.039209523335048034,0.0
1896,-0.06953060533906466,0.0
1897,0.04813617065070683,0.0
1898,-0.07008349757873375,0.0
1899,-0.03550031823889678,0.0
1900,0.3166166973102352,0.0
1901,3.84062252685425,0.0
1902,6.757258742067584,0.0
1903,-0.8442093838270112,0.0
1904,-1.5601253856796269,0.0
1905,1.428668489643775,0.0
1906,-0.7667667642557829,0.0
1907,0.10920731807446998,0.0
1908,-0.042866378503033445,0.0
1909,-0.00699966434273927,0.0
1910,0.05943520747113376,0.0
1911,-0.04472729988049731,0.0
1912,-0.03646980562046885,0.0
1913,-0.06849055148071942,0.0
1914,-0.045562403807979865,0.0
1915,-0.045771952578405294,0.0
1916,-0.03037777199501485,0.0
1917,-0.007277677127398262,0.0
1918,-0.034422742917138566,0.0
1919,-0.12522957637702295,0.0
1920,0.19173607301397766,0.0
1921,3.754273727946779,0.0
1922,6.628124391265318,0.0
1923,-0.8356846254961777,0.0
1924,-1.6739862347174845,0.0
1925,1.4927965586268732,0.0
1926,-0.8594805678904279,0.0
1927,0.0978231462926937,0.0
1928,-0.04916465566102973,0.0
1929,-0.11173540311614374,0.0
1930,-0.07429030670244158,0.0
1931,-0.046550876881875855,0.0
1932,-0.08199113630560666,0.0
1933,-0.08400761209321499,0.0
1934,-0.045552176988694154,0.0
1935,-0.042874647712515014,0.0
1936,-0.06842391206517284,0.0
1937,0.0037613751143040913,0.0
1938,0.006343539635644317,0.0
1939,0.02351383830852599,0.0
1940,0.28162410473583754,0.0
1941,3.8987030852165607,0.0
1942,6.634432945013668,0.0
1943,-0.8650806579228845,0.0
1944,-1.6424719494050064,0.0
1945,1.4713513832718408,0.0
1946,-0.8326432403577919,0.0
1947,0.10960441618270671,0.0
1948,-0.019940430713957662,0.0
1949,-0.03567788951436048,0.0
1950,-0.08401211099277087,0.0
1951,-0.021063091807603157,0.0
1952,-0.08446091026685727,0.0
1953,-0.09598835111994515,0.0
1954,-0.07700463804330193,0.0
1955,-0.024609849438980855,0.0
1956,0.023239597398262077,0.0
1957,-0.05600535732085581,0.0
1958,-0.03911886422378156,0.0
1959,-0.03608568233617733,0.0
1960,0.36998005058932415,0.0
1961,3.88190149738912,0.0
1962,6.718152085796438,0.0
1963,-0.767069329578521,0.0
1964,-1.6214943275187352,0.0
1965,1.5574798469938158,0.0
1966,-0.7397576028457619,0.0
1967,0.27266908205348944,0.0
1968,0.05395068976165943,0.0
1969,-0.07945078180347159,0.0
1970,0.03781165294638499,0.0
1971,0.09620070759198471,0.0
1972,0.0570487976276344,0.0
1973,-0.05620464049523937,0.0
1974,0.06602225800865964,0.0
1975,-0.0127399501367238,0.0
1976,-0.03884508194209584,0.0
1977,0.02525030178432062,0.0
1978,-0.018800815829434027,0.0
1979,-0.020794660267076735,0.0
1980,0.2898592190475149,0.0
1981,3.901670083124092,0.0
1982,6.704494095089291,0.0
1983,-0.7026572801799678,0.0
1984,-1.6693950787697016,0.0
1985,1.4744478977155488,0.0
1986,-0.7367909364288203,0.0
1987,0.25139581374695685,0.0
1988,-0.04530480943232948,0.0
1989,0.02974039779711226,0.0
1990,0.031008863038656215,0.0
1991,0.009670869369418356,0.0
1992,0.0995003065890711,0.0
1993,0.038406804901214606,0.0
1994,-0.0844187225513255,0.0
1995,0.01593215543811448,0.0
1996,0.022551574807515226,0.0
1997,0.021474442737149387,0.0
1998,0.04007325039202016,0.0
1999,-0.04709544870304966,0.0
2000,0.3834476403304579,0.0
2001,3.838746182806835,0.0
2002,6.738381411335589,0.0
2003,-0.8732217582747559,0.0
2004,-1.6426323737396704,0.0
2005,1.4181934735236457,0.0
2006,-0.7431549708453867,0.0
2007,0.13659596239552607,0.0
2008,0.04997947151786357,0.0
2009,-0.030023390751040883,0.0
2010,0.032470167828650205,0.0
2011,0.022711005881199182,0.0
2012,0.06882792983296449,0.0
2013,0.0626641502478791,0.0
2014,-0.02303240825048599,0.0
2015,0.044934004644798686,0.0
2016,0.07105414784833508,0.0
2017,0.03079615299071268,0.0
2018,0.09237795042688687,0.0
2019,0.0246868917090284,0.0
2020,0.40309824031108743,0.0
2021,3.826691762132451,0.0
2022,6.7320862087810776,0.0
2023,-0.7538742644328036,0.0
2024,-1.582122805123916,0.0
2025,1.5812072138186726,0.0
2026,-0.8035546073390101,0.0
2027,0.21053525985674215,0.0
2028,0.0190624025553915,0.0
2029,-0.01903762390286748,0.0
2030,0.007552498546604301,0.0
2031,0.1016247362510347,0.0
2032,-0.03941858234745795,0.0
2033,-0.050808261712009306,0.0
2034,-0.012352369482959313,0.0
2035,-0.0045040261207017485,0.0
2036,0.030398304430796642,0.0
2037,0.0472439173584617,0.0
2038,0.04530937661979603,0.0
2039,0.013163487933362573,0.0
2040,0.2708218477283199,0.0
2041,3.8853273574329665,0.0
2042,6.798146478573272,0.0
2043,-0.8132974077211081,0.0
2044,-1.4641698752102854,0.0
2045,1.5431700910300974,0.0
2046,-0.6881826498485073,0.0
2047,0.1818163879678968,0.0
2048,0.18909616225760748,0.0
2049,0.031169762748413574,0.0
2050,0.12651040874268915,0.0
2051,0.07289965589221967,0.0
2052,0.03457749065802221,0.0
2053,0.07371906450486214,0.0
2054,0.08778064587870456,0.0
2055,0.16071826891659075,0.0
2056,0.045076443676804606,0.0
2057,0.06864519137009127,0.0
2058,0.08492201170162725,0.0
2059,0.04596689161115917,0.0
2060,0.3717972828474803,0.0
2061,3.877703243405407,0.0
2062,6.763017850222577,0.0
2063,-0.7852375592445038,0.0
2064,-1.5634515895544512,0.0
2065,1.5554114844748976,0.0
2066,-0.7737143406189931,0.0
2067,0.31260568500551966,0.0
2068,0.04473673479310243,0.0
2069,0.015703236904013977,0.0
2070,0.022405899778851622,0.0
2071,-0.0018978064575023365,0.0
2072,0.037895567575858144,0.0
2073,0.05969802325561109,0.0
2074,-0.009488289522508148,0.0
2075,-0.002704697858322648,0.0
2076,-0.06638454613599226,0.0
2077,0.04181900008688641,0.0
2078,0.054910995896055644,0.0
2079,0.014609721149832527,0.0
2080,0.3674532297850226,0.0
2081,3.766096246653092,0.0
2082,6.858218604902561,0.0
2083,-0.8212305411847988,0.0
2084,-1.691341537799751,0.0
2085,1.5153659995918232,0.0
2086,-0.6907880958166267,0.0
2087,0.24048522600321648,0.0
2088,0.1068185137708525,0.0
2089,0.03847124055790862,0.0
2090,0.015155009884412943,0.0
2091,0.07824254033483884,0.0
2092,0.07688623345594384,0.0
2093,0.1307977065523766,0.0
2094,0.05646943401120482,0.0
2095,0.07599910326966466,0.0
2096,0.026038607732612514,0.0
2097,0.05497319774886604,0.0
2098,-0.0031391237194398763,0.0
2099,0.11286423578054401,0.0
2100,0.303442466366962,0.0
2101,3.8931034971850664,0.0
2102,6.76848170933809,0.0
2103,-0.7677284688349857,0.0
2104,-1.6103948603273621,0.0
2105,1.5898434603552265,0.0
2106,-0.8155538464018813,0.0
2107,0.23004906176334158,0.0
2108,0.01364380120018862,0.0
2109,0.03899866947369086,0.0
2110,0.025883345118882288,0.0
2111,0.09834609033258651,0.0
2112,0.0010267622325476691,0.0
2113,-0.056147616787406346,0.0
2114,0.09666879573543988,0.0
2115,0.08789856425616047,0.0
2116,-0.08106663675751528,0.0
2117,0.05034051341886361,0.0
2118,0.03747531081113559,0.0
2119,0.0819416920720312,0.0
2120,0.37729214514082204,0.0
2121,3.8756613675198213,0.0
2122,6.676033910036491,0.0
2123,-0.8526132844914028,0.0
2124,-1.5834623716798388,0.0
2125,1.5551282886496989,0.0
2126,-0.7796277910379465,0.0
2127,0.256610101511573,0.0
2128,0.09617830566733429,0.0
2129,-0.05779935086176235,0.0
2130,-0.01807349056445324,0.0
2131,0.02233436080617429,0.0
2132,0.05262622467552426,0.0
2133,0.028459645160318486,0.0
2134,0.04837674809378176,0.0
2135,0.13918841785124808,0.0
2136,0.07298754625193214,0.0
2137,0.007215328268720962,0.0
2138,0.02013252348709013,0.0
2139,0.026465895033093337,0.0
2140,0.39775984709757534,0.0
2141,3.9328094800432702,0.0
2142,6.690072849414247,0.0
2143,-0.8963813324788992,0.0
2144,-1.5465385579708757,0.0
2145,1.4560459310727794,0.0
2146,-0.8298041244230394,0.0
2147,0.16685345632290435,0.0
2148,0.027843391353872194,0.0
2149,-0.044191274210508114,0.0
2150,0.06143143684611434,0.0
2151,0.032334510976963764,0.0
2152,0.009756887157902423,0.0
2153,-0.01064675844803845,0.0
2154,0.047859920153099214,0.0
2155,0.014252903553304578,0.0
2156,0.03384063542270227,0.0
2157,0.023727963788146032,0.0
2158,-0.045818501860944556,0.0
2159,0.07853912195280767,0.0
2160,0.40658563901711886,0.0
2161,3.963006707913106,0.0
2162,6.737042987104593,0.0
2163,-0.9017488955769477,0.0
2164,-1.532581636085548,0.0
2165,1.5897115939705155,0.0
2166,-0.7646926737032078,0.0
2167,0.1519079710831857,0.0
2168,0.05866001914916,0.0
2169,0.006342410212567939,0.0
2170,-0.019661714436593494,0.0
2171,0.0034699574171611625,0.0
2172,0.0067910863908503885,0.0
2173,-0.03345269268630828,0.0
2174,0.07837520749272056,0.0
2175,0.06949287491796483,0.0
2176,0.13889503748817011,0.0
2177,0.03412732880153102,0.0
2178,0.06887813499197025,0.0
2179,0.134240252288093,0.0
2180,0.4250991963785331,0.0
2181,4.017795184664163,0.0
2182,6.817150366120772,0.0
2183,-0.7197050227354393,0.0
2184,-1.468836346723537,0.0
2185,1.6101601161284163,0.0
2186,-0.7366915548129155,0.0
2187,0.2709980530662089,0.0
2188,-0.04157959024152991,0.0
2189,-0.019436738024279542,0.0
2190,0.06770025053547413,0.0
2191,0.0636035510719879,0.0
2192,-0.024201078697666408,0.0
2193,0.015984354693329657,0.0
2194,0.054171949398555644,0.0
2195,0.021035308499951923,0.0
2196,0.10695398185311383,0.0
2197,0.07264098431575673,0.0
2198,0.0753381765026514,0.0
2199,0.05197995575795403,0.0
2200,0.39096971878211445,0.0
2201,3.967755973244908,0.0
2202,6.82876452781042,0.0
2203,-0.7045810800624129,0.0
2204,-1.4409122369860063,0.0
2205,1.5593289487599582,0.0
2206,-0.6819601593541317,0.0
2207,0.29385074450065646,0.0
2208,0.06620283489926602,0.0
2209,-0.019106487795694023,0.0
2210,0.07598851818240925,0.0
2211,0.050733542934538585,0.0
2212,0.07667678685416686,0.0
2213,0.1048959800407408,0.0
2214,-0.033898575076943695,0.0
2215,0.053064732991019326,0.0
2216,0.02196105813755861,0.0
2217,0.04024213286428984,0.0
2218,0.07919583558711248,0.0
2219,0.12737858724976253,0.0
2220,0.4573780978890319,0.0
2221,3.9718392378852654,0.0
2222,6.775724319890442,0.0
2223,-0.7698348032952477,0.0
2224,-1.5676864371750787,0.0
2225,1.5205616640459274,0.0
2226,-0.7170407428695322,0.0
2227,0.22318337267756413,0.0
2228,-0.06551538269575183,0.0
2229,-0.01649872653483532,0.0
2230,0.0589622549291845,0.0
2231,0.07035814669847665,0.0
2232,0.08037739782214721,0.0
2233,0.06532553158110543,0.0
2234,0.06108539884728304,0.0
2235,0.02634322119759267,0.0
2236,0.11464258642221462,0.0
2237,0.014361959060453268,0.0
2238,0.04484090423673237,0.0
2239,0.031299617566156415,0.0
2240,0.45430147102595836,0.0
2241,3.96608124668696,0.0
2242,6.723011458076516,0.0
2243,-0.8325253298666714,0.0
2244,-1.5347904344530279,0.0
2245,1.509975948935418,0.0
2246,-0.7294524598517715,0.0
2247,0.19121617405000618,0.0
2248,0.04092896491884285,0.0
2249,0.028102966165773305,0.0
2250,0.11687330867780323,0.0
2251,0.062009418169019156,0.0
2252,0.006357625415200949,0.0
2253,-0.0284185801904357,0.0
2254,-0.013755599767262143,0.0
2255,0.03463265017118518,0.0
2256,-0.06893198385075014,0.0
2257,-0.014424983179743698,0.0
2258,-0.021454829922035828,0.0
2259,0.040645571071915194,0.0
2260,0.37401590594829254,0.0
2261,3.9924590029428644,0.0
2262,6.808546268760792,0.0
2263,-0.7650801111663433,0.0
2264,-1.5787196171630473,0.0
2265,1.429843283324022,0.0
2266,-0.8248627421689001,0.0
2267,0.25410188396078476,0.0
2268,-0.03669894709810442,0.0
2269,-0.04960128773937736,0.0
2270,-0.033551146133751764,0.0
2271,-0.010114288521545004,0.0
2272,0.007490744338199708,0.0
2273,-0.11365267979214125,0.0
2274,0.01432575305260161,0.0
2275,0.08925432542493285,0.0
2276,0.11047427516224557,0.0
2277,0.033431267443700785,0.0
2278,-0.011250822052156762,0.0
2279,-0.05924967333116214,0.0
2280,0.39709568551684366,0.0
2281,3.949881841227761,0.0
2282,6.722427956255706,0.0
2283,-0.8924286501497234,0.0
2284,-1.6178111710154282,0.0
2285,1.5401652307274423,0.0
2286,-0.6753715584322884,0.0
2287,0.21471786759531936,0.0
2288,0.008622847970306442,0.0
2289,0.010167595646474098,0.0
2290,0.05608308712494305,0.0
2291,0.02624776954697987,0.0
2292,-0.013230862820699655,0.0
2293,0.0025353555866828243,0.0
2294,0.009062586330031312,0.0
2295,0.03040078123001018,0.0
2296,0.004331725782805718,0.0
2297,0.08611691787024808,0.0
2298,0.023306336318683635,0.0
2299,0.025312110353060868,0.0
2300,0.3883973233966531,0.0
2301,3.8801572311186683,0.0
2302,6.763196413410423,0.0
2303,-0.8558505569066618,0.0
2304,-1.5610670378885774,0.0
2305,1.3570822054650742,0.0
2306,-0.7921201308862444,0.0
2307,0.22202684741162648,0.0
2308,-0.036697455644087475,0.0
2309,0.0414940637612045,0.0
2310,0.020616006072137885,0.0
2311,-0.07703503610287242,0.0
2312,-0.08033818498629958,0.0
2313,-0.09059684929123576,0.0
2314,-0.08113640028359437,0.0
2315,-0.003996358875256737,0.0
2316,-0.07557444479905298,0.0
2317,-0.02993070200704448,0.0
2318,-0.017273800338788513,0.0
2319,0.0044190437308682246,0.0
2320,0.24972345486054615,0.0
2321,3.8679717900150385,0.0
2322,6.696686160668772,0.0
2323,-0.898266397582433,0.0
2324,-1.6267348778220645,0.0
2325,1.4729933162503057,0.0
2326,-0.8907984851228016,0.0
2327,0.1695189703704475,0.0
2328,-0.03817738585698368,0.0
2329,-0.12847861070831454,0.0
2330,-0.01942699086713736,0.0
2331,0.015254517650814092,0.0
2332,-0.05872599438110425,0.0
2333,0.005311083026184542,0.0
2334,-0.038972749575882114,0.0
2335,0.0004768647798341838,0.0
2336,-0.09163279079232896,0.0
2337,-0.02834577125749295,0.0
2338,0.009494795586786842,0.0
2339,0.033647430772232007,0.0
2340,0.30614239560664747,0.0
2341,3.9052903751808468,0.0
2342,6.570043454880593,0.0
2343,-0.9573550188126185,0.0
2344,-1.6131016253066883,0.0
2345,1.425983604870922,0.0
2346,-0.8211239451873016,0.0
2347,0.16373071655039478,0.0
2348,-0.04645709526571451,0.0
2349,0.061434097646431804,0.0
2350,0.023542216155231208,0.0
2351,-0.02095447005441643,0.0
2352,-0.003669352382854818,0.0
2353,-0.06062871616506432,0.0
2354,0.011755615302966867,0.0
2355,-0.06845349967354657,0.0
2356,-0.010903233308299686,0.0
2357,-0.021975811734960774,0.0
2358,-0.1394716847056083,0.0
2359,-0.009316432322547814,0.0
2360,0.41087455051849275,0.0
2361,3.8798439743584505,0.0
2362,6.639997165668414,0.0
2363,-0.8494295935484741,0.0
2364,-1.6286768721951708,0.0
2365,1.4161690829357847,0.0
2366,-0.826695549467972,0.0
2367,0.11555891657946818,0.0
2368,-0.09341949116897479,0.0
2369,-0.1284368698039127,0.0
2370,0.01792536330145895,0.0
2371,0.05601934075721928,0.0
2372,-0.05051178483088305,0.0
2373,0.010331167485611203,0.0
2374,-0.06433631366987606,0.0
2375,-0.027675835143856405,0.0
2376,-0.07023575922104516,0.0
2377,-0.04734605695670473,0.0
2378,-0.03656462441132871,0.0
2379,-0.09175520769641007,0.0
2380,0.33067786273847105,0.0
2381,3.897068889883621,0.0
2382,6.703388587622267,0.0
2383,-0.9539382683410818,0.0
2384,-1.5800936388172442,0.0
2385,1.5008464964707735,0.0
2386,-0.7621540824681993,0.0
2387,0.10554535463899943,0.0
2388,-0.030592613423829046,0.0
2389,-0.06842384651696495,0.0
2390,0.01874974184345304,0.0
2391,-0.053616759784858845,0.0
2392,0.0735080683886832,0.0
2393,-0.0348844217080363,0.0
2394,-0.02044157389293281,0.0
2395,0.00495704667451387,0.0
2396,-0.03623936812190835,0.0
2397,0.005868701086385575,0.0
2398,-0.041327412514272396,0.0
2399,-0.04551884630385001,0.0
2400,0.35082335126700476,0.0
2401,3.9191971348388726,0.0
2402,6.668898622675235,0.0
2403,-1.0591490284014178,0.0
2404,-1.5584599441405431,0.0
2405,1.4311394798080859,0.0
2406,-0.8540448727019994,0.0
2407,0.22593684520240512,0.0
2408,0.0989820199165252,0.0
2409,0.06637281734133767,0.0
2410,-0.07514895302485683,0.0
2411,0.05531848561841385,0.0
2412,-0.008782134598591528,0.0
2413,0.04202023783414483,0.0
2414,0.056672079901707,0.0
2415,-0.0020925712906005867,0.0
2416,0.016729835286671324,0.0
2417,-0.03241342226393483,0.0
2418,0.002724608058991636,0.0
2419,0.029368170096287866,0.0
2420,0.3695819166604154,0.0
2421,3.857350209271412,0.0
2422,6.6881932161890845,0.0
2423,-0.8695211155897362,0.0
2424,-1.5529485861646146,0.0
2425,1.4684481868946018,0.0
2426,-0.7769352710689779,0.0
2427,0.23249949249861487,0.0
2428,0.06454239367375048,0.0
2429,-0.0077799740914305145,0.0
2430,0.09769924767403029,0.0
2431,-0.03402749900058818,0.0
2432,0.08711374662618683,0.0
2433,0.07274109859945636,0.0
2434,0.01137849387229917,0.0
2435,0.05818617836653238,0.0
2436,0.049836780780976836,0.0
2437,0.002754974128772094,0.0
2438,-0.005429381261705883,0.0
2439,0.08197938780753995,0.0
2440,0.44163777278564,0.0
2441,3.9599213225866876,0.0
2442,6.734393817370532,0.0
2443,-0.9150715939503337,0.0
2444,-1.563197767103558,0.0
2445,1.5122544236825706,0.0
2446,-0.7082933432054322,0.0
2447,0.18524191921024516,0.0
2448,0.02310757579476623,0.0
2449,-0.016500738619632943,0.0
2450,0.003125013801584843,0.0
2451,-0.008829959628790044,0.0
2452,0.06107777044502034,0.0
2453,0.05544951453033906,0.0
2454,-0.060228979817184926,0.0
2455,0.10343516329345286,0.0
2456,0.046682773742414446,0.0
2457,0.016024056044458817,0.0
2458,-0.014080887385506596,0.0
2459,-0.010008449862251485,0.0
2460,0.5235872381172795,0.0
2461,3.9610826113855584,0.0
2462,6.669040831300128,0.0
2463,-0.9028936553693802,0.0
2464,-1.5804511770887117,0.0
2465,1.4142592365054139,0.0
2466,-0.6829503255491475,0.0
2467,0.10107739848887697,0.0
2468,0.0410903970213208,0.0
2469,-0.025376267140623698,0.0
2470,-0.007355648144854255,0.0
2471,-0.05520687098634468,0.0
2472,-0.03629458923079136,0.0
2473,-0.034298382950203536,0.0
2474,-0.010619707929391028,0.0
2475,-0.018511608878121706,0.0
2476,-0.11140081219032923,0.0
2477,0.0696380233310327,0.0
2478,0.0019802293987541495,0.0
2479,0.01959668649224222,0.0
2480,0.4167801417602743,0.0
2481,3.92841555981886,0.0
2482,6.727952432650772,0.0
2483,-0.9896626501737329,0.0
2484,-1.5179528580035766,0.0
2485,1.493013299085176,0.0
2486,-0.7303857344056723,0.0
2487,0.25848501502822346,0.0
2488,0.05750448317655955,0.0
2489,0.0026117079397003275,0.0
2490,0.03466411734870141,0.0
2491,0.08845765193232444,0.0
2492,0.018528413115771875,0.0
2493,0.11174959430014592,0.0
2494,0.028965296052595717,0.0
2495,0.06268262938403071,0.0
2496,-0.034961106745372804,0.0
2497,0.11364162278836709,0.0
2498,-0.005451191994833951,0.0
2499,0.10302816510302984,0.0
2500,0.3537579543174907,0.0
2501,3.9704360366827203,0.0
2502,6.678227288075299,0.0
2503,-0.9227068314994356,0.0
2504,-1.5756436538605998,0.0
2505,1.5222322117673537,0.0
2506,-0.7875852605948961,0.0
2507,0.18140538761980546,0.0
2508,-0.06491917412910335,0.0
2509,-0.011845120950423789,0.0
2510,0.014112982175221465,0.0
2511,-0.04225934333972957,0.0
2512,-0.06373699975344685,0.0
2513,-0.07473163595446318,0.0
2514,-0.0009563986090876217,0.0
2515,-0.07698117745513786,0.0
2516,0.05380152986408813,0.0
2517,0.04959573979133382,0.0
2518,0.013315080478682972,0.0
2519,-0.006565681621176706,0.0
2520,0.33102909321685875,0.0
2521,4.048413142469087,0.0
2522,6.70186460937588,0.0
2523,-0.9185197480106426,0.0
2524,-1.554742445220347,0.0
2525,1.490312177045057,0.0
2526,-0.7267052013320048,0.0
2527,0.1588258872453217,0.0
2528,-0.0003516175448343775,0.0
2529,-0.02703858452542099,0.0
2530,0.0265366631344223,0.0
2531,-0.13843584064013534,0.0
2532,-0.07381033328718942,0.0
2533,-0.14683763751133272,0.0
2534,-0.003089404260838001,0.0
2535,-0.0038607169344079054,0.0
2536,0.0026811682019711597,0.0
2537,-0.07662316893191634,0.0
2538,-0.007462095693811609,0.0
2539,0.018045954503230658,0.0
2540,0.26029218181119146,0.0
2541,3.9341524404410886,0.0
2542,6.6363495157664385,0.0
2543,-0.9555484973245977,0.0
2544,-1.5918968689326525,0.0
2545,1.460593270836079,0.0
2546,-0.750018064791739,0.0
2547,0.19343111121450735,0.0
2548,-0.004121883514218926,0.0
2549,-0.043434439283653106,0.0
2550,-0.03263900219765903,0.0
2551,-0.033964337845043255,0.0
2552,-0.003630413126957715,0.0
2553,-0.010712972105205379,0.0
2554,-0.050691644238045626,0.0
2555,0.02980563684946843,0.0
2556,0.013543028745485623,0.0
2557,0.0007302158034522823,0.0
2558,-0.005268511427512507,0.0
2559,-0.012093142040540869,0.0
2560,0.4025694760642753,0.0
2561,3.9446518451642247,0.0
2562,6.657084884837857,0.0
2563,-0.9664577120851487,0.0
2564,-1.5311432032620016,0.0
2565,1.4611746756923094,0.0
2566,-0.7863724411942424,0.0
2567,0.16457943812358003,0.0
2568,-0.07203199489168817,0.0
2569,0.039534119531862026,0.0
2570,0.05829448086891265,0.0
2571,-0.10319984958262718,0.0
2572,-0.11555579353767235,0.0
2573,-0.021179265291716133,0.0
2574,-0.015693600461062787,0.0
2575,0.00020251841212794164,0.0
2576,-0.10445540556472678,0.0
2577,-0.002890134926762475,0.0
2578,0.023222492550733588,0.0
2579,-0.024871796372161838,0.0
2580,0.2860767455061495,0.0
2581,3.9279838804170284,0.0
2582,6.602347473276399,0.0
2583,-1.0367810110632105,0.0
2584,-1.5763140760269463,0.0
2585,1.421799381471071,0.0
2586,-0.8660449662245115,0.0
2587,0.19684131195031834,0.0
2588,-0.019745349223649754,0.0
2589,-0.08461074277949808,0.0
2590,0.0052867354981831136,0.0
2591,-0.18543404181053763,0.0
2592,-0.009496876762517086,0.0
2593,-0.05375203977803022,0.0
2594,-0.05741291553484685,0.0
2595,-0.09904402024108469,0.0
2596,-0.11743075884867701,0.0
2597,-0.020790758864089168,0.0
2598,-0.14637212612178133,0.0
2599,-0.08455451706204577,0.0
2600,0.23344264843352666,0.0
2601,3.7577435813385,0.0
2602,6.593120379480854,0.0
2603,-1.0109412544432659,0.0
2604,-1.659284139672584,0.0
2605,1.2710569495519943,0.0
2606,-0.8902790148086381,0.0
2607,0.016060374310779404,0.0
2608,-0.15887944105352222,0.0
2609,-0.12773737527194767,0.0
2610,-0.1310517949672101,0.0
2611,-0.09988393298332654,0.0
2612,-0.0631610865607661,0.0
2613,-0.07364782460358406,0.0
2614,-0.016997049753696453,0.0
2615,-0.079514935391752,0.0
2616,-0.015845731678638376,0.0
2617,-0.07067251697994725,0.0
2618,-0.09096684712334784,0.0
2619,-0.0021480892567439513,0.0
2620,0.38484166631187205,0.0
2621,3.9490613547426614,0.0
2622,6.726872481894562,0.0
2623,-0.960618380393179,0.0
2624,-1.5815143193448788,0.0
2625,1.4795506993561895,0.0
2626,-0.8226975705165019,0.0
2627,0.14893433395740246,0.0
2628,-0.08067331186099666,0.0
2629,-0.08025035385314544,0.0
2630,0.010326578660041955,0.0
2631,-0.08655357667481246,0.0
2632,-0.02303872318232325,0.0
2633,0.0023280893791037954,0.0
2634,-0.009991167058390385,0.0
2635,-0.06971346821629774,0.0
2636,0.03679444838527374,0.0
2637,-0.005585312776319691,0.0
2638,-0.11107677626617213,0.0
2639,-0.11392461891910885,0.0
2640,0.3698200209504955,0.0
2641,3.8854834240990996,0.0
2642,6.648592040190306,0.0
2643,-1.0640148692087061,0.0
2644,-1.630723239333275,0.0
2645,1.2645246347221657,0.0
2646,-0.8607200822950938,0.0
2647,0.09531518335468228,0.0
2648,-0.1750117256778003,0.0
2649,-0.12532412100326576,0.0
2650,-0.09446241690768328,0.0
2651,-0.07705634087283225,0.0
2652,-0.1331429379989881,0.0
2653,-0.08049280180627852,0.0
2654,-0.1508541190981076,0.0
2655,-0.13998922212928314,0.0
2656,-0.1568290062156897,0.0
2657,-0.07027298091293005,0.0
2658,-0.2074238462401295,0.0
2659,-0.14358974452173967,0.0
2660,0.2588986315213308,0.0
2661,3.919877801007842,0.0
2662,6.63906825412807,0.0
2663,-1.109234828426492,0.0
2664,-1.637181513112513,0.0
2665,1.4111941710214069,0.0
2666,-0.9133914441895264,0.0
2667,0.07075781114081371,0.0
2668,-0.08539123897510113,0.0
2669,-0.1860087585681122,0.0
2670,-0.13370566481240823,0.0
2671,-0.1697558494822497,0.0
2672,-0.09020973443325758,0.0
2673,-0.0333841074650717,0.0
2674,-0.057594811863975526,0.0
2675,-0.04598004018988378,0.0
2676,-0.08342927427693997,0.0
2677,-0.06989777329983593,0.0
2678,-0.05126464516502371,0.0
2679,-0.07702663572753392,0.0
2680,0.2775723491802656,0.0
2681,3.9499576811634216,0.0
2682,6.500072681210399,0.0
2683,-1.0597274821078075,0.0
2684,-1.6360226666978332,0.0
2685,1.3433230191823522,0.0
2686,-0.9596515650778548,0.0
2687,0.076393267854819,0.0
2688,-0.15980961301960941,0.0
2689,-0.17893290011351995,0.0
2690,-0.06126227116756758,0.0
2691,-0.011010409229176413,0.0
2692,-0.22903440856974155,0.0
2693,-0.12537482937375496,0.0
2694,-0.15778535334253474,0.0
2695,-0.03156377353018691,0.0
2696,-0.023598080614669684,0.0
2697,-0.13739304961426435,0.0
2698,-0.13513795041568571,0.0
2699,-0.06365774739976468,0.0
2700,0.24439728630698387,0.0
2701,3.8740649075631937,0.0
2702,6.589188015048729,0.0
2703,-1.2080282310113943,0.0
2704,-1.5475866199712445,0.0
2705,1.3594636155806663,0.0
2706,-0.8763524076015432,0.0
2707,0.04143352430387415,0.0
2708,-0.014488242304878773,0.0
2709,-0.13310058438805092,0.0
2710,-0.12837114531094287,0.0
2711,-0.16684772158916947,0.0
2712,-0.1247434555998691,0.0
2713,-0.1162446989472982,0.0
2714,-0.16318976871378746,0.0
2715,-0.08814875832641113,0.0
2716,-0.12915264924474407,0.0
2717,-0.15541445039199872,0.0
2718,-0.15023987269980293,0.0
2719,-0.10183652290870458,0.0
2720,0.34471561180584265,0.0
2721,3.8506151397645083,0.0
2722,6.5313542752776765,0.0
2723,-1.1309239890268348,0.0
2724,-1.5950311306134273,0.0
2725,1.4233717934505574,0.0
2726,-0.9110294562832554,0.0
2727,0.051791570039189966,0.0
2728,-0.23352310935116416,0.0
2729,-0.09332873440085711,0.0
2730,-0.08629090135796015,0.0
2731,-0.11259408746562295,0.0
2732,-0.11949924546062957,0.0
2733,-0.136644626107962,0.0
2734,-0.20169800648561734,0.0
2735,-0.056803033967548856,0.0
2736,-0.0736045348602825,0.0
2737,-0.15251885434790002,0.0
2738,-0.0666834465301411,0.0
2739,-0.09875262328133193,0.0
2740,0.16731774537642985,0.0
2741,3.9571345507301023,0.0
2742,6.525059345632224,0.0
2743,-1.118174727875251,0.0
2744,-1.6128957999040185,0.0
2745,1.3959407199968958,0.0
2746,-0.9184140028983081,0.0
2747,0.04890684847458777,0.0
2748,-0.09020728392519804,0.0
2749,-0.24731007892803739,0.0
2750,-0.07470573664895207,0.0
2751,-0.17565505790846517,0.0
2752,-0.1722629419662664,0.0
2753,-0.10354883008813529,0.0
2754,-0.11306079993632542,0.0
2755,-0.12132488455182638,0.0
2756,-0.0895909078105797,0.0
2757,-0.08112013804603135,0.0
2758,-0.09534433070663174,0.0
2759,-0.18975212897428884,0.0
2760,0.293506272863159,0.0
2761,3.8676214858735913,0.0
2762,6.463284579839697,0.0
2763,-1.177525663560017,0.0
2764,-1.654718966709799,0.0
2765,1.310515140814086,0.0
2766,-0.8095544691735043,0.0
2767,0.1794851037999312,0.0
2768,-0.15538284255077,0.0
2769,-0.1766045348668308,0.0
2770,-0.08560556008625324,0.0
2771,0.006518583114669352,0.0
2772,-0.07601448794635157,0.0
2773,-0.10456433675241025,0.0
2774,-0.037576483523278296,0.0
2775,-0.13678635512130216,0.0
2776,-0.06256077509872521,0.0
2777,-0.1218409364665493,0.0
2778,-0.158086201674074,0.0
2779,-0.10611875614003173,0.0
2780,0.3067188304869055,0.0
2781,3.9195579370037152,0.0
2782,6.566635395842696,0.0
2783,-1.2062062646839833,0.0
2784,-1.6172064100854024,0.0
2785,1.3204789947640931,0.0
2786,-0.9657619528025496,0.0
2787,0.14745212444115385,0.0
2788,-0.030468358454477498,0.0
2789,-0.1496156730690314,0.0
2790,-0.12459786668600994,0.0
2791,-0.02782780819147164,0.0
2792,-0.08674142560647839,0.0
2793,-0.12186410258440497,0.0
2794,-0.0554245188191536,0.0
2795,-0.1290385276131443,0.0
2796,-0.12282758647958682,0.0
2797,-0.113716334666781,0.0
2798,-0.13354577117158162,0.0
2799,-0.14847062240948633,0.0
2800,0.29868906793667177,0.0
2801,3.8780489257583666,0.0
2802,6.598805332380121,0.0
2803,-1.1415098686266338,0.0
2804,-1.6392103192619931,0.0
2805,1.302115380090332,0.0
2806,-0.8774868648814104,0.0
2807,0.1507492135786443,0.0
2808,-0.07382037842218285,0.0
2809,-0.045137606163398195,0.0
2810,-0.05448628511985948,0.0
2811,-0.254415177339774,0.0
2812,-0.09153204219455405,0.0
2813,-0.12614838630842584,0.0
2814,-0.041431220372176586,0.0
2815,0.00010822110812030994,0.0
2816,-0.09430036636899868,0.0
2817,-0.15757580854833791,0.0
2818,-0.04802325670288525,0.0
2819,-0.0718177485207619,0.0
2820,0.3309974773353657,0.0
2821,3.841551214660731,0.0
2822,6.502746368263492,0.0
2823,-1.1072218527422768,0.0
2824,-1.649886306135855,0.0
2825,1.2757973422200481,0.0
2826,-0.8984903832013743,0.0
2827,0.19105161434031612,0.0
2828,-0.10213915029515484,0.0
2829,-0.10247010526681326,0.0
2830,-0.01265190855832412,0.0
2831,-0.0046788501326848475,0.0
2832,0.010537178254170013,0.0
2833,-0.043265171075446016,0.0
2834,-0.10040984059466737,0.0
2835,-0.018224371653893866,0.0
2836,-0.0683260407188297,0.0
2837,-0.10608571054758104,0.0
2838,-0.031925203151238236,0.0
2839,-0.09654080806069018,0.0
2840,0.3892280873924898,0.0
2841,3.9768667127462005,0.0
2842,6.547956176661501,0.0
2843,-1.1609609489675803,0.0
2844,-1.5462979551009266,0.0
2845,1.3610816764840417,0.0
2846,-0.8787515853808426,0.0
2847,0.1485537095978172,0.0
2848,-0.11997387414099998,0.0
2849,-0.09977134765145641,0.0
2850,-0.064276893905464,0.0
2851,0.024514773928586156,0.0
2852,-0.099282609362622,0.0
2853,-0.03471950890639106,0.0
2854,-0.009391990312177818,0.0
2855,-0.0065984434718807106,0.0
2856,0.06181485325994796,0.0
2857,0.012749325051945357,0.0
2858,-0.024126382689202558,0.0
2859,-0.026152502760619367,0.0
2860,0.41570149653027455,0.0
2861,3.92191105256293,0.0
2862,6.538176709348038,0.0
2863,-1.114449213859207,0.0
2864,-1.5502669246750624,0.0
2865,1.457281505121351,0.0
2866,-0.8665968419379823,0.0
2867,0.1358368865291842,0.0
2868,0.0037422492047660613,0.0
2869,-0.0799531413565841,0.0
2870,0.011415208015055425,0.0
2871,-0.09432906087966635,0.0
2872,-0.03368075764529268,0.0
2873,-0.014119011008550848,0.0
2874,-0.04627760451178735,0.0
2875,-0.08327826575262628,0.0
2876,-0.09598550444117818,0.0
2877,-0.020142611778865983,0.0
2878,-0.1339097210553047,0.0
2879,-0.08724827423542425,0.0
2880,0.30051615784393626,0.0
2881,3.9156230247989274,0.0
2882,6.475280072319304,0.0
2883,-1.0330418834092583,0.0
2884,-1.4336801551573963,0.0
2885,1.3314074755673155,0.0
2886,-0.8329730475909364,0.0
2887,0.10879314725995015,0.0
2888,-0.021828951638918154,0.0
2889,-0.10451611998935552,0.0
2890,0.0021486528060430665,0.0
2891,-0.0691926480722227,0.0
2892,-0.04479634802453271,0.0
2893,-0.11605214654024984,0.0
2894,0.01816219217482528,0.0
2895,-0.030491967999926352,0.0
2896,-0.06592515315836248,0.0
2897,0.042929231064803744,0.0
2898,-0.12012897999033745,0.0
2899,0.03381193492711607,0.0
2900,0.3189182404484615,0.0
2901,3.9739239181379005,0.0
2902,6.550497775557866,0.0
2903,-1.0437919262964037,0.0
2904,-1.487724186169659,0.0
2905,1.3996277081562702,0.0
2906,-0.6680658400817737,0.0
2907,0.22032084698400586,0.0
2908,-0.03952593997554071,0.0
2909,-0.09150284169108727,0.0
2910,-0.011088308699490106,0.0
2911,-0.0042227747566500155,0.0
2912,-0.0785176988967404,0.0
2913,-0.0026278632686848012,0.0
2914,-0.007426030297812924,0.0
2915,-0.04415281534274684,0.0
2916,-0.022662260873662562,0.0
2917,0.0015591652789767561,0.0
2918,0.05104033128580736,0.0
2919,-0.030927470981917567,0.0
2920,0.31576670771954923,0.0
2921,3.9444906079945263,0.0
2922,6.620494709666733,0.0
2923,-0.9758061629534542,0.0
2924,-1.4753830006201394,0.0
2925,1.3503835905143498,0.0
2926,-0.8203964082631627,0.0
2927,0.13097616925534747,0.0
2928,-0.0936956810540398,0.0
2929,-0.0419887392259146,0.0
2930,-0.005162454595395053,0.0
2931,0.019152405469416073,0.0
2932,0.012562399825619366,0.0
2933,0.03904625811119795,0.0
2934,-0.06881703225336734,0.0
2935,-0.04048217309966256,0.0
2936,0.004309549718554739,0.0
2937,0.006940865621398292,0.0
2938,0.013135289529534811,0.0
2939,0.0689524225542793,0.0
2940,0.3306028729970413,0.0
2941,4.043302334727492,0.0
2942,6.685337669081763,0.0
2943,-1.0482382053235686,0.0
2944,-1.4240617534921243,0.0
2945,1.4374370605963687,0.0
2946,-0.7617315927592964,0.0
2947,0.17407329313976583,0.0
2948,-0.028523834351313018,0.0
2949,-0.024443250983548034,0.0
2950,-0.08216754319194532,0.0
2951,0.0474694322978023,0.0
2952,0.06690583282807293,0.0
2953,-0.10687648073603905,0.0
2954,-0.008011057516503842,0.0
2955,-0.025143671542946937,0.0
2956,-0.0661951112469471,0.0
2957,-0.08024376788078892,0.0
2958,-0.0056277185261903034,0.0
2959,-0.0015097780359285135,0.0
2960,0.30884480570449013,0.0
2961,4.031988432851403,0.0
2962,6.641466641654314,0.0
2963,-1.1207837116798571,0.0
2964,-1.4621558081546275,0.0
2965,1.3866427555540546,0.0
2966,-0.743783663188317,0.0
2967,0.09089177889075611,0.0
2968,-0.03469203028470852,0.0
2969,-0.0577383551009161,0.0
2970,-0.014485435285901125,0.0
2971,-0.009853756069786113,0.0
2972,-0.02938940484118087,0.0
2973,-0.05732070732145668,0.0
2974,-0.03676793812869124,0.0
2975,-0.038695601988003904,0.0
2976,-0.05903596877232993,0.0
2977,-0.06847308107984587,0.0
2978,-0.014609071968370527,0.0
2979,-0.08945798236367504,0.0
2980,0.32864570674808474,0.0
2981,4.001401959083786,0.0
2982,6.668145085324954,0.0
2983,-1.136852788153846,0.0
2984,-1.4936578561094223,0.0
2985,1.4314937978479245,0.0
2986,-0.8015059607927846,0.0
2987,0.24281383325133335,0.0
2988,0.09206736216464403,0.0
2989,-0.058596779501864954,0.0
2990,0.06312966531879213,0.0
2991,0.03167568434644787,0.0
2992,-0.015928020460028842,0.0
2993,-0.0013639469267338802,0.0
2994,-0.030130681216394194,0.0
2995,0.09486838296964607,0.0
2996,-0.05393516741910984,0.0
2997,-0.0489765795209936,0.0
2998,0.11968935809600145,0.0
2999,-0.014552096171338425,0.0
3000,0.32445516975949706,0.0
3001,4.0467063908776755,0.0
3002,6.553732922119039,0.0
3003,-1.1377658551096246,0.0
3004,-1.4466418613789027,0.0
3005,1.4612896673002989,0.0
3006,-0.8251830682562402,0.0
3007,0.10892832527372773,0.0
3008,0.03313619726994498,0.0
3009,-0.030453044930012,0.0
3010,0.00048677692154027244,0.0
3011,-0.08208827814777334,0.0
3012,0.00022839981034789708,0.0
3013,0.14100270852546262,0.0
3014,0.06202168774701369,0.0
3015,0.04947350629323907,0.0
3016,-0.062006887326016544,0.0
3017,-0.05943295500740986,0.0
3018,0.0684380683961081,0.0
3019,-0.0179363240949285,0.0
3020,0.4259978990892631,0.0
3021,4.060816243565669,0.0
3022,6.581714630206872,0.0
3023,-1.0852616049535542,0.0
3024,-1.3103597134923526,0.0
3025,1.403366898479624,0.0
3026,-0.7316407702397085,0.0
3027,0.23905340129032288,0.0
3028,0.02009604421772359,0.0
3029,-0.06586626839678264,0.0
3030,0.10565195059797663,0.0
3031,-0.0030937168708033173,0.0
3032,-0.00988640323175968,0.0
3033,0.050969706283645964,0.0
3034,-0.06089564007253012,0.0
3035,-0.037491491623504486,0.0
3036,-0.0011924492742907272,0.0
3037,0.02167623491550541,0.0
3038,-0.007748797314070817,0.0
3039,0.07081141554786771,0.0
3040,0.3790181145270339,0.0
3041,4.086682575945464,0.0
3042,6.592310231892245,0.0
3043,-1.026497443022922,0.0
3044,-1.4167516348632119,0.0
3045,1.4018124284462803,0.0
3046,-0.7973777363156781,0.0
3047,0.1781154866711273,0.0
3048,-0.046569210233138494,0.0
3049,-0.1301582963742884,0.0
3050,0.07570938323182255,0.0
3051,0.02371332874275505,0.0
3052,-0.059633568187768146,0.0
3053,0.012749518365657603,0.0
3054,-0.021442317134896846,0.0
3055,0.0028452375606293004,0.0
3056,0.005574680691375292,0.0
3057,-0.03347526139176195,0.0
3058,-0.04913345095181555,0.0
3059,-0.06885835561995139,0.0
3060,0.4013330712165778,0.0
3061,4.111910723195763,0.0
3062,6.62358934198476,0.0
3063,-1.1151286707916666,0.0
3064,-1.5397517156741733,0.0
3065,1.5074111088368136,0.0
3066,-0.6984727213331969,0.0
3067,0.21831304782680683,0.0
3068,0.08602174285195438,0.0
3069,-0.015680407788787244,0.0
3070,-0.030123731509887015,0.0
3071,-0.0010954683869510064,0.0
3072,-0.046820110728756935,0.0
3073,0.011086263127243059,0.0
3074,-0.0707321917670926,0.0
3075,-0.043615784793985174,0.0
3076,-0.082966890215273,0.0
3077,-0.016858831421165336,0.0
3078,0.023653467632041736,0.0
3079,-0.048369797981287654,0.0
3080,0.302869988298349,0.0
3081,3.9817805641031216,0.0
3082,6.542860152421963,0.0
3083,-1.0468098027770945,0.0
3084,-1.509767287036573,0.0
3085,1.4627139638701665,0.0
3086,-0.7714942761540661,0.0
3087,0.15962844900844445,0.0
3088,0.011765054799225709,0.0
3089,0.03580057187511077,0.0
3090,0.026397503803244043,0.0
3091,0.05930259011860625,0.0
3092,-0.09033721414402829,0.0
3093,-0.07220919856147388,0.0
3094,-0.008041245065786618,0.0
3095,0.023793492187021578,0.0
3096,-0.027577288027166216,0.0
3097,0.004582690984088193,0.0
3098,0.0076379835021334825,0.0
3099,0.05352859947283918,0.0
3100,0.39711571902779963,0.0
3101,4.026952412124962,0.0
3102,6.582907609406077,0.0
3103,-1.0733417837384331,0.0
3104,-1.4710452484681555,0.0
3105,1.4117922482756453,0.0
3106,-0.7846092605786454,0.0
3107,0.2183180410036459,0.0
3108,-0.04450852579242067,0.0
3109,-0.008253713392766301,0.0
3110,0.022896483049491018,0.0
3111,-0.05324637053954303,0.0
3112,0.035183401515803125,0.0
3113,-0.030630547089113003,0.0
3114,-0.013348932783337163,0.0
3115,-0.05780195640898756,0.0
3116,0.04048299216450682,0.0
3117,0.041076979577747634,0.0
3118,-0.023119792496901072,0.0
3119,0.10174382445387371,0.0
3120,0.3568568018578534,0.0
3121,4.21227188215251,0.0
3122,6.617078315472981,0.0
3123,-1.112702851996301,0.0
3124,-1.4235466989389285,0.0
3125,1.4549342180230163,0.0
3126,-0.6882710958064799,0.0
3127,0.22180823599549931,0.0
3128,0.008042121028403721,0.0
3129,-0.011431683466071749,0.0
3130,-0.015751562625078083,0.0
3131,-0.05226167497195197,0.0
3132,-0.07360220988187957,0.0
3133,0.022675276437075828,0.0
3134,-0.11628195893031665,0.0
3135,0.010562612790538072,0.0
3136,0.023415269557871456,0.0
3137,-0.053270677141670816,0.0
3138,-0.007567303786217221,0.0
3139,-0.027485671520595743,0.0
3140,0.3235391404089808,0.0
3141,4.032716220673822,0.0
3142,6.629378173681675,0.0
3143,-1.1371012814687385,0.0
3144,-1.4889238958357656,0.0
3145,1.4477770682144433,0.0
3146,-0.8759110675689932,0.0
3147,0.2147138951722475,0.0
3148,-0.030803902027141478,0.0
3149,0.09609646995909807,0.0
3150,-0.038632036031913175,0.0
3151,0.00041712801739429657,0.0
3152,0.07680861474225201,0.0
3153,0.05827491380771822,0.0
3154,0.09270355538988385,0.0
3155,-0.09622757351048891,0.0
3156,0.032877056125422306,0.0
3157,0.04723146723034902,0.0
3158,0.05077876345981743,0.0
3159,0.13813536962984668,0.0
3160,0.3847853054272458,0.0
3161,4.053103687783468,0.0
3162,6.584410309620073,0.0
3163,-1.1587515832221664,0.0
3164,-1.4010834912837278,0.0
3165,1.4514027247013601,0.0
3166,-0.8150817703271264,0.0
3167,0.20733958801835242,0.0
3168,-0.09948760565047286,0.0
3169,-0.03802386573602975,0.0
3170,0.049028130815355404,0.0
3171,-0.09158568334767977,0.0
3172,-0.03561477805204486,0.0
3173,-0.021096474597680916,0.0
3174,-0.09272557750453461,0.0
3175,0.033904764049364516,0.0
3176,-0.02483167026812777,0.0
3177,0.018333879220855137,0.0
3178,0.03853656797040996,0.0
3179,0.06971423063904908,0.0
3180,0.5172962478837773,0.0
3181,4.033212111899801,0.0
3182,6.6450785386471845,0.0
3183,-1.0021013412789135,0.0
3184,-1.3811722939297668,0.0
3185,1.424810201036624,0.0
3186,-0.7714210956390604,0.0
3187,0.1840801344050702,0.0
3188,0.02149463692835379,0.0
3189,0.011853969683233673,0.0
3190,0.008592570504667007,0.0
3191,0.056502226665254715,0.0
3192,-0.030389587918985293,0.0
3193,0.0840322730219008,0.0
3194,-0.11679766790815276,0.0
3195,0.021970418932521888,0.0
3196,-0.03496181609765371,0.0
3197,-0.006305642003028512,0.0
3198,-0.15433242911093117,0.0
3199,0.11932029981359348,0.0
3200,0.4286479917486377,0.0
3201,4.081125369590466,0.0
3202,6.708583644964752,0.0
3203,-1.138032918742528,0.0
3204,-1.4641243957780803,0.0
3205,1.3957420600511479,0.0
3206,-0.8536363084200316,0.0
3207,0.25062117329771033,0.0
3208,0.008487026468498485,0.0
3209,-0.07296754292379017,0.0
3210,-0.1333036920293741,0.0
3211,-0.06713356375567898,0.0
3212,-0.06204126174200964,0.0
3213,-0.07802314151630746,0.0
3214,-0.1319212021261842,0.0
3215,-0.06711974055340555,0.0
3216,-0.010989975006337978,0.0
3217,-0.07958129652420323,0.0
3218,-0.04773750777389467,0.0
3219,-0.05916596767357751,0.0
3220,0.43695564840933415,0.0
3221,4.0964925718461735,0.0
3222,6.5298943716935725,0.0
3223,-1.1598939305639602,0.0
3224,-1.4607328873253551,0.0
3225,1.4586553682273906,0.0
3226,-0.7859533821467977,0.0
3227,0.21729909113963414,0.0
3228,0.033270152790695895,0.0
3229,0.03547816887851072,0.0
3230,0.1175356778207857,0.0
3231,0.09137231849209713,0.0
3232,0.09324781447656957,0.0
3233,0.07398636014293473,0.0
3234,0.078602125612645,0.0
3235,0.03963093560591946,0.0
3236,0.02553349218076203,0.0
3237,-0.017730806612821795,0.0
3238,0.0011312512041972214,0.0
3239,-0.01840258855032419,0.0
3240,0.48255156501673474,0.0
3241,4.065408872726913,0.0
3242,6.604609804285913,0.0
3243,-1.1245334510800873,0.0
3244,-1.3868574805815765,0.0
3245,1.4466618794748805,0.0
3246,-0.7234467042117083,0.0
3247,0.205750945071928,0.0
3248,0.046378699434102146,0.0
3249,-0.007725355502174468,0.0
3250,0.01888626982799128,0.0
3251,0.048117385093195256,0.0
3252,-0.009432257331910117,0.0
3253,0.12919622365467995,0.0
3254,-0.017720268738562042,0.0
3255,0.04475057278890687,0.0
3256,0.01836973005066521,0.0
3257,-0.023405345406097136,0.0
3258,0.015819295267548727,0.0
3259,-0.08157054052611071,0.0
3260,0.441974978139492,0.0
3261,4.100755428146718,0.0
3262,6.551775789735047,0.0
3263,-1.1286353427787654,0.0
3264,-1.423300160701638,0.0
3265,1.3319429421562636,0.0
3266,-0.8765870513054406,0.0
3267,0.21145082683020178,0.0
3268,-0.07980555372429864,0.0
3269,0.004567742124166968,0.0
3270,0.04197358574728864,0.0
3271,-0.0170341629824501,0.0
3272,0.04467048482196012,0.0
3273,-0.02034605798495622,0.0
3274,0.012362180958190052,0.0
3275,0.08969127375760243,0.0
3276,-0.03754018096577419,0.0
3277,0.06112103548222935,0.0
3278,0.012409511597943002,0.0
3279,-0.049408432008593454,0.0
3280,0.4047326032874245,0.0
3281,4.037753458876825,0.0
3282,6.5371648253147105,0.0
3283,-1.1189195010949884,0.0
3284,-1.4473149199002568,0.0
3285,1.4598542235408918,0.0
3286,-0.8141007035982855,0.0
3287,0.24394129401134856,0.0
3288,0.00554950156544725,0.0
3289,-0.049989621582000314,0.0
3290,0.07191782885935112,0.0
3291,-0.016011692641673642,0.0
3292,-0.03760700586156662,0.0
3293,0.07745485001494068,0.0
3294,-0.03558831016922321,0.0
3295,-0.025926752130893464,0.0
3296,-0.08764539153133762,0.0
3297,0.04041208502214407,0.0
3298,-0.004278346654668269,0.0
3299,-0.13767486661300646,0.0
3300,0.39773289703724113,0.0
3301,4.030871377014709,0.0
3302,6.624577452316994,0.0
3303,-1.194037580949185,0.0
3304,-1.4060416277122996,0.0
3305,1.4269678893965756,0.0
3306,-0.797378847522718,0.0
3307,0.2586711752782639,0.0
3308,-0.05150087956025383,0.0
3309,0.04678956103214859,0.0
3310,0.08833101642942598,0.0
3311,0.023843539967820924,0.0
3312,-0.06091940216535832,0.0
3313,-0.033076601196823846,0.0
3314,0.035635984979737745,0.0
3315,0.019127836469889567,0.0
3316,0.04521342125305382,0.0
3317,0.12518037158694018,0.0
3318,0.06497384720784981,0.0
3319,-0.03145003576565522,0.0
3320,0.410918454360915,0.0
3321,4.219920627813062,0.0
3322,6.609583918171521,0.0
3323,-1.094471391793282,0.0
3324,-1.3226956218637056,0.0
3325,1.523642033763856,0.0
3326,-0.881375766334217,0.0
3327,0.2193578750375016,0.0
3328,0.012315839235095966,0.0
3329,-0.0314724537797238,0.0
3330,-0.01059876721149599,0.0
3331,-0.094029879716273,0.0
3332,-0.05617423029160183,0.0
3333,-0.03200565311554936,0.0
3334,-0.2190366305721063,0.0
3335,-0.06532871052654296,0.0
3336,-0.11964261864781178,0.0
3337,-0.09608935558143591,0.0
3338,-0.016702593169115817,0.0
3339,-0.07119650354601481,0.0
3340,0.3830582090228389,0.0
3341,4.070687319639077,0.0
3342,6.6407347861347406,0.0
3343,-1.1398969408604755,0.0
3344,-1.4199836185924966,0.0
3345,1.4257847936189276,0.0
3346,-0.7744445028770407,0.0
3347,0.1610195238541342,0.0
3348,-0.03460380257269989,0.0
3349,-0.028802012234580524,0.0
3350,-0.12079440473960472,0.0
3351,0.01662033379203967,0.0
3352,-0.02780473658416388,0.0
3353,-0.016712762710481954,0.0
3354,-0.016749107655460838,0.0
3355,-0.02080626286308001,0.0
3356,0.032765727614434366,0.0
3357,-0.07581419431420208,0.0
3358,-0.0408003574191878,0.0
3359,-0.000680242496311087,0.0
3360,0.37760809025315306,0.0
3361,3.9615178674451794,0.0
3362,6.622074532934769,0.0
3363,-1.1670559895619563,0.0
3364,-1.3887843635420893,0.0
3365,1.4591743881387882,0.0
3366,-0.7457266991851064,0.0
3367,0.26270740058410674,0.0
3368,-0.044926136458768334,0.0
3369,-0.00035703097531079864,0.0
3370,-0.00486525367917371,0.0
3371,-0.0048090154858064105,0.0
3372,0.08986594383865286,0.0
3373,-0.035923038760012044,0.0
3374,0.031229163377892003,0.0
3375,0.060576160828975836,0.0
3376,0.008514059021702663,0.0
3377,0.02076451124176466,0.0
3378,-0.03930304720224523,0.0
3379,-0.06496887394148752,0.0
3380,0.3851127191934309,0.0
3381,4.060512763010517,0.0
3382,6.586758639959035,0.0
3383,-1.2084611551224527,0.0
3384,-1.3662948306937983,0.0
3385,1.401475867045771,0.0
3386,-0.8402154466783041,0.0
3387,0.23291835785071283,0.0
3388,-0.017713389810785893,0.0
3389,-0.0724733317597734,0.0
3390,0.10349802698254952,0.0
3391,-0.11885833579325303,0.0
3392,-0.02189423337439579,0.0
3393,-0.04462761664849769,0.0
3394,-0.012599610583971074,0.0
3395,-0.007280573874818691,0.0
3396,0.0506419832409379,0.0
3397,0.03698565256445454,0.0
3398,0.040680804731661704,0.0
3399,0.10786419038219024,0.0
3400,0.3937976680353039,0.0
3401,4.144241565157949,0.0
3402,6.653352574319181,0.0
3403,-1.141706243748094,0.0
3404,-1.4291560415717675,0.0
3405,1.4804887784863687,0.0
3406,-0.7124987539789193,0.0
3407,0.27857469788744493,0.0
3408,-0.02634650435284929,0.0
3409,-0.04390780527693537,0.0
3410,0.08221094691692866,0.0
3411,-0.015348438177664177,0.0
3412,0.0035201818654094943,0.0
3413,-0.0401059933185911,0.0
3414,-0.09990144381843377,0.0
3415,0.12754626201883712,0.0
3416,-0.045708341013557655,0.0
3417,-0.035454883855828366,0.0
3418,-0.03218257576558162,0.0
3419,0.02051744611021878,0.0
3420,0.40732109053204857,0.0
3421,4.166200644384324,0.0
3422,6.607371721025294,0.0
3423,-1.1715969499109713,0.0
3424,-1.379212692915878,0.0
3425,1.4892295026318871,0.0
3426,-0.7118479197618601,0.0
3427,0.21163600321640222,0.0
3428,-0.017992105748414776,0.0
3429,-0.05153140789499816,0.0
3430,-0.007280963394333741,0.0
3431,0.019415530611466676,0.0
3432,0.05745202792983609,0.0
3433,0.03900614467605063,0.0
3434,0.051058872456210116,0.0
3435,-0.03187437621689185,0.0
3436,0.0972659648242255,0.0
3437,0.022690906118396473,0.0
3438,-0.01829326201675294,0.0
3439,0.06898554734403468,0.0
3440,0.3819060456727562,0.0
3441,4.161370090738321,0.0
3442,6.584674407030762,0.0
3443,-1.2051559586505032,0.0
3444,-1.2760210831408092,0.0
3445,1.4665849523604964,0.0
3446,-0.789820841067831,0.0
3447,0.3145229322030482,0.0
3448,0.026376056933594134,0.0
3449,0.013684655733677494,0.0
3450,0.052129189159159164,0.0
3451,0.026616361419630537,0.0
3452,0.03667185149920129,0.0
3453,0.1369306065093609,0.0
3454,0.0864952227005657,0.0
3455,0.006382944918200656,0.0
3456,0.024684604577232462,0.0
3457,0.012535088076518514,0.0
3458,0.07458453324212738,0.0
3459,0.1228823356338414,0.0
3460,0.3917661214105366,0.0
3461,4.162597181563899,0.0
3462,6.586851463042116,0.0
3463,-1.1706081783331241,0.0
3464,-1.3559568910320763,0.0
3465,1.5445185202766367,0.0
3466,-0.8174510368988716,0.0
3467,0.2545473583647792,0.0
3468,0.05419604214551757,0.0
3469,-0.0578547941282328,0.0
3470,0.15703496724222554,0.0
3471,0.047978433684881486,0.0
3472,-0.08101855737812276,0.0
3473,0.03549517551001592,0.0
3474,0.08931754782216486,0.0
3475,-0.10414527968426829,0.0
3476,0.12498800689375295,0.0
3477,0.07248535402193468,0.0
3478,0.008626167545573937,0.0
3479,0.002154530258857326,0.0
3480,0.4903582929274115,0.0
3481,4.215253489728037,0.0
3482,6.6127316045105,0.0
3483,-1.1502986588844197,0.0
3484,-1.3941487915928639,0.0
3485,1.4570678129889478,0.0
3486,-0.9059596008080459,0.0
3487,0.10380561822010344,0.0
3488,-0.1368934798645666,0.0
3489,-0.04686799041391712,0.0
3490,-0.048126274260976265,0.0
3491,-0.22348617732780918,0.0
3492,-0.23116265361397464,0.0
3493,-0.1244329861676501,0.0
3494,-0.0692870164244824,0.0
3495,-0.14233123040271448,0.0
3496,-0.18655678166228243,0.0
3497,-0.10207399352323165,0.0
3498,-0.056353994396621025,0.0
3499,-0.03181054898782126,0.0
3500,0.4279401451788508,0.0
3501,4.170408020289798,0.0
3502,6.566925766908649,0.0
3503,-1.1618080908895527,0.0
3504,-1.3301861734029203,0.0
3505,1.4766330617123393,0.0
3506,-0.7274269574521153,0.0
3507,0.35476771405072605,0.0
3508,-0.029535630164902363,0.0
3509,-0.049166959392442464,0.0
3510,0.14015419218468433,0.0
3511,0.0749728043039139,0.0
3512,0.09432526187783465,0.0
3513,0.05923026255457236,0.0
3514,0.08129645384931805,0.0
3515,0.009204414991737006,0.0
3516,0.1015259101542316,0.0
3517,0.02978976675194566,0.0
3518,0.13391754499789632,0.0
3519,-0.03521631974614197,0.0
3520,0.3417122557679336,0.0
3521,4.137438769299146,0.0
3522,6.565405797239288,0.0
3523,-1.2479338086578589,0.0
3524,-1.4233744965667678,0.0
3525,1.4386157106054323,0.0
3526,-0.7859406050741145,0.0
3527,0.17051221016411405,0.0
3528,-0.009605549471441882,0.0
3529,-0.024362560858660513,0.0
3530,-0.008635022459810515,0.0
3531,-0.009698032203021484,0.0
3532,0.021284691251846687,0.0
3533,0.06706168971537471,0.0
3534,-0.0043677197808411235,0.0
3535,0.04959222670245021,0.0
3536,0.04347209592426372,0.0
3537,-0.01104756591352439,0.0
3538,0.034268029964988365,0.0
3539,-0.019889136385104,0.0
3540,0.5085154211139706,0.0
3541,4.109352808258371,0.0
3542,6.56604971765811,0.0
3543,-1.1733622583855456,0.0
3544,-1.411716893713484,0.0
3545,1.3430154300576294,0.0
3546,-0.8042684795183813,0.0
3547,0.17373888180357835,0.0
3548,0.051060930230484955,0.0
3549,0.08716186936089498,0.0
3550,0.03862982573535187,0.0
3551,-0.008540443151586785,0.0
3552,0.008229174908231563,0.0
3553,-0.008020213129117035,0.0
3554,-0.07710517989033548,0.0
3555,0.06159006296304972,0.0
3556,0.019401504094617876,0.0
3557,-0.008421413492130606,0.0
3558,0.04299720523098702,0.0
3559,0.12166278263769759,0.0
3560,0.41755870499183567,0.0
3561,4.086425124269842,0.0
3562,6.678335337522963,0.0
3563,-1.2227473045869524,0.0
3564,-1.3912840804878666,0.0
3565,1.4882326219008053,0.0
3566,-0.7999266182681917,0.0
3567,0.16540476648289246,0.0
3568,0.012944618528876052,0.0
3569,0.07507485355518913,0.0
3570,0.09617011885708643,0.0
3571,0.017113321585110343,0.0
3572,0.028054773878950848,0.0
3573,0.000974409659725152,0.0
3574,0.07061626137975537,0.0
3575,0.07447470007574723,0.0
3576,0.07465518851466724,0.0
3577,0.015308242409396133,0.0
3578,0.005450453836634294,0.0
3579,0.09595348980453255,0.0
3580,0.4240302900028388,0.0
3581,4.1708212402370375,0.0
3582,6.610814704260818,0.0
3583,-1.1716196284105227,0.0
3584,-1.3611873875803855,0.0
3585,1.4299082830765002,0.0
3586,-0.8466577030965048,0.0
3587,0.3041997469155423,0.0
3588,-0.030884261777472232,0.0
3589,-0.029118208465600585,0.0
3590,0.04921690111704419,0.0
3591,-0.03200973430414774,0.0
3592,-0.03292356780925067,0.0
3593,-0.023443704479054854,0.0
3594,-0.032718879421558086,0.0
3595,-0.1245220968617784,0.0
3596,-0.08588323914258891,0.0
3597,-0.08440242985210711,0.0
3598,0.004524496571588897,0.0
3599,-0.06655777402503868,0.0
3600,0.41459994418709717,0.0
3601,4.088476153437228,0.0
3602,6.507340645489729,0.0
3603,-1.2178036846775786,0.0
3604,-1.4286665974501347,0.0
3605,1.3687688648931267,0.0
3606,-0.8238349909528612,0.0
3607,0.2171350192884452,0.0
3608,-0.13597433621426203,0.0
3609,-0.06693836310331945,0.0
3610,0.004956270468363361,0.0
3611,-0.06489698637854893,0.0
3612,-0.04485961636546032,0.0
3613,-0.03412067748159629,0.0
3614,-0.04714962154485899,0.0
3615,-0.10942570175801004,0.0
3616,-0.1840282467375297,0.0
3617,-0.0860051412582691,0.0
3618,-0.03226825686983476,0.0
3619,-0.06375334921694009,0.0
3620,0.3483115879122638,0.0
3621,4.104137997896456,0.0
3622,6.457213189002063,0.0
3623,-1.2219279904227005,0.0
3624,-1.326880471322001,0.0
3625,1.3883462211820068,0.0
3626,-0.8138240471342323,0.0
3627,0.06891590287218727,0.0
3628,-0.028571004819383232,0.0
3629,-0.006512710360069503,0.0
3630,0.09487189504176141,0.0
3631,-0.011354219709580442,0.0
3632,0.0882456250524043,0.0
3633,0.031539419547938825,0.0
3634,-0.08694103240219113,0.0
3635,0.07315000380881456,0.0
3636,-0.03040715992787769,0.0
3637,-0.028770770008617705,0.0
3638,-0.03090075869147007,0.0
3639,0.06109255381611059,0.0
3640,0.39562127072979664,0.0
3641,4.158020088836989,0.0
3642,6.637222729824463,0.0
3643,-1.232642826920778,0.0
3644,-1.3948157772471825,0.0
3645,1.3470577033878808,0.0
3646,-0.7857014992013417,0.0
3647,0.21663891783772954,0.0
3648,-0.03537999657681431,0.0
3649,-0.055283660155102,0.0
3650,-0.15235628376046212,0.0
3651,-0.027496842365792133,0.0
3652,-0.01845532216595748,0.0
3653,-0.01438745641261344,0.0
3654,-0.02104906168418789,0.0
3655,-0.08224071112055376,0.0
3656,-0.015017396719188107,0.0
3657,-0.03135440076588229,0.0
3658,-0.011206942964175591,0.0
3659,-0.027851430225321765,0.0
3660,0.4128382149938958,0.0
3661,4.057584623162884,0.0
3662,6.499178877892384,0.0
3663,-1.2961650556847677,0.0
3664,-1.2469275710964467,0.0
3665,1.3016872602057765,0.0
3666,-0.8331124715588326,0.0
3667,0.2820781598638683,0.0
3668,-0.019351658061863532,0.0
3669,-0.07947644270574872,0.0
3670,0.010433736105772907,0.0
3671,-0.06739337097669326,0.0
3672,-0.0712877122945447,0.0
3673,-0.03890759109474584,0.0
3674,0.012867632975380329,0.0
3675,-0.045439026070171085,0.0
3676,-0.051575972430176115,0.0
3677,-0.08105307715247088,0.0
3678,-0.029569842362082568,0.0
3679,-0.02066507576201145,0.0
3680,0.3933661542327426,0.0
3681,4.018555961284516,0.0
3682,6.54258441557291,0.0
3683,-1.1247771430596947,0.0
3684,-1.237127822636708,0.0
3685,1.4378633166075123,0.0
3686,-0.8562370211005964,0.0
3687,0.3117153662181517,0.0
3688,-0.028688990978854634,0.0
3689,0.0935814658595873,0.0
3690,0.05279568995044222,0.0
3691,0.08249624371898993,0.0
3692,0.04647692567802156,0.0
3693,0.004115363457294921,0.0
3694,0.011229055707236367,0.0
3695,0.07947319618832606,0.0
3696,0.01913765485358801,0.0
3697,-0.017321490379149696,0.0
3698,0.0759299773236464,0.0
3699,-0.028122230978265002,0.0
3700,0.5047970412011341,0.0
3701,4.274928734531216,0.0
3702,6.499480915584145,0.0
3703,-1.2091127702725288,0.0
3704,-1.3221591761965028,0.0
3705,1.4358583652873493,0.0
3706,-0.7340349451706109,0.0
3707,0.2775773874222247,0.0
3708,0.004182065591655518,0.0
3709,-0.04914431878482432,0.0
3710,0.06037733727671417,0.0
3711,0.02850512047066244,0.0
3712,0.15568758798645077,0.0
3713,0.0585495057504265,0.0
3714,0.08377022888444025,0.0
3715,0.02645896482100705,0.0
3716,0.06501097604446415,0.0
3717,0.11502103845703285,0.0
3718,0.044082897211549135,0.0
3719,0.0076107243664148075,0.0
3720,0.47959884522923624,0.0
3721,4.220408124166505,0.0
3722,6.581850656556303,0.0
3723,-1.2225274046532246,0.0
3724,-1.2687080881432904,0.0
3725,1.4174781666597696,0.0
3726,-0.8678477400215574,0.0
3727,0.1769036630260204,0.0
3728,0.043722154973125135,0.0
3729,-0.01289185769263355,0.0
3730,-0.02572993056249832,0.0
3731,0.033782124951197576,0.0
3732,0.02381009657394133,0.0
3733,-0.02418402731693597,0.0
3734,-0.03753006510599738,0.0
3735,0.012383253697880799,0.0
3736,-0.017205892031178276,0.0
3737,-0.09596648346117045,0.0
3738,0.06286099355319522,0.0
3739,0.007537732415516939,0.0
3740,0.4013768772415947,0.0
3741,4.078258511995159,0.0
3742,6.4990694844073245,0.0
3743,-1.2213044132784525,0.0
3744,-1.3678380048944543,0.0
3745,1.3507195741942513,0.0
3746,-0.777814983352257,0.0
3747,0.17386159091189912,0.0
3748,0.029234089551773285,0.0
3749,-0.09690999374387177,0.0
3750,0.021365576252893564,0.0
3751,0.11115431995219197,0.0
3752,0.07280504038832017,0.0
3753,-0.01332518198564809,0.0
3754,-0.07244906713566893,0.0
3755,0.051831941445502724,0.0
3756,-0.020321602114915793,0.0
3757,0.098261554411401,0.0
3758,-0.09137731061934876,0.0
3759,-0.11309803527372914,0.0
3760,0.4246067736164645,0.0
3761,4.1373884556204175,0.0
3762,6.427007637765758,0.0
3763,-1.2934818148503322,0.0
3764,-1.35899842523289,0.0
3765,1.336003791024592,0.0
3766,-0.7853904237563591,0.0
3767,0.2561583941581501,0.0
3768,-0.11885582197028592,0.0
3769,0.038468371321215125,0.0
3770,-0.028360581151152423,0.0
3771,-0.03176085895155648,0.0
3772,0.03354978883129048,0.0
3773,0.034513487689276,0.0
3774,-0.0012151390108342819,0.0
3775,-0.18446317218211694,0.0
3776,-0.06003828706469936,0.0
3777,-0.024567624552629196,0.0
3778,-0.06137774664156164,0.0
3779,-0.08948848944207433,0.0
3780,0.3577720967242333,0.0
3781,4.093577499882142,0.0
3782,6.422613401045073,0.0
3783,-1.3205353203684236,0.0
3784,-1.4749792397819046,0.0
3785,1.2649520773845093,0.0
3786,-0.9315871963479325,0.0
3787,0.17030860172163229,0.0
3788,-0.15956902157879652,0.0
3789,-0.025728149318622127,0.0
3790,0.025757815612897264,0.0
3791,-0.06466552112227475,0.0
3792,-0.13804469453804205,0.0
3793,0.0060317595039925745,0.0
3794,-0.036510357762147366,0.0
3795,-0.049494124008564414,0.0
3796,-0.05158044255163877,0.0
3797,-0.06082454572654583,0.0
3798,-0.0651510376218426,0.0
3799,-0.045185650435113016,0.0
3800,0.4105246868387179,0.0
3801,4.073057583690218,0.0
3802,6.477459756560582,0.0
3803,-1.364308305293225,0.0
3804,-1.3583010416926649,0.0
3805,1.318010384950947,0.0
3806,-0.809223220385755,0.0
3807,0.2413919551802015,0.0
3808,-0.1305103788548328,0.0
3809,-0.11266354264414538,0.0
3810,-0.14020362355658827,0.0
3811,-0.06708890409274543,0.0
3812,-0.07945481934695497,0.0
3813,-0.021250884200812427,0.0
3814,-0.15242054825916265,0.0
3815,-0.08754866630794023,0.0
3816,-0.08025366247228857,0.0
3817,-0.11616362473518765,0.0
3818,0.04268322063039334,0.0
3819,-0.10142956403836212,0.0
3820,0.3163233212443449,0.0
3821,4.113588696769425,0.0
3822,6.516260179432611,0.0
3823,-1.3750101879103185,0.0
3824,-1.4699169028278318,0.0
3825,1.3175863206196878,0.0
3826,-0.7735784794398474,0.0
3827,0.09245878856353314,0.0
3828,-0.06720504115277398,0.0
3829,-0.08570608481648964,0.0
3830,-0.06269829386881069,0.0
3831,0.01858935475585502,0.0
3832,-0.016012104488407272,0.0
3833,-0.03137912322940276,0.0
3834,-0.09749412485312763,0.0
3835,-0.0851691376354297,0.0
3836,-0.08229041561737699,0.0
3837,-0.056319759760422465,0.0
3838,-0.11360266493033233,0.0
3839,-0.087284486314146,0.0
3840,0.3614375985421177,0.0
3841,4.149732015102721,0.0
3842,6.450124740646418,0.0
3843,-1.3482713917327758,0.0
3844,-1.3821281366016755,0.0
3845,1.314893541563435,0.0
3846,-0.9035178522292269,0.0
3847,0.18603587804627533,0.0
3848,-0.07223150017111138,0.0
3849,-0.12612129573881822,0.0
3850,-0.14118433465184022,0.0
3851,-0.013987352693442354,0.0
3852,-0.06371067687697259,0.0
3853,-0.060773778572881056,0.0
3854,-0.12443507996169689,0.0
3855,0.024551773133920596,0.0
3856,-0.03605378446087408,0.0
3857,-0.029237450167225218,0.0
3858,0.004081699337223313,0.0
3859,-0.027271226278626964,0.0
3860,0.39069792707553086,0.0
3861,4.197944857908423,0.0
3862,6.410910518998837,0.0
3863,-1.3320443049730828,0.0
3864,-1.3025854229800675,0.0
3865,1.3612051716773492,0.0
3866,-0.8860527332644811,0.0
3867,0.12978120971901153,0.0
3868,-0.008603950575962957,0.0
3869,-0.13278453803545695,0.0
3870,-0.015560876407485057,0.0
3871,-0.050669034841639246,0.0
3872,-0.004122100603959317,0.0
3873,-0.10034983177157086,0.0
3874,-0.08374150385286078,0.0
3875,-0.1438847285084076,0.0
3876,0.0020650500866302504,0.0
3877,-0.019853404658042927,0.0
3878,-0.06383124544435428,0.0
3879,0.08246972937967216,0.0
3880,0.4755953847403114,0.0
3881,4.198968929557331,0.0
3882,6.5843258104381075,0.0
3883,-1.3495924251870302,0.0
3884,-1.3145108627062005,0.0
3885,1.3315752231135847,0.0
3886,-0.7772844420856211,0.0
3887,0.27411474059199226,0.0
3888,-0.04846382540796312,0.0
3889,0.01627445764519747,0.0
3890,0.06422928238310902,0.0
3891,0.048533555509484294,0.0
3892,-0.039284929774115726,0.0
3893,-0.020983449877435424,0.0
3894,0.013893397121803493,0.0
3895,-0.10148960641817388,0.0
3896,-0.04723127707184591,0.0
3897,-0.05670758781023721,0.0
3898,-0.028375452656830395,0.0
3899,-0.02300505349159302,0.0
3900,0.3199759217281363,0.0
3901,4.136428495114903,0.0
3902,6.494847472379083,0.0
3903,-1.350501798798865,0.0
3904,-1.3562924040123874,0.0
3905,1.2895628368810181,0.0
3906,-0.8207955643071548,0.0
3907,0.23382358434601336,0.0
3908,0.0010539716259657037,0.0
3909,-0.023706018466933695,0.0
3910,0.042167770639044234,0.0
3911,0.024936723736030952,0.0
3912,-0.03442328815999518,0.0
3913,0.04456235595988935,0.0
3914,0.01803678064380352,0.0
3915,0.005904355331165113,0.0
3916,-0.003911767324060622,0.0
3917,0.10137205722235468,0.0
3918,0.07154858472966373,0.0
3919,0.10620022234828559,0.0
3920,0.45038376673170866,0.0
3921,4.374021176220996,0.0
3922,6.560233727065241,0.0
3923,-1.1954769233447644,0.0
3924,-1.1579751402228886,0.0
3925,1.4968609875568797,0.0
3926,-0.7514299570100943,0.0
3927,0.2365981553139202,0.0
3928,0.10317432909064508,0.0
3929,-0.06867098005251365,0.0
3930,-0.002529220633773456,0.0
3931,-0.05885519229458068,0.0
3932,0.0024073564337470307,0.0
3933,0.11805224814696191,0.0
3934,-0.02401273710533533,0.0
3935,0.1270471140582623,0.0
3936,0.09147596698812621,0.0
3937,0.06715985226383046,0.0
3938,0.05557491718133579,0.0
3939,0.06457703470565734,0.0
3940,0.4780801342959593,0.0
3941,4.359676821384717,0.0
3942,6.683461359034899,0.0
3943,-1.216320131087405,0.0
3944,-1.1545723668641348,0.0
3945,1.480956135197583,0.0
3946,-0.7713120579787114,0.0
3947,0.2631946615406263,0.0
3948,0.14407375472647893,0.0
3949,0.04258580804330596,0.0
3950,-0.01767934308652383,0.0
3951,0.04561812109321585,0.0
3952,0.00048080384536289874,0.0
3953,0.01595415212183676,0.0
3954,0.03590875648813297,0.0
3955,-0.05042992919467636,0.0
3956,0.02160362633487655,0.0
3957,-0.017471470884504268,0.0
3958,-0.005827038860427267,0.0
3959,0.0005474113261389382,0.0
3960,0.43070096477511444,0.0
3961,4.208356181421792,0.0
3962,6.544932575841136,0.0
3963,-1.3751763066110139,0.0
3964,-1.2214979407974627,0.0
3965,1.3973286400772371,0.0
3966,-0.7459916519533176,0.0
3967,0.31040591703223425,0.0
3968,0.10043316896418075,0.0
3969,-0.013952551065151548,0.0
3970,0.08957929862083239,0.0
3971,0.11148670160775623,0.0
3972,0.0529957615118465,0.0
3973,0.06176854665118417,0.0
3974,0.008745747091366898,0.0
3975,0.0775461547639749,0.0
3976,0.09811863075782337,0.0
3977,0.07689512304328555,0.0
3978,0.13201485706151053,0.0
3979,0.08464990821325588,0.0
3980,0.42661967710776305,0.0
3981,4.24714491645876,0.0
3982,6.57083462657173,0.0
3983,-1.1947432767412434,0.0
3984,-1.1025351352693136,0.0
3985,1.490471678179965,0.0
3986,-0.7939999118431531,0.0
3987,0.33369829532796574,0.0
3988,0.057054241701013725,0.0
3989,0.06523028548439289,0.0
3990,0.08781324559810219,0.0
3991,0.04657244172589577,0.0
3992,0.15104130678456062,0.0
3993,0.12769634097659352,0.0
3994,0.0471402121078763,0.0
3995,0.022379122862577285,0.0
3996,-0.007632186945460584,0.0
3997,-0.063052664527364,0.0
3998,0.11505173574147917,0.0
3999,-0.013108571910151702,0.0
4000,0.44718471153514205,0.0
4001,4.211378742286778,0.0
4002,6.539839679638673,0.0
4003,-1.1989104503494588,0.0
4004,-1.2374871770582772,0.0
4005,1.3484620901263429,0.0
4006,-0.7618938290295252,0.0
4007,0.3155089201129748,0.0
4008,-0.10468083175309865,0.0
4009,-0.05719322851091156,0.0
4010,-0.006168979902017396,0.0
4011,0.08445498494595353,0.0
4012,0.08060979058184535,0.0
4013,0.027158570135807397,0.0
4014,0.03532523076905651,0.0
4015,0.04054611349058782,0.0
4016,0.012512870728900512,0.0
4017,-0.05031599711871422,0.0
4018,-0.09232831682258345,0.0
4019,0.02531700537768776,0.0
4020,0.4784009861183857,0.0
4021,4.287269398182054,0.0
4022,6.459043154946132,0.0
4023,-1.248548142067843,0.0
4024,-1.152508777656559,0.0
4025,1.3964721969862708,0.0
4026,-0.8101150448310843,0.0
4027,0.31130642061419145,0.0
4028,0.01822932107612287,0.0
4029,-0.03013501522770006,0.0
4030,-0.0668086339768783,0.0
4031,-0.015856292445465124,0.0
4032,0.02053449439196094,0.0
4033,0.07309047343948463,0.0
4034,0.07612001845460678,0.0
4035,0.10371813220933301,0.0
4036,0.04214635007397175,0.0
4037,-0.0002426282424162901,0.0
4038,0.044670334737833405,0.0
4039,0.058888775570583474,0.0
4040,0.4391603333870309,0.0
4041,4.254976759223656,0.0
4042,6.55224842829123,0.0
4043,-1.2082619370114334,0.0
4044,-1.2381821394264483,0.0
4045,1.4355658305133245,0.0
4046,-0.7610146475477585,0.0
4047,0.2653872610138725,0.0
4048,-0.012291359475308909,0.0
4049,0.03573377735561928,0.0
4050,0.06563829062238878,0.0
4051,0.03270822768208066,0.0
4052,0.13593730464486692,0.0
4053,0.0274177731053648,0.0
4054,0.02803116016026789,0.0
4055,0.023156025637784357,0.0
4056,0.038294705894044906,0.0
4057,-0.015793202635120816,0.0
4058,0.009494612493489221,0.0
4059,-0.021586796096956653,0.0
4060,0.4504202066509627,0.0
4061,4.219428520319131,0.0
4062,6.598962983685551,0.0
4063,-1.2731176085855733,0.0
4064,-1.3426962389610893,0.0
4065,1.3328819128958465,0.0
4066,-0.7692866353688033,0.0
4067,0.2597764403290767,0.0
4068,-0.03584552489568976,0.0
4069,-0.06359166952498815,0.0
4070,0.09756996952815092,0.0
4071,0.005624951156290188,0.0
4072,0.08342528476702522,0.0
4073,0.01622351338848556,0.0
4074,-0.07667809223151094,0.0
4075,0.05857266175937828,0.0
4076,0.03852204455097544,0.0
4077,-0.01924343492373416,0.0
4078,0.0278475224244839,0.0
4079,0.0040872575855601945,0.0
4080,0.43180784787022336,0.0
4081,4.2227038085954,0.0
4082,6.506258157410193,0.0
4083,-1.422971451762661,0.0
4084,-1.2843021500628828,0.0
4085,1.377698031634682,0.0
4086,-0.7934338668743864,0.0
4087,0.26604877355084394,0.0
4088,-0.06798480848893718,0.0
4089,-0.020228697576292594,0.0
4090,0.04870193278872704,0.0
4091,0.10373558520759826,0.0
4092,-0.006682120600411495,0.0
4093,-0.04380483666900193,0.0
4094,0.020230192334988142,0.0
4095,-0.03612880520252692,0.0
4096,0.08367015502920304,0.0
4097,0.11070606006643594,0.0
4098,0.04039811140227934,0.0
4099,-0.03699911885236108,0.0
4100,0.6271160106549755,0.0
4101,4.256832752841471,0.0
4102,6.4188747702941615,0.0
4103,-1.3304483559309128,0.0
4104,-1.156394921700557,0.0
4105,1.374091916448376,0.0
4106,-0.7096322297680786,0.0
4107,0.3537818190201148,0.0
4108,0.07588812533476307,0.0
4109,0.08388081244285657,0.0
4110,-0.0039008831836820704,0.0
4111,-0.11113673443072868,0.0
4112,0.0128769277646698,0.0
4113,0.0062758177383374905,0.0
4114,-0.046131770689827836,0.0
4115,0.02282600972634883,0.0
4116,-0.026507374328165863,0.0
4117,0.039762338039093556,0.0
4118,0.010770965877576828,0.0
4119,0.010285591588410428,0.0
4120,0.44823192124974093,0.0
4121,4.281803824509217,0.0
4122,6.5600013631588485,0.0
4123,-1.2563770160718266,0.0
4124,-1.3039072787963948,0.0
4125,1.4627569329277783,0.0
4126,-0.746214230366415,0.0
4127,0.2446399456197215,0.0
4128,-0.014789698559029025,0.0
4129,-0.08549453338750587,0.0
4130,-0.037351367754242006,0.0
4131,0.03771930860989731,0.0
4132,0.04576706900449485,0.0
4133,0.024803703807982743,0.0
4134,-0.03102551297148423,0.0
4135,0.0027548510828864503,0.0
4136,-0.1681604920626435,0.0
4137,-0.02081069324714349,0.0
4138,-0.10037563988669568,0.0
4139,-0.0073258860161952155,0.0
4140,0.41900027784224597,0.0
4141,4.133624935018296,0.0
