timestamp,value-0,is_anomaly
0,0.23916949182681746,0
1,3.430045556666333,0
2,6.839174358699598,0
3,-0.19867681348401006,0
4,-1.9955514260733636,0
5,1.5032789483477447,0
6,-0.7001778082793417,0
7,0.07577821992599033,0
8,-0.12390275580519988,0
9,-0.09659419582605042,0
10,-0.040490137610083965,0
11,-0.10314288348018422,0
12,0.012552077910416112,0
13,-0.0916298532828104,0
14,-0.027168318920062683,0
15,0.11759580443697089,0
16,-0.06601000128307427,0
17,0.0638089163214021,0
18,0.08660229239634024,0
19,0.14329981465681366,0
20,0.1920179542317503,0
21,3.525373304399556,0
22,6.794501307702318,0
23,-0.2377204565830758,0
24,-1.9612769651099085,0
25,1.5656395755016905,0
26,-0.6490960822095465,0
27,0.21455376386410951,0
28,0.10739192420560965,0
29,0.038847159088367056,0
30,0.1119883399341004,0
31,0.1421182625257081,0
32,0.12169535592764176,0
33,0.16270953243107666,0
34,-0.012966894833973671,0
35,0.11841681540366078,0
36,0.14136083934073715,0
37,0.14534398397216636,0
38,0.06449975427389693,0
39,0.049321138314756,0
40,0.3599214136567491,0
41,3.6106487584301505,0
42,6.873602395308257,0
43,-0.17392293222979,0
44,-1.9031829967997225,0
45,1.6617709653368475,0
46,-0.7275165409380023,0
47,0.21584511309397025,0
48,0.06954189714664152,0
49,0.1663229728096105,0
50,0.103478522523119,0
51,-0.0016240154422249298,0
52,0.03807535987689986,0
53,0.06707100569406772,0
54,0.050076525707548156,0
55,0.050884763150095824,0
56,0.008353227920009393,0
57,0.048818912367689246,0
58,0.05532152692634709,0
59,0.1535321514161534,0
60,0.3737034387287606,0
61,3.600650093440188,0
62,7.134171138343668,0
63,-0.22683634607948466,0
64,-1.8329085147154633,0
65,1.6399895876859591,0
66,-0.5872247112080424,0
67,0.2668574776146251,0
68,0.09181628141831272,0
69,0.13397564274471388,0
70,0.03829691678992289,0
71,0.05854212315987556,0
72,0.06055169029657251,0
73,0.14449973662695154,0
74,0.19262512358141715,0
75,0.10063554875290426,0
76,0.1882258643596446,0
77,0.07697992392413106,0
78,0.08012179212975236,0
79,0.16272559754809068,0
80,0.3842942208483392,0
81,3.589364220361366,0
82,6.954741687900194,0
83,-0.09676760098394205,0
84,-1.7041195633104391,0
85,1.7696876505969041,0
86,-0.5223932435260575,0
87,0.2836055491351387,0
88,0.27105301418796357,0
89,0.07988394829057946,0
90,0.23082106332159044,0
91,0.15788095377061712,0
92,0.20093448951135204,0
93,0.23941178594744722,0
94,0.20163900563306517,0
95,0.1617967964226036,0
96,0.11732418156709085,0
97,0.18517700536358772,0
98,0.1434207825173525,0
99,0.20518103212875066,0
100,0.49471508107691287,0
101,3.6930324589264685,0
102,7.079341674400488,0
103,-0.04327174390286603,0
104,-1.824925702936723,0
105,1.7558904915440392,0
106,-0.5757549818998606,0
107,0.29645634243950325,0
108,0.3307763277852839,0
109,0.1888354026560306,0
110,0.2646759264864986,0
111,0.18404681103224646,0
112,0.1968685643895659,0
113,0.30856369374708376,0
114,0.2831131254252403,0
115,0.40869435581707875,0
116,0.2892406457519103,0
117,0.24197027651201664,0
118,0.25542173178528615,0
119,0.1491755194415886,0
120,0.46293669177838825,0
121,3.7346431946402907,0
122,7.063949812645308,0
123,0.020540249840869662,0
124,-1.6512393022820215,0
125,1.66950979401523,0
126,-0.4399658581622126,0
127,0.378941467418473,0
128,0.33995567925793396,0
129,0.0645728348174362,0
130,0.2574869050525733,0
131,0.3145330539798751,0
132,0.2928036750010528,0
133,0.31165852710992437,0
134,0.26535582290091375,0
135,0.33066927805718793,0
136,0.29664718605652085,0
137,0.2916340251673234,0
138,0.357452441687127,0
139,0.27895994917143685,0
140,0.5344564173077668,0
141,3.8175592146327437,0
142,7.196596871765895,0
143,-0.07352813357381882,0
144,-1.5703236911483214,0
145,1.8832826366234785,0
146,-0.45843506500124176,0
147,0.34240393136992053,0
148,0.37746388043275664,0
149,0.22242219237437152,0
150,0.3454044801343038,0
151,0.22588519088927972,0
152,0.26238034714661324,0
153,0.30771904858852,0
154,0.2634245730030286,0
155,0.2809483722735717,0
156,0.2989769701575926,0
157,0.41448494375670536,0
158,0.3797657495203839,0
159,0.2455489870994362,0
160,0.6009346124404784,0
161,3.8632628214480365,0
162,7.251602440041821,0
163,0.04429585566708805,0
164,-1.5687181463616404,0
165,1.879187768439829,0
166,-0.37844484352285673,0
167,0.5194455862278313,0
168,0.46421566995379715,0
169,0.24991523374290858,0
170,0.3015365888633095,0
171,0.3466153459022897,0
172,0.37780593886299546,0
173,0.30875522143368683,0
174,0.44934004386774395,0
175,0.3333855587801108,0
176,0.38190431279097214,0
177,0.30954703311864845,0
178,0.32275033282122817,0
179,0.4218939063026167,0
180,0.6426834246545743,0
181,3.836437462855502,0
182,7.194086180410086,0
183,0.03105710882352969,0
184,-1.6332581701999278,0
185,1.925751841638263,0
186,-0.3614157199830084,0
187,0.4823214616557229,0
188,0.35427342534712714,0
189,0.28987782805053885,0
190,0.3806643834750795,0
191,0.3820633694606422,0
192,0.3036678543955613,0
193,0.497443073738747,0
194,0.2857211482407124,0
195,0.4221865050747988,0
196,0.3347603541270965,0
197,0.3616263287047292,0
198,0.3543347779058398,0
199,0.41842041332205016,0
200,0.7139224673180263,0
201,3.905117764348209,0
202,7.262472395003336,0
203,0.10479066919808366,0
204,-1.54780437105037,0
205,2.097079455328653,0
206,-0.4310271733153481,0
207,0.5296832575139722,0
208,0.4671731705854503,0
209,0.3956360483508304,0
210,0.4280384674739941,0
211,0.5171375750166829,0
212,0.4275287126964641,0
213,0.3941859781036942,0
214,0.44612019426438687,0
215,0.47309990105243804,0
216,0.5378155997700473,0
217,0.3662213486378686,0
218,0.4337897915622066,0
219,0.38638730329389753,0
220,0.6598044009065522,0
221,3.919407174757133,0
222,7.354688780383695,0
223,0.17895151740941362,0
224,-1.3927083688828206,0
225,1.9500060435487154,0
226,-0.12844043963961382,0
227,0.5030997949345712,0
228,0.4208966503766459,0
229,0.4198518666468939,0
230,0.41030952302791274,0
231,0.47189977055773846,0
232,0.44336907203036274,0
233,0.4632700676304865,0
234,0.44933019180783257,0
235,0.5775716319079411,0
236,0.29593977824803824,0
237,0.47834658952945724,0
238,0.5172160074875548,0
239,0.47851862466511097,0
240,0.7470687372697062,0
241,4.045655120610073,0
242,7.39947348205637,0
243,0.17012177503964432,0
244,-1.3525598208079752,0
245,2.0557787607471756,0
246,-0.29509778617479765,0
247,0.6611199371147609,0
248,0.4829030068039438,0
249,0.41152497188636705,0
250,0.5476654547694267,0
251,0.43183750306994306,0
252,0.3863871850450779,0
253,0.45710715809231445,0
254,0.5188609702634859,0
255,0.4544125251012883,0
256,0.4876117619134726,0
257,0.5487231250805814,0
258,0.42091716244093463,0
259,0.4947747141101272,0
260,0.6682692599873837,0
261,4.008686353511682,0
262,7.198723906061263,0
263,0.13299703562260823,0
264,-1.4733866163052027,0
265,2.0685768563481206,0
266,-0.2513178590254688,0
267,0.6521535375728508,0
268,0.4389246655312368,0
269,0.5149484710807556,0
270,0.5044215730283187,0
271,0.3339717428582065,0
272,0.4754695918574748,0
273,0.5219397068017543,0
274,0.5835230094817027,0
275,0.4788020882331846,0
276,0.5309417273169839,0
277,0.5996104531349765,0
278,0.462242367906663,0
279,0.5048113804229899,0
280,0.7531091790209895,0
281,3.9593264819992458,0
282,7.330354571755448,0
283,0.1697277781175256,0
284,-1.4287860497084859,0
285,2.091624188598849,0
286,-0.19148518031800243,0
287,0.5784641183768908,0
288,0.39666597051987706,0
289,0.3843746699576524,0
290,0.3563317528277599,0
291,0.5389975474721571,0
292,0.49839559149514295,0
293,0.4649513718606243,0
294,0.4919217724141749,0
295,0.5352710628397154,0
296,0.49594667023012845,0
297,0.44602803830110566,0
298,0.5711546566258974,0
299,0.5014274876500127,0
300,0.6825564196466837,0
301,4.051635061020849,0
302,7.326423641535666,0
303,0.14442020972625286,0
304,-1.3851193757981195,0
305,2.0313847318937523,0
306,-0.3025726763554185,0
307,0.6076857813569604,0
308,0.554274760298706,0
309,0.47862498331973546,0
310,0.5221978563877104,0
311,0.5699910885373795,0
312,0.523685554261418,0
313,0.4207546285821352,0
314,0.4565208367278737,0
315,0.43427373622904236,0
316,0.4404550080563239,0
317,0.35977652137595373,0
318,0.5250707445424823,0
319,0.37287514680036216,0
320,0.6989245428987867,0
321,3.984134707175354,0
322,7.2678981155876725,0
323,0.06758580128812386,0
324,-1.4007549024473693,0
325,2.034694898012421,0
326,-0.13150446493208923,0
327,0.5050811376463391,0
328,0.390599265128484,0
329,0.301846085181404,0
330,0.4655628388084997,0
331,0.4137566108748928,0
332,0.407360015245624,0
333,0.4010977077225333,0
334,0.44810031366580516,0
335,0.3895315437379377,0
336,0.4920682264361669,0
337,0.4510462548853253,0
338,0.36297643177380234,0
339,0.4158052589067033,0
340,0.6048003928301967,0
341,4.009372244913795,0
342,7.317694070953115,0
343,0.1254529580022477,0
344,-1.5532411987499433,0
345,1.9329849198123754,0
346,-0.30920011201124337,0
347,0.587050597550412,0
348,0.3192023456020209,0
349,0.33178244281986163,0
350,0.3630140789734807,0
351,0.420376554553049,0
352,0.42151710131467285,0
353,0.3901708619776769,0
354,0.4793651165775339,0
355,0.5021930413843146,0
356,0.29075597618305155,0
357,0.34915045169675024,0
358,0.4680362065688881,0
359,0.40056775469013484,0
360,0.6510076408123215,0
361,3.9384872594757416,0
362,7.210938423348737,0
363,-0.026456991534635377,0
364,-1.5974924499016545,0
365,1.831136961245002,0
366,-0.4201371333507439,0
367,0.4474521282522766,0
368,0.42814665713095795,0
369,0.29654293949892707,0
370,0.31015331290528086,0
371,0.3214722641232775,0
372,0.28761939098290845,0
373,0.23598273100861658,0
374,0.3314638861688479,0
375,0.24985030493385285,0
376,0.2692013080612019,0
377,0.32786999385107196,0
378,0.2697432300921039,0
379,0.29297820499023985,0
380,0.6300223119861614,0
381,3.874426239024311,0
382,7.171865327150925,0
383,-0.14019187837454128,0
384,-1.5145360181398342,0
385,1.8205594193665606,0
386,-0.3594555573347793,0
387,0.4797010284815215,0
388,0.37794704918148636,0
389,0.2655782409332392,0
390,0.3249113000799149,0
391,0.21245638799035496,0
392,0.33814520667551357,0
393,0.3001837757961018,0
394,0.2554134989992123,0
395,0.3393215925120068,0
396,0.29813960673637285,0
397,0.17539378715948103,0
398,0.23781487960854644,0
399,0.27940689791265794,0
400,0.5125873762809059,0
401,3.7905687696922485,0
402,7.151788201074607,0
403,0.06222120416856436,0
404,-1.6051905850388581,0
405,1.8320617578226308,0
406,-0.40244215239199926,0
407,0.4441336952853678,0
408,0.3516678044201133,0
409,0.15797584904754103,0
410,0.3582556586768801,0
411,0.28494806342554324,0
412,0.3194353774805957,0
413,0.2931010628974083,0
414,0.3051788701769983,0
415,0.31366110722383417,0
416,0.19190181807964846,0
417,0.2890044801676974,0
418,0.19728201381598706,0
419,0.27281137894611085,0
420,0.40516818947170996,0
421,3.6686708898444915,0
422,6.9756490489688545,0
423,-0.10906060693958475,0
424,-1.7547445416566139,0
425,1.6395200911529597,0
426,-0.4172424829278382,0
427,0.2846361494766268,0
428,0.23407809864681575,0
429,0.18533107408532185,0
430,0.19053622563837502,0
431,0.17166118251735862,0
432,0.15474878229331018,0
433,0.2229854812301272,0
434,0.1567353739168607,0
435,0.17806745719682443,0
436,0.19249768174459303,0
437,0.1641690494002102,0
438,0.2077456279393858,0
439,0.1294556209941158,0
440,0.4492110293238331,0
441,3.7874817918352415,0
442,7.123830208478851,0
443,-0.08412195238818254,0
444,-1.656851959219672,0
445,1.6397425224685027,0
446,-0.6516247697136891,0
447,0.3165192456314468,0
448,0.14435645367766847,0
449,0.13906698701511333,0
450,0.15570190984542767,0
451,0.18495855851353188,0
452,0.1079906424920837,0
453,0.12773033825855587,0
454,0.14503455286259448,0
455,0.1726686215954175,0
456,0.08717312294755142,0
457,0.05357138149993877,0
458,0.04591423367889494,0
459,0.1946152015355201,0
460,0.49744667266970444,0
461,3.7102153421567325,0
462,6.969395358062369,0
463,-0.20193670493718238,0
464,-1.734683487658605,0
465,1.671507354591754,0
466,-0.5924845356818664,0
467,0.3073808086343645,0
468,0.13727349907266004,0
469,0.1183753767747032,0
470,0.12468570167866458,0
471,0.1508244128663149,0
472,0.13987173610381204,0
473,0.11999799514125951,0
474,0.0015114185086156067,0
475,0.08854220292884418,0
476,0.05891299428138362,0
477,0.09986127843201895,0
478,0.06767818699371987,0
479,0.06268775358271707,0
480,0.40593053003294827,0
481,3.58610081509804,0
482,7.000104286570913,0
483,-0.26473976337894495,0
484,-1.797006399854701,0
485,1.5914991825816351,0
486,-0.7381609991886923,0
487,0.19325224951588965,0
488,-0.0053121449396398325,0
489,-0.09660313493422207,0
490,0.02596859491231607,0
491,0.08187407958577333,0
492,-0.04542966961983584,0
493,0.016526032067795127,0
494,-0.020759934782645335,0
495,0.02878817724164873,0
496,0.10426517549462415,0
497,0.039708253944324874,0
498,0.07581299738473962,0
499,0.02865561260612495,0
500,0.22917594674009378,0
501,3.597833881677331,0
502,6.902181676553025,0
503,-0.3853977384892044,0
504,-1.814785978842543,0
505,1.5358771274476544,0
506,-0.7456454045403031,0
507,0.14885739417816984,0
508,-0.05477057891413132,0
509,-0.09257500657038836,0
510,-0.022233262250596415,0
511,-0.057481689894778906,0
512,-0.10492626413075043,0
513,-0.09401660772608669,0
514,-0.05244792586586109,0
515,0.031093676508595444,0
516,-0.06666362651861889,0
517,-0.0401972556733325,0
518,0.010257403580517924,0
519,-0.09382908127772939,0
520,0.10734161500592534,0
521,3.5646117710779177,0
522,6.803449291101474,0
523,-0.38879640842684365,0
524,-2.0371239714933056,0
525,1.5377562326811556,0
526,-0.7105475725977959,0
527,0.0777360195103448,0
528,0.03142688372657087,0
529,-0.026057038688806565,0
530,-0.00826646787222815,0
531,0.046516686150661554,0
532,-0.05361345526578225,0
533,-0.07632972236459429,0
534,0.015191595807865374,0
535,-0.06927150179495908,0
536,-0.041723787353330946,0
537,-0.1058050433233168,0
538,-0.11956867659394398,0
539,-0.15105841297708794,0
540,0.15777276705000098,0
541,3.4035286957616426,0
542,6.709199314416908,0
543,-0.4931220325944732,0
544,-2.0155693428690107,0
545,1.3885743827377555,0
546,-0.8607064591774167,0
547,-0.05225366247509611,0
548,-0.1839215202040561,0
549,-0.20011033275907833,0
550,-0.14759969684063826,0
551,-0.13246168638239397,0
552,-0.20326976448584833,0
553,-0.23331137266575877,0
554,-0.1802788866891276,0
555,-0.21546717907969332,0
556,-0.10298864128385572,0
557,-0.1757431485296225,0
558,-0.21792232057217056,0
559,-0.21045571475343927,0
560,0.13387985008574915,0
561,3.3672473381363384,0
562,6.679331479567216,0
563,-0.6184382163704842,0
564,-2.030576339703318,0
565,1.3453754688879582,0
566,-0.9585237932676753,0
567,0.029720850528993828,0
568,-0.16516090725389676,0
569,-0.2543384978723641,0
570,-0.23324194497313586,0
571,-0.26241104835620616,0
572,-0.18948905351465276,0
573,-0.18852444502935467,0
574,-0.2644805910070321,0
575,-0.2086594357449801,0
576,-0.344973439468851,0
577,-0.26219772548478326,0
578,-0.19562719647382792,0
579,-0.24899470110029584,0
580,0.0871042141121966,0
581,3.2784454923833675,0
582,6.57814907257713,0
583,-0.5309511161565255,0
584,-2.0400756963362556,0
585,1.2669459737813038,0
586,-0.9904735247903917,0
587,-0.1582273384871681,0
588,-0.19957390316465784,0
589,-0.39862478474099045,0
590,-0.36150966281569463,0
591,-0.3111642387454425,0
592,-0.2947808949422883,0
593,-0.2933631150508349,0
594,-0.3053072294496033,0
595,-0.35960962521864903,0
596,-0.35119859483583143,0
597,-0.346534943426696,0
598,-0.34210850046940977,0
599,-0.35930500526520254,0
600,-0.07044413724200516,0
601,3.330025129962231,0
602,6.435191005113504,0
603,-0.7311821513434378,0
604,-2.1452525377879064,0
605,1.190725560276003,0
606,-1.0653892279001917,0
607,-0.21891335245382199,0
608,-0.39860536721360046,0
609,-0.34137646102781816,0
610,-0.24683451578311,0
611,-0.38180649196945027,0
612,-0.3002574011415339,0
613,-0.3509421967615519,0
614,-0.3446939242981773,0
615,-0.29398620242528317,0
616,-0.29486963896124396,0
617,-0.37114097470103385,0
618,-0.404380060064671,0
619,-0.27553778944505963,0
620,-0.037593717313156694,0
621,3.3313175166827866,0
622,6.38370712129311,0
623,-0.8653691261408588,0
624,-2.154587065500121,0
625,1.10841714664793,0
626,-1.0659614700147992,0
627,-0.1999463097531718,0
628,-0.3519499099229009,0
629,-0.4224484155237942,0
630,-0.3633747353800222,0
631,-0.41404312270818133,0
632,-0.4366256586214585,0
633,-0.3726823093490583,0
634,-0.416268643873856,0
635,-0.35535771914708314,0
636,-0.45775304113594156,0
637,-0.44923307622177766,0
638,-0.4305616303803456,0
639,-0.43663855502030796,0
640,-0.16976490526534688,0
641,3.1962112652288557,0
642,6.472590741833062,0
643,-0.8315008535728563,0
644,-2.3368827002385584,0
645,1.1337066189346332,0
646,-1.154091864834397,0
647,-0.23756383105134382,0
648,-0.39453651949536683,0
649,-0.41007802267074506,0
650,-0.3545899225929105,0
651,-0.3603036936331116,0
652,-0.459761672230983,0
653,-0.4553410219471473,0
654,-0.4356344832257681,0
655,-0.38455395118403946,0
656,-0.48803215427530205,0
657,-0.5037057537264377,0
658,-0.49937330164871463,0
659,-0.4008486309542135,0
660,-0.1693359498757403,0
661,3.089222362280399,0
662,6.350516648026199,0
663,-0.8618831385646107,0
664,-2.3057729652159447,0
665,1.0846958511916323,0
666,-1.149079682115025,0
667,-0.32188201116802706,0
668,-0.34565420230157134,0
669,-0.4488424337573843,0
670,-0.48550039647973486,0
671,-0.4078627474354841,0
672,-0.4268507346946879,0
673,-0.562739518539246,0
674,-0.34833781652409934,0
675,-0.4356117378391647,0
676,-0.5016605848943505,0
677,-0.3617520280130495,0
678,-0.5120158295714211,0
679,-0.5208164632925326,0
680,-0.11976708249390883,0
681,3.284244003735177,0
682,6.334975074652409,0
683,-1.0075983573253688,0
684,-2.311029556660651,0
685,1.1077781134918545,0
686,-1.1916213063168268,0
687,-0.3483994614483374,0
688,-0.49996315162192495,0
689,-0.45022940290509156,0
690,-0.4128886039015304,0
691,-0.4804584621834971,0
692,-0.43386844399545044,0
693,-0.5146617745224442,0
694,-0.43792607713217147,0
695,-0.408459509059589,0
696,-0.489742886628565,0
697,-0.6007347102538346,0
698,-0.41146587713713023,0
699,-0.5250877783516973,0
700,-0.0711222601560273,0
701,3.099020833096605,0
702,6.308860606824868,0
703,-0.9665425906063289,0
704,-2.257429375922064,0
705,1.1427486561717186,0
706,-1.1734080955525767,0
707,-0.33972000070786235,0
708,-0.39172194157212675,0
709,-0.578968948645879,0
710,-0.4537765237890878,0
711,-0.522213319659977,0
712,-0.5153692266257993,0
713,-0.4519221584095293,0
714,-0.5782201285903146,0
715,-0.4115966661931551,0
716,-0.49603870808931755,0
717,-0.4357887137718192,0
718,-0.4986062740837237,0
719,-0.4440564629478943,0
720,-0.1187799494304635,0
721,3.1820304723965345,0
722,6.334155320026934,0
723,-0.9158913595921158,0
724,-2.2898424747159325,0
725,0.9467546504352806,0
726,-1.237708733238294,0
727,-0.39004717991243637,0
728,-0.37811840995096085,0
729,-0.5066002991679545,0
730,-0.5694476919056192,0
731,-0.48919257280653466,0
732,-0.5106326606689093,0
733,-0.5179908811207612,0
734,-0.4764752569635042,0
735,-0.4634084452683248,0
736,-0.5666696217457291,0
737,-0.41966301211101287,0
738,-0.50750223458577,0
739,-0.4651218768901743,0
740,-0.08425454087633105,0
741,3.136156626365824,0
742,6.348317147732091,0
743,-0.9428687537250009,0
744,-2.3005386555167022,0
745,1.1238882921475646,0
746,-1.184941382840095,0
747,-0.2762884677125263,0
748,-0.3444349837756615,0
749,-0.5571601149323206,0
750,-0.4926169578389029,0
751,-0.39632214603479105,0
752,-0.4077018085340437,0
753,-0.3675012062806905,0
754,-0.50851521393127,0
755,-0.5266998481715559,0
756,-0.5344060334411761,0
757,-0.5343472949476792,0
758,-0.4938816240209219,0
759,-0.46834272997714055,0
760,-0.11420091997486753,0
761,3.090397195907664,0
762,6.3053843303962305,0
763,-0.9013385046313903,0
764,-2.3139289322369194,0
765,1.050010755115852,0
766,-1.29319816307606,0
767,-0.413520060694551,0
768,-0.47012610613514644,0
769,-0.6241515267198116,0
770,-0.4241276553373173,0
771,-0.4312294372372532,0
772,-0.48451561909685126,0
773,-0.40884210767310575,0
774,-0.4175397893638565,0
775,-0.44480568158323386,0
776,-0.545510112085771,0
777,-0.44848857973584993,0
778,-0.45927337237595517,0
779,-0.5459068157176573,0
780,-0.2798307846381808,0
781,3.1181310578202512,0
782,6.261137683168814,0
783,-0.8647239926137392,0
784,-2.2993796362018983,0
785,1.0616909125430667,0
786,-1.284048730920083,0
787,-0.31082028648561655,0
788,-0.4010614614515208,0
789,-0.44955688469469557,0
790,-0.4873835959853481,0
791,-0.5623684673843355,0
792,-0.476492689660149,0
793,-0.426704444352359,0
794,-0.4798886333013847,0
795,-0.5503954583953548,0
796,-0.4677467251334175,0
797,-0.42668781150394136,0
798,-0.4663522049362047,0
799,-0.48788948008098076,0
800,-0.20295183143375184,0
801,3.1123875429019585,0
802,6.418873637721604,0
803,-0.9171570187969884,0
804,-2.3334278656130665,0
805,1.0937232867628621,0
806,-1.142688381709646,0
807,-0.2999273469398045,0
808,-0.44042665986273094,0
809,-0.504278758869303,0
810,-0.3683407291844484,0
811,-0.5659455494405806,0
812,-0.3827978573018527,0
813,-0.4639793864563485,0
814,-0.42673363531146646,0
815,-0.4076338291254252,0
816,-0.30731900996479883,0
817,-0.5279316355441358,0
818,-0.5092515340575848,0
819,-0.44237635604621456,0
820,-0.20312533731911303,0
821,3.2131481282648546,0
822,6.397113511010607,0
823,-0.793368661169762,0
824,-2.192083932774791,0
825,1.1692128563623179,0
826,-1.1077662249016194,0
827,-0.3895141631881532,0
828,-0.47504198986516877,0
829,-0.46044008696383787,0
830,-0.3375934541475708,0
831,-0.5920097441466401,0
832,-0.4942488607407877,0
833,-0.5796473556454836,0
834,-0.5826088329985954,0
835,-0.5809564133057838,0
836,-0.3793380112089663,0
837,-0.4750498104305514,0
838,-0.448775874586994,0
839,-0.3872104879352426,0
840,-0.1264725794734773,0
841,3.2978507998250235,0
842,6.341209840442461,0
843,-0.8646423260679962,0
844,-2.200282298389558,0
845,1.2120665968997613,0
846,-1.13622324077509,0
847,-0.20920545129686155,0
848,-0.3806407839909885,0
849,-0.3062686667861497,0
850,-0.29527247034178367,0
851,-0.37004704673731265,0
852,-0.323371878519392,0
853,-0.32788252808582474,0
854,-0.18337487114246198,0
855,-0.3581893165189092,0
856,-0.270273877627191,0
857,-0.2830076737859736,0
858,-0.4283833787933755,0
859,-0.32036628160287184,0
860,-0.09142741384764042,0
861,3.208461367818077,0
862,6.498191704283516,0
863,-0.8504606205731777,0
864,-2.133901412460695,0
865,1.1973399064219115,0
866,-1.1816757401940734,0
867,-0.27265955656264074,0
868,-0.3030410465884045,0
869,-0.40513736716675786,0
870,-0.37989130627640655,0
871,-0.3513390199240178,0
872,-0.3086592468266942,0
873,-0.3527595007381867,0
874,-0.3332452215477803,0
875,-0.3526877719495483,0
876,-0.29694938601294174,0
877,-0.3957730310726145,0
878,-0.32579943952454127,0
879,-0.3129647858792531,0
880,-0.07968183460085038,0
881,3.2090365947112445,0
882,6.545256795593709,0
883,-0.8144043149803506,0
884,-2.24583954152354,0
885,1.1027057411481191,0
886,-1.110443851170195,0
887,-0.16522157808188187,0
888,-0.20110388129265094,0
889,-0.2876836407210618,0
890,-0.222927991816464,0
891,-0.25065344677067486,0
892,-0.2837301686222239,0
893,-0.24510506440020668,0
894,-0.28854355288731404,0
895,-0.29211916146584876,0
896,-0.26395111321059916,0
897,-0.34577564157702934,0
898,-0.3158147617818438,0
899,-0.2362739669138423,0
900,-0.016034244143561582,0
901,3.326699251345412,0
902,6.505712759526149,0
903,-0.843977416050607,0
904,-2.062547717323005,0
905,1.252189704412029,0
906,-1.0055076784639168,0
907,-0.1711038982701029,0
908,-0.22652169990890633,0
909,-0.41522851312660025,0
910,-0.3393272904200183,0
911,-0.265252932275944,0
912,-0.3600414701943148,0
913,-0.312296298897006,0
914,-0.2812710849222526,0
915,-0.25877514624468045,0
916,-0.17162734373497193,0
917,-0.3024366194465622,0
918,-0.2819956158135202,0
919,-0.27067093689730676,0
920,0.030169010047999767,0
921,3.3810406743556567,0
922,6.517725053247717,0
923,-0.740892074274706,0
924,-2.08896870503993,0
925,1.246707473716801,0
926,-1.0330013535135643,0
927,-0.07133367115367706,0
928,-0.29297390905656834,0
929,-0.278711668933743,0
930,-0.1744503900030165,0
931,-0.2582871595089474,0
932,-0.23613565752516463,0
933,-0.3081794117139238,0
934,-0.3162002086045442,0
935,-0.24089793969885545,0
936,-0.27073732421220376,0
937,-0.24391970721083508,0
938,-0.23909052737719264,0
939,-0.17451402312328068,0
940,0.027954380183420557,0
941,3.534542187495856,0
942,6.666303147062379,0
943,-0.6871957950807717,0
944,-2.0410410649806074,0
945,1.415862302858926,0
946,-0.9048410052858582,0
947,-0.09670388944483527,0
948,-0.2214961102973218,0
949,-0.1625210921142528,0
950,-0.11008457220608804,0
951,-0.08333596012986214,0
952,-0.19003966068128111,0
953,-0.2512821235888759,0
954,-0.26657830584528663,0
955,-0.27096422576978657,0
956,-0.24494865411612118,0
957,-0.15145645352392612,0
958,-0.2037686140049072,0
959,-0.1582759518529364,0
960,0.14297238853575145,0
961,3.5629941247628487,0
962,6.521160307474958,0
963,-0.6232155141134387,0
964,-1.9929936404128634,0
965,1.5413880997213978,0
966,-0.770839985534852,0
967,0.061865603894333446,0
968,-0.0631191797303321,0
969,-0.09748146915238487,0
970,-0.1322205443318345,0
971,-0.07811226980457825,0
972,-0.052719729551879674,0
973,-0.08799819395401395,0
974,-0.10417299336876629,0
975,-0.1488426221074662,0
976,-0.1827998941569106,0
977,-0.04644615784220736,0
978,-0.11780036542788919,0
979,-0.13911563709437677,0
980,0.2607161001437269,0
981,3.546373132274386,0
982,6.707140152873902,0
983,-0.5015072814882227,0
984,-1.8402612941434993,0
985,1.5289177414035804,0
986,-0.8200195071973597,0
987,0.07023598240561561,0
988,-0.07646933933645421,0
989,0.041876537695343025,0
990,-0.15164776128587326,0
991,0.044173324540978914,0
992,-0.03755515108773513,0
993,0.031602305596513156,0
994,-0.0010491452244424868,0
995,0.06567346910768886,0
996,0.03487848753731922,0
997,-0.021069956794428343,0
998,-0.1120501055466993,0
999,0.0047327897189257916,0
1000,0.15953831853056546,0
1001,3.677864489291453,0
1002,6.792101890972243,0
1003,-0.6374175404842272,0
1004,-1.8270355132097869,0
1005,1.4079429408918096,0
1006,-0.7589159385098123,0
1007,0.08960710475902678,0
1008,0.0393227075998694,0
1009,-0.12838118173506158,0
1010,-0.07080417006430292,0
1011,0.019424497775986677,0
1012,-0.06436275317658328,0
1013,0.0027675892047571912,0
1014,0.00973314842842414,0
1015,-0.014567426255527236,0
1016,0.13764123002335163,0
1017,0.06636217232319153,0
1018,-0.0548034544659671,0
1019,0.10066357968328618,0
1020,0.44361298128518556,0
1021,3.6856964441092193,0
1022,6.921775587743315,0
1023,-0.48499019794788456,0
1024,-1.8489736521706417,0
1025,1.5410872959693032,0
1026,-0.7279215094599972,0
1027,0.11052918027550535,0
1028,0.12200406554681482,0
1029,-0.05352613261582154,0
1030,0.029565300192965688,0
1031,0.009198399984792015,0
1032,0.011389094691939945,0
1033,0.10116261708759966,0
1034,0.06769753874094767,0
1035,-0.05698990081338824,0
1036,0.0005631084958659938,0
1037,-0.00842589330075185,0
1038,0.04791245964856272,0
1039,0.12381078494516556,0
1040,0.39866619895354094,0
1041,3.7843459015759593,0
1042,6.848972257412039,0
1043,-0.4591404135772783,0
1044,-1.7501414592509323,0
1045,1.6266415160334757,0
1046,-0.7224417926005567,0
1047,0.19094942905189216,0
1048,0.0239310749408915,0
1049,0.040251837262115245,0
1050,0.09343888500543332,0
1051,0.1467369772726386,0
1052,0.07184989316729118,0
1053,0.13809063493809148,0
1054,0.08288089717887695,0
1055,0.13508356676865604,0
1056,0.14371311707997894,0
1057,0.13376349118862732,0
1058,0.18432633188958442,0
1059,0.07439014550076675,0
1060,0.5747204813106612,0
1061,3.8921977223453204,0
1062,7.033410913413464,0
1063,-0.3815483772041268,0
1064,-1.5805149108480985,0
1065,1.6722632592000886,0
1066,-0.5333335664164537,0
1067,0.4010018594681029,0
1068,0.12304933555221698,0
1069,0.21080473137393552,0
1070,0.20356443878838926,0
1071,0.10079042531346583,0
1072,0.14952166499248803,0
1073,0.1769307959913619,0
1074,0.2734378535605033,0
1075,0.1930830107973893,0
1076,0.2604951019950871,0
1077,0.13520705470925334,0
1078,0.10931239996011291,0
1079,0.23502035837414553,0
1080,0.6123944615579973,0
1081,3.8838183002580733,0
1082,6.893568272700392,0
1083,-0.38317915601230207,0
1084,-1.5175424290764457,0
1085,1.850778843820565,0
1086,-0.5213202565233466,0
1087,0.37476328915411294,0
1088,0.305260538241584,0
1089,0.15958125268107629,0
1090,0.240411907823606,0
1091,0.34170744201753017,0
1092,0.3628634903033687,0
1093,0.2679854908252636,0
1094,0.2232719486709018,0
1095,0.27217735054736475,0
1096,0.22954431990376084,0
1097,0.32901588126557685,0
1098,0.24777195893007592,0
1099,0.24769188847839504,0
1100,0.6081265289837197,0
1101,3.9229459566619616,0
1102,7.0426317330473625,0
1103,-0.3106323190847363,0
1104,-1.5810613504807054,0
1105,1.75256195162324,0
1106,-0.4458082302839579,0
1107,0.40937955446461904,0
1108,0.18989036341542734,0
1109,0.2551185404081239,0
1110,0.3354829027100896,0
1111,0.16246483356312913,0
1112,0.3102060418288705,0
1113,0.2770812486857147,0
1114,0.24072270310729346,0
1115,0.29271223658425916,0
1116,0.3499616304042732,0
1117,0.3178047167002194,0
1118,0.32690642028488814,0
1119,0.27940620774592684,0
1120,0.6869853701811842,0
1121,3.9886559356750015,0
1122,7.106991946700073,0
1123,-0.3122084605251423,0
1124,-1.4613517783042633,0
1125,1.8011921863093778,0
1126,-0.47155568211007737,0
1127,0.47036670333390906,0
1128,0.37996273503862077,0
1129,0.311883487475845,0
1130,0.3609608218079738,0
1131,0.3663953969590637,0
1132,0.3313886611949606,0
1133,0.3848101196484665,0
1134,0.326455205033288,0
1135,0.3847694929740686,0
1136,0.4077559216864214,0
1137,0.2863922303100379,0
1138,0.3861973534830093,0
1139,0.3704003212081085,0
1140,0.7185264642982649,0
1141,4.005667933966575,0
1142,7.129417037465563,0
1143,-0.19772948260462142,0
1144,-1.4229718719577014,0
1145,1.9215784768064448,0
1146,-0.4080251638030198,0
1147,0.5650847856693966,0
1148,0.5291266100760096,0
1149,0.33606200031394373,0
1150,0.4502343349973975,0
1151,0.40629467765955435,0
1152,0.4186302201867726,0
1153,0.30330129981863235,0
1154,0.3089414753146439,0
1155,0.35058266094799995,0
1156,0.4306892255864874,0
1157,0.38143051935089917,0
1158,0.4816371493687998,0
1159,0.369011923695583,0
1160,0.663862620500166,0
1161,4.1171531316376475,0
1162,7.218833609610539,0
1163,-0.15269529057679554,0
1164,-1.2651910295424322,0
1165,1.9238895863443097,0
1166,-0.3158055063950907,0
1167,0.5723348534388784,0
1168,0.5008552523644733,0
1169,0.36985661952402227,0
1170,0.4330855538185621,0
1171,0.37005695237720065,0
1172,0.5464977425190202,0
1173,0.35057998301126075,0
1174,0.43866292512814364,0
1175,0.3763071072878275,0
1176,0.30933727393563515,0
1177,0.46478582970461657,0
1178,0.285641973536088,0
1179,0.32106635222270674,0
1180,0.6554729577184306,0
1181,4.056019044743416,0
1182,7.140645128661255,0
1183,-0.13150647336122057,0
1184,-1.328255010909005,0
1185,1.8656713492816952,0
1186,-0.34497553315629503,0
1187,0.6624986453867386,0
1188,0.43305412573588414,0
1189,0.3949981779922048,0
1190,0.43748189270342036,0
1191,0.42244356399103705,0
1192,0.5308779415117207,0
1193,0.43855203609226995,0
1194,0.5509182842194019,0
1195,0.4433517674116986,0
1196,0.5329655253515054,0
1197,0.49169794375737264,0
1198,0.5211376461315246,0
1199,0.49830942084824614,0
1200,0.7030008375768864,0
1201,4.221255182180317,0
1202,7.32674001858907,0
1203,-0.21438433298417287,0
1204,-1.2775998644663369,0
1205,2.007792768176685,0
1206,-0.20056495776564998,0
1207,0.688757981274442,0
1208,0.5446725660932609,0
1209,0.3188814235287505,0
1210,0.4818597713997974,0
1211,0.4308130634872509,0
1212,0.3934929838978141,0
1213,0.51009733276379,0
1214,0.37726785709653576,0
1215,0.4117456786413739,0
1216,0.4694246452585244,0
1217,0.5056423462252807,0
1218,0.540631045386948,0
1219,0.35441641050507483,0
1220,0.8171387774993415,0
1221,4.229077662588666,0
1222,7.331775905930966,0
1223,0.001751874715584023,0
1224,-1.266881195202901,0
1225,2.0957924988157486,0
1226,-0.23691636134531036,0
1227,0.6343614804257411,0
1228,0.46367290732848265,0
1229,0.5258011058347678,0
1230,0.44203877389906154,0
1231,0.4957031250753409,0
1232,0.42334230175602344,0
1233,0.4557738318445782,0
1234,0.42681343962267193,0
1235,0.46536831760789416,0
1236,0.45752530340472114,0
1237,0.45761439946196775,0
1238,0.5452562174383422,0
1239,0.5379465901685438,0
1240,0.8672327700747327,0
1241,4.201369165006245,0
1242,7.190233975276981,0
1243,-0.06655097373650365,0
1244,-1.2734792559245574,0
1245,1.9652673771823488,0
1246,-0.2678073120155762,0
1247,0.6706992965632277,0
1248,0.5532863105113507,0
1249,0.430862558287787,0
1250,0.4371085195724138,0
1251,0.37886297480011194,0
1252,0.5102531290289825,0
1253,0.5396230695207777,0
1254,0.5933691602918625,0
1255,0.5046183513472803,0
1256,0.47161533876095235,0
1257,0.4880224572799808,0
1258,0.4727057510454639,0
1259,0.47830831297647375,0
1260,0.8680470048037185,0
1261,4.217790708905576,0
1262,7.326705823350076,0
1263,-0.09102898744814847,0
1264,-1.297937894008899,0
1265,1.9752369340102403,0
1266,-0.3823819389383296,0
1267,0.6341379514118908,0
1268,0.7009503997243042,0
1269,0.5489676226243575,0
1270,0.5998268786053472,0
1271,0.5405342026087803,0
1272,0.5490895235105037,0
1273,0.5696166750726773,0
1274,0.5107403917250738,0
1275,0.4621352290412648,0
1276,0.4786406978991025,0
1277,0.4515038603783327,0
1278,0.4932724174145688,0
1279,0.4293824295117396,0
1280,0.8403851044703317,0
1281,4.151036811298919,0
1282,7.275302276309924,0
1283,-0.07924377589735287,0
1284,-1.410020345002244,0
1285,1.92053786253187,0
1286,-0.3345804362678395,0
1287,0.5901281328105726,0
1288,0.44055669782276113,0
1289,0.41609172522911747,0
1290,0.5436395477670508,0
1291,0.3929165032152392,0
1292,0.4804276360921042,0
1293,0.6070105933738823,0
1294,0.4995855447260829,0
1295,0.46986976826299653,0
1296,0.40399170764392095,0
1297,0.4358680792909341,0
1298,0.5139637779877952,0
1299,0.4183992225274514,0
1300,0.8132254296818662,0
1301,4.133969115854299,0
1302,7.303089125634268,0
1303,-0.13415418150560732,0
1304,-1.3508207922021571,0
1305,2.040306569926097,0
1306,-0.380124588978957,0
1307,0.6460716176814286,0
1308,0.4009869560874859,0
1309,0.3803579945636191,0
1310,0.5946588855587644,0
1311,0.4929355583244674,0
1312,0.47618214707156303,0
1313,0.5462414247520374,0
1314,0.4241135013232522,0
1315,0.5160181849307928,0
1316,0.4002818823138207,0
1317,0.5001241652157189,0
1318,0.4294942566863004,0
1319,0.26450620742497094,0
1320,0.7550110621517792,0
1321,4.171015418660932,0
1322,7.191231666457503,0
1323,-0.2439998174241616,0
1324,-1.4438656102047123,0
1325,1.91831126012934,0
1326,-0.37556716461599,0
1327,0.6020424523644099,0
1328,0.4119007940338169,0
1329,0.3941244876972475,0
1330,0.37517636871431,0
1331,0.3463427054411476,0
1332,0.4314737978157488,0
1333,0.42981935178165714,0
1334,0.4519980653359065,0
1335,0.4169434460128581,0
1336,0.417976677750034,0
1337,0.3690395333043494,0
1338,0.36431205464461813,0
1339,0.5508132708720712,0
1340,0.6408767100207892,0
1341,4.080501252069778,0
1342,7.125387201347267,0
1343,-0.30575651446726587,0
1344,-1.3237755058834257,0
1345,1.8579093798860302,0
1346,-0.33617305628544664,0
1347,0.594004853721135,0
1348,0.3625220713022889,0
1349,0.3912809572411543,0
1350,0.36108090027436046,0
1351,0.44826180145645245,0
1352,0.47027163575272407,0
1353,0.43528496417840823,0
1354,0.30096630158954457,0
1355,0.3994724267991016,0
1356,0.44058414789168904,0
1357,0.3848790060292451,0
1358,0.44047880828143554,0
1359,0.4009454004283853,0
1360,0.6999366016015607,0
1361,4.065125371724757,0
1362,7.073351013674875,0
1363,-0.13634769398452384,0
1364,-1.391354384005275,0
1365,1.9550347334631666,0
1366,-0.3588775839729644,0
1367,0.5544326244052851,0
1368,0.34757016511962036,0
1369,0.2626059639140893,0
1370,0.3909944420991155,0
1371,0.4358764308976641,0
1372,0.3015753567032892,0
1373,0.4353692569805331,0
1374,0.3295824088132001,0
1375,0.3825851840881095,0
1376,0.3520770997499092,0
1377,0.3612053904030397,0
1378,0.32712094706987654,0
1379,0.36114857344447543,0
1380,0.6819316206037784,0
1381,4.04358893709752,0
1382,7.06155662493598,0
1383,-0.2993081668311868,0
1384,-1.5229843346795586,0
1385,1.8726970118254396,0
1386,-0.4446982435934472,0
1387,0.5432234071730254,0
1388,0.2690995015858724,0
1389,0.2343198355989149,0
1390,0.3287673631795983,0
1391,0.3371793633403837,0
1392,0.46760064606811347,0
1393,0.29373899158576455,0
1394,0.31006957247229305,0
1395,0.4121518142590798,0
1396,0.3647286525858945,0
1397,0.3567697384507375,0
1398,0.3310643298234425,0
1399,0.2832548418203859,0
1400,0.7687937575216741,0
1401,4.03501601120143,0
1402,7.071363084585188,0
1403,-0.28064598911609107,0
1404,-1.4224101706751604,0
1405,1.8757712618685598,0
1406,-0.44873292883087845,0
1407,0.526536342377666,0
1408,0.25487598258708677,0
1409,0.31648846522568275,0
1410,0.33412695930963576,0
1411,0.279443880413482,0
1412,0.31586434427938503,0
1413,0.23180686657441724,0
1414,0.30797089196516375,0
1415,0.24265930503525499,0
1416,0.2656862845763472,0
1417,0.19010215000079617,0
1418,0.24438513306492549,0
1419,0.22008994586266742,0
1420,0.7178828380594283,0
1421,4.010051726642537,0
1422,7.107824164303392,0
1423,-0.34868715451468757,0
1424,-1.5132207692502262,0
1425,1.8484018009340866,0
1426,-0.4287877444609961,0
1427,0.4278307649350125,0
1428,0.3280233812430519,0
1429,0.15873144731198044,0
1430,0.23086395301057142,0
1431,0.18723957440413286,0
1432,0.16926701206227335,0
1433,0.19504507270282465,0
1434,0.14180914594816252,0
1435,0.15187301570334835,0
1436,0.11847853789202478,0
1437,0.13643933091032887,0
1438,0.2517802090305678,0
1439,0.19919617720173338,0
1440,0.5305914084767912,0
1441,3.8382095298948995,0
1442,6.927573230682961,0
1443,-0.4600279822107238,0
1444,-1.5624881371896544,0
1445,1.7674567511498382,0
1446,-0.575100876693731,0
1447,0.3155318706097806,0
1448,0.15573261161598392,0
1449,0.11326780330254084,0
1450,0.11000277832321206,0
1451,0.10001997018576567,0
1452,0.07644940600319688,0
1453,0.03800126320823844,0
1454,0.11613460436556619,0
1455,0.04772349923592073,0
1456,0.10279422838956176,0
1457,0.12371911515622974,0
1458,0.028918974347977917,0
1459,0.12618769120832546,0
1460,0.464272846100761,0
1461,3.896775288505754,0
1462,6.860208558036778,0
1463,-0.6303350396129871,0
1464,-1.5894012940562887,0
1465,1.5321244551871471,0
1466,-0.6749919619830689,0
1467,0.33509836137497084,0
1468,0.11456472043752561,0
1469,0.03957801881259223,0
1470,0.2065657165588524,0
1471,0.11390418647356004,0
1472,0.0497499418279273,0
1473,0.08369893407122445,0
1474,-0.03307622918299456,0
1475,0.06576381749724484,0
1476,0.06159030946657559,0
1477,-0.061160363210407895,0
1478,-0.03263502779098945,0
1479,-0.0030475835666508994,0
1480,0.346412464850078,0
1481,3.8010160140688676,0
1482,6.836431565487855,0
1483,-0.5897012555425336,0
1484,-1.7292983260986106,0
1485,1.641778756795469,0
1486,-0.6353351388472317,0
1487,0.17455910596390203,0
1488,0.0742624486545587,0
1489,0.04356059491619111,0
1490,0.0990176226219192,0
1491,0.04748139005264693,0
1492,0.053487818256593385,0
1493,-0.0779351126101867,0
1494,0.021135470434334197,0
1495,-0.006522921708108349,0
1496,-0.05178612624071542,0
1497,0.00470181395419303,0
1498,0.014241568897240361,0
1499,-0.06116292663166263,0
1500,0.2773657737396918,0
1501,3.785328305233313,0
1502,6.818784568043703,0
1503,-0.6466378397777736,0
1504,-1.8321972971110572,0
1505,1.4417943616604303,0
1506,-0.8175502531535267,0
1507,0.11847536239178183,0
1508,0.06421953148453423,0
1509,-0.13598079602370478,0
1510,-0.10565560678963103,0
1511,-0.16335767218000427,0
1512,-0.022359624550171493,0
1513,-0.0645487886293749,0
1514,-0.105536458321359,0
1515,-0.14974893530832906,0
1516,-0.1458306773784001,0
1517,-0.22816751288525444,0
1518,-0.12507466038809695,0
1519,-0.24375242424155324,0
1520,0.19985758400813863,0
1521,3.6873978391098294,0
1522,6.614116146325327,0
1523,-0.8800539709235127,0
1524,-1.7988680615838102,0
1525,1.3833387539906372,0
1526,-0.9027347038484954,0
1527,-0.025336772690971926,0
1528,-0.04303888417840407,0
1529,-0.17881631472524703,0
1530,-0.17136008869320637,0
1531,-0.023027282598416833,0
1532,-0.1688950380482853,0
1533,-0.09318137183070604,0
1534,-0.001348197730300503,0
1535,-0.04248362511215008,0
1536,-0.09376127832087171,0
1537,-0.12412633837897724,0
1538,-0.16030678999223086,0
1539,-0.18236252910254264,0
1540,0.1563066561058232,0
1541,3.6506236704285118,0
1542,6.597385218509478,0
1543,-0.9278529891766615,0
1544,-1.9886638109594443,0
1545,1.3187996908388249,0
1546,-0.9903628162646354,0
1547,0.017905698664386863,0
1548,-0.08531193635654051,0
1549,-0.30472161124250297,0
1550,-0.22724529504713994,0
1551,-0.2522679178605931,0
1552,-0.15514655018877496,0
1553,-0.17874130340307404,0
1554,-0.2589201035565215,0
1555,-0.23127331918161076,0
1556,-0.23752777221267035,0
1557,-0.16566976658499014,0
1558,-0.2540682230962707,0
1559,-0.24710128947031812,0
1560,0.06987129956021398,0
1561,3.467620945319879,0
1562,6.460361035911207,0
1563,-0.9817079972107468,0
1564,-1.9925893631907494,0
1565,1.2234493760902585,0
1566,-0.9796698621347366,0
1567,-0.10233908274135402,0
1568,-0.2804042313799414,0
1569,-0.29462764483194004,0
1570,-0.18032808520432175,0
1571,-0.4018512988951276,0
1572,-0.21298322234659023,0
1573,-0.3372218972779683,0
1574,-0.248195190430632,0
1575,-0.3531031687045706,0
1576,-0.34819875449265036,0
1577,-0.3104994295668535,0
1578,-0.30796765006776106,0
1579,-0.3003555513183556,0
1580,-0.027092833129734428,0
1581,3.402111379523644,0
1582,6.433214656113748,0
1583,-0.9231851830165501,0
1584,-1.9579302435165684,0
1585,1.244610214256371,0
1586,-1.150515475548914,0
1587,-0.037903225882356575,0
1588,-0.40419311431613786,0
1589,-0.41811522571503845,0
1590,-0.31326679592531026,0
1591,-0.37951827204256394,0
1592,-0.2996297204398402,0
1593,-0.3334479772375213,0
1594,-0.26166286645437903,0
1595,-0.35745718079279404,0
1596,-0.35863084618584473,0
1597,-0.3721773925304952,0
1598,-0.3988082078716688,0
1599,-0.32783939104405624,0
1600,-0.045684133398746496,0
1601,3.4543647095877144,0
1602,6.260026153245323,0
1603,-1.0775674286194161,0
1604,-2.0904983537336594,0
1605,1.007551579656621,0
1606,-1.1068013050300953,0
1607,-0.2205653928347239,0
1608,-0.3806464245165394,0
1609,-0.5194897524738451,0
1610,-0.45010808327972895,0
1611,-0.5329562124251407,0
1612,-0.4885837027329174,0
1613,-0.5063450195697276,0
1614,-0.5873442962087622,0
1615,-0.5295140920558922,0
1616,-0.4487400076576628,0
1617,-0.4742642936809011,0
1618,-0.4714351605455965,0
1619,-0.5246180971810694,0
1620,-0.13403214831141466,0
1621,3.413806620111012,0
1622,6.367994609920208,0
1623,-1.1792054671003338,0
1624,-2.057707764169751,0
1625,1.0489098733884765,0
1626,-1.2449402683166158,0
1627,-0.3397210393643276,0
1628,-0.4502136528346964,0
1629,-0.5024199549908988,0
1630,-0.5286326622892206,0
1631,-0.427915752068653,0
1632,-0.4005449191054921,0
1633,-0.35379088374792905,0
1634,-0.46531787682218445,0
1635,-0.5712936816050036,0
1636,-0.40552434197846216,0
1637,-0.5286281759664739,0
1638,-0.38250417294776795,0
1639,-0.5114842047283803,0
1640,-0.15042706409450818,0
1641,3.3062068865718786,0
1642,6.263131110971288,0
1643,-1.194318898213958,0
1644,-2.3057912400313727,0
1645,0.9910005223668259,0
1646,-1.2229281080546681,0
1647,-0.3431569822890147,0
1648,-0.45681728826569595,0
1649,-0.4708669350552405,0
1650,-0.43618986428470496,0
1651,-0.5014218867641006,0
1652,-0.4227199831825326,0
1653,-0.46746729187949587,0
1654,-0.5211214972548583,0
1655,-0.49937172178293415,0
1656,-0.5004361714925423,0
1657,-0.40123103652698133,0
1658,-0.47642020827372844,0
1659,-0.4562397238236759,0
1660,-0.19113457592548178,0
1661,3.3328429045672245,0
1662,6.216086973442167,0
1663,-1.2159867178515644,0
1664,-2.1972096372916794,0
1665,1.0382060433801792,0
1666,-1.307738515057267,0
1667,-0.29649604950861547,0
1668,-0.5437382185347648,0
1669,-0.5706748974457572,0
1670,-0.4456933509469701,0
1671,-0.45662043552962817,0
1672,-0.42236954233126506,0
1673,-0.4751834832417199,0
1674,-0.5161604102261094,0
1675,-0.5290638661734558,0
1676,-0.46460393994959903,0
1677,-0.452499099942426,0
1678,-0.5992629414369144,0
1679,-0.5821543645841897,0
1680,-0.13162210198226537,0
1681,3.25965040863841,0
1682,6.1895505001448425,0
1683,-1.2158842152882363,0
1684,-2.1389450877635015,0
1685,1.040152241955813,0
1686,-1.2206344217489389,0
1687,-0.40824458399667946,0
1688,-0.5243505132172921,0
1689,-0.5571128144345309,0
1690,-0.4912781796280952,0
1691,-0.5270720940152542,0
1692,-0.4762970174111407,0
1693,-0.6028915307964403,0
1694,-0.6365270738199628,0
1695,-0.398035637228019,0
1696,-0.567508438386993,0
1697,-0.521467025265061,0
1698,-0.5207410972302968,0
1699,-0.6228243238219979,0
1700,-0.3222637010088402,0
1701,3.1998296077652513,0
1702,6.198242216499468,0
1703,-1.2123930920848534,0
1704,-2.275019507757745,0
1705,1.0019903649193576,0
1706,-1.3581974598150346,0
1707,-0.322769945699835,0
1708,-0.4818839921560209,0
1709,-0.7055658951376413,0
1710,-0.47382706693625076,0
1711,-0.46644346489256416,0
1712,-0.5062236032450712,0
1713,-0.5671892478600724,0
1714,-0.49267883666948076,0
1715,-0.5320300799768758,0
1716,-0.5743792686340043,0
1717,-0.5087072384948506,0
1718,-0.5180722219878126,0
1719,-0.38070690158202075,0
1720,-0.25278250827376286,0
1721,3.3553573128645313,0
1722,6.2206814162733535,0
1723,-1.1907435015396022,0
1724,-2.1818463545095823,0
1725,1.0927645794047862,0
1726,-1.1841919131155603,0
1727,-0.42571169721717084,0
1728,-0.5548561261144561,0
1729,-0.485835394110426,0
1730,-0.5780713958489971,0
1731,-0.5220840433781208,0
1732,-0.5442667315116665,0
1733,-0.5644958737562851,0
1734,-0.5317949371443016,0
1735,-0.636484144762385,0
1736,-0.47267343895686226,0
1737,-0.48926551154255904,0
1738,-0.4452870183046882,0
1739,-0.5866527411645908,0
1740,-0.30568400168715615,0
1741,3.3337765383969726,0
1742,6.137445925941927,0
1743,-1.3001886559720637,0
1744,-2.305862168080246,0
1745,0.95582429754132,0
1746,-1.2462913641816113,0
1747,-0.34461159740667185,0
1748,-0.6007924663531286,0
1749,-0.5466199140214132,0
1750,-0.6455693167396537,0
1751,-0.5063216062766361,0
1752,-0.5212301508499536,0
1753,-0.584647352455859,0
1754,-0.4157321734061971,0
1755,-0.5727464477421267,0
1756,-0.5510875357111681,0
1757,-0.4845374248887929,0
1758,-0.45090604069824075,0
1759,-0.4441911662330595,0
1760,-0.0246637410639714,0
1761,3.3989502353290515,0
1762,6.293616690947473,0
1763,-1.1932991975995577,0
1764,-2.1133006759886626,0
1765,1.0504053282719263,0
1766,-1.2312341443026833,0
1767,-0.3734561922139556,0
1768,-0.4110431218858336,0
1769,-0.4256969370826833,0
1770,-0.4804888711429015,0
1771,-0.5541092220175763,0
1772,-0.5021725587983159,0
1773,-0.5561363646555534,0
1774,-0.38853932981106915,0
1775,-0.46792924590534085,0
1776,-0.43940679563885143,0
1777,-0.5660375878621815,0
1778,-0.44001660654863795,0
1779,-0.4827291632812327,0
1780,-0.12000991916958953,0
1781,3.3652984854639034,0
1782,6.286450430728351,0
1783,-1.1603546668235754,0
1784,-2.1860682485243603,0
1785,1.0373242607666864,0
1786,-1.3029534270801775,0
1787,-0.26041594235864485,0
1788,-0.5022356354132876,0
1789,-0.5055023568579189,0
1790,-0.4441467388748852,0
1791,-0.4759556072673125,0
1792,-0.4724542275693762,0
1793,-0.6246103499833002,0
1794,-0.5158588799968511,0
1795,-0.42728349630791107,0
1796,-0.522491764726301,0
1797,-0.6156925750743107,0
1798,-0.45618138436900285,0
1799,-0.5222609676080507,0
1800,-0.08444258895267726,0
1801,3.401697228293636,0
1802,6.446196571358765,0
1803,-1.264802407527588,0
1804,-2.2372910833498265,0
1805,0.8969547366200616,0
1806,-1.3018537113252824,0
1807,-0.23103962997977173,0
1808,-0.5028507747004185,0
1809,-0.5927850963919106,0
1810,-0.5467237393388044,0
1811,-0.49553998341126815,0
1812,-0.4118091193674818,0
1813,-0.5923665405341297,0
1814,-0.49528767120392997,0
1815,-0.575718440242168,0
1816,-0.5081312600904621,0
1817,-0.5915584562497197,0
1818,-0.5212385705429459,0
1819,-0.49620435703010124,0
1820,-0.14571454468682832,0
1821,3.4442964870366644,0
1822,6.235456227255042,0
1823,-1.2596357762287642,0
1824,-2.0743961617882,0
1825,1.0004734027665954,0
1826,-1.1598626027846266,0
1827,-0.1945200652117665,0
1828,-0.3776079695043569,0
1829,-0.5083141589239201,0
1830,-0.38444157752800745,0
1831,-0.4303704863241715,0
1832,-0.43497679330183503,0
1833,-0.4166602447879289,0
1834,-0.4826736515234237,0
1835,-0.4023091915818672,0
1836,-0.3895348250740708,0
1837,-0.4152345165307906,0
1838,-0.365450230151381,0
1839,-0.44247765270475387,0
1840,-0.13553861893816588,0
1841,3.4018433414911,0
1842,6.1903387988275576,0
1843,-1.1362659664757055,0
1844,-2.143941240909235,0
1845,1.0195458894958462,0
1846,-1.1310051366021443,0
1847,-0.1465104791909913,0
1848,-0.3980625898775029,0
1849,-0.4701040804971733,0
1850,-0.43659709654021106,0
1851,-0.4850343324540187,0
1852,-0.40190956935406785,0
1853,-0.40352307350600153,0
1854,-0.3537332954885052,0
1855,-0.42168836801665044,0
1856,-0.4232020652224654,0
1857,-0.37140491291830846,0
1858,-0.33748550256925397,0
1859,-0.32409730125471903,0
1860,-0.03558158869989636,0
1861,3.4705369391234844,0
1862,6.417702304646381,0
1863,-1.185290943906581,0
1864,-1.981455058900257,0
1865,1.0753798831584271,0
1866,-1.1786212411927535,0
1867,-0.1816642716747438,0
1868,-0.5349207952197904,0
1869,-0.3869872167207066,0
1870,-0.38724126559375593,0
1871,-0.28576104418834947,0
1872,-0.4260272446212107,0
1873,-0.4062306895753095,0
1874,-0.5030252021932069,0
1875,-0.45308754283117975,0
1876,-0.3991299690366314,0
1877,-0.4598788472033638,0
1878,-0.3321048596539232,0
1879,-0.3306709928363397,0
1880,-0.1120248157208833,0
1881,3.5423877333487157,0
1882,6.238737483954704,0
1883,-1.1133201232827987,0
1884,-2.024979058350069,0
1885,1.1865402086684682,0
1886,-1.1040451032678549,0
1887,-0.20568523161297111,0
1888,-0.4040748472085056,0
1889,-0.44584845026109526,0
1890,-0.23396823571074762,0
1891,-0.4089119519400594,0
1892,-0.28005589890799126,0
1893,-0.25006901766756245,0
1894,-0.3621827083895531,0
1895,-0.3825650891753193,0
1896,-0.36976869354716263,0
1897,-0.2789253022867391,0
1898,-0.3720890697749716,0
1899,-0.39215692003324093,0
1900,-0.07655411547489799,0
1901,3.489307894608201,0
1902,6.36955862863402,0
1903,-1.120755953680972,0
1904,-2.0621770548435543,0
1905,1.174149192257741,0
1906,-1.2085986110863696,0
1907,-0.08765472446175149,0
1908,-0.2995158653132618,0
1909,-0.37019324165783396,0
1910,-0.21866765207342057,0
1911,-0.2695344925072948,0
1912,-0.3712725582013996,0
1913,-0.23782006268860936,0
1914,-0.26126600964961477,0
1915,-0.1831351753107896,0
1916,-0.2793956131598525,0
1917,-0.2429630544652181,0
1918,-0.21949308717436536,0
1919,-0.21601233113996457,0
1920,0.11083270300866696,0
1921,3.5423927676126628,0
1922,6.569466732115731,0
1923,-0.9816983643452237,0
1924,-1.8324590093426145,0
1925,1.2050404301243343,0
1926,-1.078804058038326,0
1927,-0.07587918654990533,0
1928,-0.37269398247096974,0
1929,-0.3736809818073238,0
1930,-0.24624559352344313,0
1931,-0.25391522379926473,0
1932,-0.38554736888646335,0
1933,-0.19375446891060955,0
1934,-0.1652108305768731,0
1935,-0.26473967057745207,0
1936,-0.2070090551016779,0
1937,-0.2305947965766952,0
1938,-0.30552509185362114,0
1939,-0.23663785205307197,0
1940,0.15059902780515427,0
1941,3.6300197877575053,0
1942,6.493300394036017,0
1943,-1.1386674380644353,0
1944,-1.8330595210039116,0
1945,1.323961952869116,0
1946,-0.9111824047249429,0
1947,-0.056592022346964393,0
1948,-0.22094069507351907,0
1949,-0.23000986455790073,0
1950,-0.18132462088459023,0
1951,-0.24559514046325553,0
1952,-0.0774694971785269,0
1953,-0.13659998268680276,0
1954,-0.18601882259987754,0
1955,-0.23752206921234956,0
1956,-0.21149079368413576,0
1957,-0.19748210442801195,0
1958,-0.17656782983992297,0
1959,-0.03746981701628631,0
1960,0.3073600295593255,0
1961,3.6238465002074904,0
1962,6.703086797329194,0
1963,-0.9421665822194989,0
1964,-1.8989327306895092,0
1965,1.3087812371734062,0
1966,-0.9644797148670803,0
1967,0.049227231452270315,0
1968,-0.15137586520841154,0
1969,-0.130080678055057,0
1970,-0.057075594610228736,0
1971,-0.21506863387712025,0
1972,-0.08059627374853592,0
1973,-0.10362460719187573,0
1974,-0.07635425880081086,0
1975,-0.10457660938495977,0
1976,-0.043549544702862715,0
1977,-0.11315722304722715,0
1978,-0.08258340415185714,0
1979,-0.10311644149891705,0
1980,0.25280969878565374,0
1981,3.7471993969999775,0
1982,6.688923966886386,0
1983,-0.9441487072944973,0
1984,-1.7576062134920212,0
1985,1.5269222337330834,0
1986,-0.8318427585027867,0
1987,0.10497715150307961,0
1988,-0.0687721750119352,0
1989,-0.043598955512794274,0
1990,-0.024600956630273837,0
1991,-0.06342495738800907,0
1992,-0.09157359298179382,0
1993,-0.03063027370210018,0
1994,-0.07276075782044689,0
1995,-0.01848251414003021,0
1996,-0.05999982417156376,0
1997,0.015473376182493713,0
1998,-0.010036012370492278,0
1999,-0.05762942343765175,0
2000,0.2013920271846444,0
2001,3.906666810601808,0
2002,6.727435510532486,0
2003,-0.6757685907391991,0
2004,-1.7156762324902695,0
2005,1.4971428306988022,0
2006,-0.7988444280167546,0
2007,0.2005349451822898,0
2008,-0.02669519856914765,0
2009,-0.0009776649427538156,0
2010,0.13881318854124194,0
2011,0.10356237867170673,0
2012,0.014838958125332726,0
2013,0.0472460033870368,0
2014,0.040479420241318925,0
2015,0.0020156382313244086,0
2016,0.04061864621698955,0
2017,0.13713873395478293,0
2018,0.08841956720150322,0
2019,0.12147403560387615,0
2020,0.4022521866966899,0
2021,4.045036846552845,0
2022,6.853885733555769,0
2023,-0.7485448884451796,0
2024,-1.6336710249753397,0
2025,1.6057933450511144,0
2026,-0.6900287943844198,0
2027,0.22363556886904748,0
2028,0.08317686746263406,0
2029,0.05587247586709612,0
2030,0.05008834538636414,0
2031,-0.006705223016045717,0
2032,0.036187046336042875,0
2033,-0.073881902159985,0
2034,0.038367545859205696,0
2035,0.011133129991888625,0
2036,0.0781288372454683,0
2037,0.04416202210885544,0
2038,0.11689865154737672,0
2039,0.06934362950584724,0
2040,0.44305382524278936,0
2041,4.056152572621549,0
2042,6.753490836266371,0
2043,-0.7964528537594798,0
2044,-1.540832605836351,0
2045,1.6594009733575341,0
2046,-0.5474119760656726,0
2047,0.3437084196555041,0
2048,0.1132775305569263,0
2049,0.017891506711897334,0
2050,0.0735656217938225,0
2051,0.16675399455567852,0
2052,0.16176621233939795,0
2053,0.1609289745577908,0
2054,0.13672624202199876,0
2055,0.1245720090586622,0
2056,0.15328567743988974,0
2057,0.1362635987593976,0
2058,0.16705165980932138,0
2059,0.10585093988925987,0
2060,0.44282554499067417,0
2061,4.077949323379035,0
2062,6.910034965010717,0
2063,-0.6688259920159858,0
2064,-1.4530764551577984,0
2065,1.6658669225375005,0
2066,-0.5802251553664749,0
2067,0.3592496159723726,0
2068,0.23386220394705695,0
2069,0.13103578788102724,0
2070,0.17140540375250227,0
2071,0.25619438983649373,0
2072,0.11898531584652294,0
2073,0.2208789092697402,0
2074,0.18218495951078717,0
2075,0.1494218155250338,0
2076,0.11846010088368104,0
2077,0.14289178015753218,0
2078,0.24181398503180648,0
2079,0.07824394145792056,0
2080,0.558558111375421,0
2081,4.063822833643767,0
2082,6.877440321987297,0
2083,-0.7638675965011439,0
2084,-1.5269046066011496,0
2085,1.6393792143268195,0
2086,-0.6536374910305156,0
2087,0.3159766800719093,0
2088,0.15024916646795689,0
2089,0.16909028853673286,0
2090,0.10814405896671443,0
2091,0.2239894705945144,0
2092,0.17365885551948135,0
2093,0.2455873532786863,0
2094,0.19244431345382393,0
2095,0.3025065833589289,0
2096,0.26979206834472524,0
2097,0.195668317997038,0
2098,0.22604300712662226,0
2099,0.22900918107544563,0
2100,0.517272803725833,0
2101,4.099460373704235,0
2102,6.972886108067072,0
2103,-0.4813063314537498,0
2104,-1.415515131189523,0
2105,1.733674939001485,0
2106,-0.4549397515851843,0
2107,0.5440820733342205,0
2108,0.2242984356449961,0
2109,0.17814168248961706,0
2110,0.12903584307479724,0
2111,0.29518038512002365,0
2112,0.19115418522615685,0
2113,0.26898394589153807,0
2114,0.2634695495676872,0
2115,0.21721308160433533,0
2116,0.2476404586363215,0
2117,0.35323036955937626,0
2118,0.37199766089409336,0
2119,0.3726698236895445,0
2120,0.5925957770179204,0
2121,4.167062306821814,0
2122,7.052655807077366,0
2123,-0.4403205524238286,0
2124,-1.2656399688235775,0
2125,1.834088990738199,0
2126,-0.4643914765997755,0
2127,0.6159213883394874,0
2128,0.4181900769694317,0
2129,0.25387329497217587,0
2130,0.3432130667103092,0
2131,0.3564863421679077,0
2132,0.3002904330064053,0
2133,0.37409618974177367,0
2134,0.37141239300679013,0
2135,0.31558597808948347,0
2136,0.3476434160131317,0
2137,0.29862210952252977,0
2138,0.3116002475536243,0
2139,0.35421495129992253,0
2140,0.6986297786220824,0
2141,4.115182769015827,0
2142,7.075101262598426,0
2143,-0.403557848355661,0
2144,-1.3588340621802002,0
2145,1.8727014995864146,0
2146,-0.4515697123906218,0
2147,0.6150254012172272,0
2148,0.46116935025237965,0
2149,0.42083847727052937,0
2150,0.35270236274128774,0
2151,0.4235316368701239,0
2152,0.48648110948816925,0
2153,0.39326414552457123,0
2154,0.4657123945263427,0
2155,0.3736735518028765,0
2156,0.36585888127990285,0
2157,0.42102521106459373,0
2158,0.33480779615810696,0
2159,0.49959613120422003,0
2160,0.814835821300417,0
2161,4.324783621187863,0
2162,7.171632884486512,0
2163,-0.36319183424107754,0
2164,-1.1349500452455519,0
2165,1.8475620305518592,0
2166,-0.3086108100867526,0
2167,0.7111173847590794,0
2168,0.36978368535304207,0
2169,0.34714992041599085,0
2170,0.345478918489503,0
2171,0.423001261365804,0
2172,0.41026372458985816,0
2173,0.42242670405163374,0
2174,0.36648119891303826,0
2175,0.4959664043349812,0
2176,0.574511410720168,0
2177,0.48563539740499184,0
2178,0.5383129422175632,0
2179,0.41707114231675557,0
2180,0.8409185404250992,0
2181,4.427359080543111,0
2182,7.16614197473012,0
2183,-0.32092468267787366,0
2184,-1.2112487854156384,0
2185,1.9218355447522126,0
2186,-0.29855825858825247,0
2187,0.5937719640698346,0
2188,0.49070477818308256,0
2189,0.3947311969497731,0
2190,0.3749973053569577,0
2191,0.3536910684023829,0
2192,0.4109966242081246,0
2193,0.39925465942501703,0
2194,0.4159471075899613,0
2195,0.4132904587369573,0
2196,0.38353222842434426,0
2197,0.5199828074606887,0
2198,0.6184554952352056,0
2199,0.46341344069476087,0
2200,0.8501588346522844,0
2201,4.406218948825292,0
2202,7.18033685895738,0
2203,-0.35554181781988026,0
2204,-1.1355533292023332,0
2205,1.9875116474710537,0
2206,-0.21726589969407173,0
2207,0.7734244038478928,0
2208,0.5517647384223201,0
2209,0.45894228554014926,0
2210,0.4942846207344015,0
2211,0.5509270469444426,0
2212,0.4908322401355201,0
2213,0.510603863676742,0
2214,0.6223302731713339,0
2215,0.4486791427918399,0
2216,0.6069071720195098,0
2217,0.5760588195347238,0
2218,0.5746859311157309,0
2219,0.6024659932687847,0
2220,0.9342066260700259,0
2221,4.446049876332666,0
2222,7.259659950856852,0
2223,-0.29803670481191247,0
2224,-0.8923420659199786,0
2225,2.080480508108567,0
2226,-0.13978661852770302,0
2227,0.8528046578789344,0
2228,0.655475266410751,0
2229,0.5439166584469802,0
2230,0.618009257195071,0
2231,0.548881101809155,0
2232,0.6678675193356587,0
2233,0.6347829364779954,0
2234,0.5625503268942582,0
2235,0.5685429224273186,0
2236,0.49002524863287494,0
2237,0.6150156308005736,0
2238,0.6160947785083114,0
2239,0.48407718773902814,0
2240,0.8352734390073362,0
2241,4.421856038877359,0
2242,7.321741632087937,0
2243,-0.24522497083942185,0
2244,-1.108083919321869,0
2245,2.029302288413522,0
2246,-0.3572529968363927,0
2247,0.6121801057242839,0
2248,0.6510851073400982,0
2249,0.5535597768672165,0
2250,0.5824906469261463,0
2251,0.5232091336696272,0
2252,0.6922886225406618,0
2253,0.6151328296455537,0
2254,0.5369706387667793,0
2255,0.5907443662756937,0
2256,0.6184234180689178,0
2257,0.5731687295772354,0
2258,0.5417492983211755,0
2259,0.6332489319453996,0
2260,0.9307693712408707,0
2261,4.381703041042141,0
2262,7.208820978305097,0
2263,-0.2848243945533506,0
2264,-1.0453598066196992,0
2265,2.1101281737506326,0
2266,-0.21732450225102556,0
2267,0.8508489395115896,0
2268,0.5908364985482861,0
2269,0.495186340566885,0
2270,0.5510754416733934,0
2271,0.49119613261338724,0
2272,0.577238929173208,0
2273,0.5502988309485608,0
2274,0.49613467660674754,0
2275,0.5664301088786028,0
2276,0.5206862663798414,0
2277,0.5609037421782463,0
2278,0.5494843467763585,0
2279,0.5254526211484094,0
2280,1.034271516740938,0
2281,4.448748014846579,0
2282,7.259030961021027,0
2283,-0.28480993470304855,0
2284,-1.0425293877708774,0
2285,1.9876846447721115,0
2286,-0.17147030965782095,0
2287,0.8698329058248015,0
2288,0.6010322115041956,0
2289,0.5587606485616491,0
2290,0.7240547438862004,0
2291,0.54583892091768,0
2292,0.570746435140452,0
2293,0.7147204685873707,0
2294,0.5952928651632998,0
2295,0.5862471182633511,0
2296,0.5929187421289873,0
2297,0.6132658959254389,0
2298,0.624218020417445,0
2299,0.631588360518874,0
2300,0.9670269917114801,0
2301,4.53721211106137,0
2302,7.206937319149571,0
2303,-0.2838376482156758,0
2304,-1.0003240334654053,0
2305,2.03949210535615,0
2306,-0.22513437928635965,0
2307,0.8504822964592595,0
2308,0.582953374769625,0
2309,0.5019124319853667,0
2310,0.511330832045129,0
2311,0.6488005955691981,0
2312,0.7189721074535397,0
2313,0.6648310243109584,0
2314,0.6439662955560661,0
2315,0.6469039257714784,0
2316,0.519466636924331,0
2317,0.5659640257198724,0
2318,0.5162198036914339,0
2319,0.4776102489666046,0
2320,0.8833215961075744,0
2321,4.439530802575442,0
2322,7.149329860473263,0
2323,-0.3239657546654871,0
2324,-0.9503503112755537,0
2325,1.9773571078258196,0
2326,-0.3361680205459769,0
2327,0.800540123625952,0
2328,0.5618560519890926,0
2329,0.5038432890846788,0
2330,0.5332558033645619,0
2331,0.4629742423024736,0
2332,0.5185215557740334,0
2333,0.5210826048361656,0
2334,0.5613194742852214,0
2335,0.43733307705669344,0
2336,0.41471807900084,0
2337,0.4681379702068702,0
2338,0.5052819247187509,0
2339,0.588300745286029,0
2340,0.7820167849185797,0
2341,4.4625453303665354,0
2342,7.152664561937387,0
2343,-0.2987513906000526,0
2344,-1.0260694056463064,0
2345,1.9758475230091492,0
2346,-0.2646769268770278,0
2347,0.6730879815697759,0
2348,0.5962242139754297,0
2349,0.3849312634669966,0
2350,0.5786441632141996,0
2351,0.47683093944575683,0
2352,0.43065030882653565,0
2353,0.5168472703962226,0
2354,0.4016211591144776,0
2355,0.48555456486753173,0
2356,0.5588233324157241,0
2357,0.471860567984761,0
2358,0.4644478562635606,0
2359,0.4774625846048329,0
2360,0.884316843962198,0
2361,4.2719473292500725,0
2362,7.106955433956474,0
2363,-0.46377432877835634,0
2364,-1.111675845973638,0
2365,1.8743578301164234,0
2366,-0.3252178737577911,0
2367,0.6881071010630716,0
2368,0.3252419330798349,0
2369,0.4249426588536742,0
2370,0.3983334901263871,0
2371,0.36548918893699406,0
2372,0.350494219149906,0
2373,0.36200347487377293,0
2374,0.4321696359985915,0
2375,0.39908039999787437,0
2376,0.5206771441227985,0
2377,0.39685752582088596,0
2378,0.4730557898744147,0
2379,0.4225074294219902,0
2380,0.8650425559279163,0
2381,4.239547437574417,0
2382,7.07363845542746,0
2383,-0.4978772828184896,0
2384,-1.2060235569992779,0
2385,1.827818799510896,0
2386,-0.45978095560107635,0
2387,0.6915429790365935,0
2388,0.4203044408476697,0
2389,0.3584936958335266,0
2390,0.39567735953985617,0
2391,0.3631606101538595,0
2392,0.35157908914388564,0
2393,0.4256180361453571,0
2394,0.3473878143467116,0
2395,0.31698277376372247,0
2396,0.2787570405445918,0
2397,0.31657734981372554,0
2398,0.306765259458928,0
2399,0.2579961795585423,0
2400,0.7469727448966852,0
2401,4.19521838925433,0
2402,6.876868568079288,0
2403,-0.6985756354199307,0
2404,-1.3410936683326713,0
2405,1.6566559314944609,0
2406,-0.5171105272462491,0
2407,0.4783543642348964,0
2408,0.26487725290854836,0
2409,0.23393264751047863,0
2410,0.22146267032946343,0
2411,0.22636100960696137,0
2412,0.13156716254142659,0
2413,0.30792108371561494,0
2414,0.30355052001446486,0
2415,0.21961620392099176,0
2416,0.20124515076298788,0
2417,0.2719371161965635,0
2418,0.2094368258189562,0
2419,0.21799636303194955,0
2420,0.6110735450251027,0
2421,4.140365292384245,0
2422,6.959977090286756,0
2423,-0.617037108837953,0
2424,-1.3704786855328397,0
2425,1.6831199557819063,0
2426,-0.6428678095759373,0
2427,0.3787889745714783,0
2428,0.11638848672897714,0
2429,0.12577220234976935,0
2430,0.237717661608251,0
2431,0.09663328563224849,0
2432,0.2114349608280936,0
2433,0.11011863201190797,0
2434,0.09634961329370226,0
2435,0.2029773695883271,0
2436,0.15817487128137925,0
2437,0.1220165524057319,0
2438,0.05535885888762424,0
2439,0.14900197890607605,0
2440,0.5040023067252261,0
2441,4.262546389830695,0
2442,6.789577677713247,0
2443,-0.7344337897501049,0
2444,-1.350319973862069,0
2445,1.6329777915907489,0
2446,-0.587091552339756,0
2447,0.43382997685052316,0
2448,0.1320590321434571,0
2449,0.06591330026535702,0
2450,0.1601317538081234,0
2451,0.16740598728159972,0
2452,0.04834927560463967,0
2453,0.04930662136705989,0
2454,0.12587488404957334,0
2455,0.04476081865242691,0
2456,0.11019361795860536,0
2457,0.10524570474353159,0
2458,0.05347528875324664,0
2459,-0.011207175695001258,0
2460,0.42302750246066606,0
2461,4.042040115818123,0
2462,6.793089762245992,0
2463,-0.8611126235793578,0
2464,-1.5155881794694284,0
2465,1.5305525573267105,0
2466,-0.6611464220305319,0
2467,0.336328324083372,0
2468,0.15781385419166172,0
2469,-0.043769638132976976,0
2470,0.07133325773338431,0
2471,0.01222239374264357,0
2472,-0.00279153802805715,0
2473,0.00966345897823949,0
2474,-0.025091343574638984,0
2475,-0.023647961208325005,0
2476,-0.07088321589401203,0
2477,0.025274256693772708,0
2478,-0.0025689332406468313,0
2479,0.0007741526091040798,0
2480,0.3818641658946612,0
2481,3.9153314714044978,0
2482,6.723944696863528,0
2483,-0.8791008885131328,0
2484,-1.4747026056413692,0
2485,1.4948281723950683,0
2486,-0.7716059558944752,0
2487,0.22042997741898018,0
2488,-0.007000562286940744,0
2489,-0.03499801513359374,0
2490,0.03767552803503826,0
2491,0.06151704100893693,0
2492,-0.0394475046151728,0
2493,0.02831979435916843,0
2494,-0.03071256071107115,0
2495,0.004528816216131663,0
2496,-0.04580118578350356,0
2497,0.08944110658226184,0
2498,-0.01877488662458256,0
2499,-0.05681897402458632,0
2500,0.3676399299618876,0
2501,3.874705827826607,0
2502,6.655273354677794,0
2503,-0.9052339243308073,0
2504,-1.6010754603037045,0
2505,1.3938782302843677,0
2506,-0.8874756414695709,0
2507,0.05205315407070242,0
2508,-0.158987645417817,0
2509,-0.1934328866625672,0
2510,-0.04561124758948877,0
2511,-0.10844293053766538,0
2512,-0.0875156803462543,0
2513,-0.07712655590280676,0
2514,-0.1394899140590638,0
2515,-0.11533164475547475,0
2516,0.016618992122675737,0
2517,-0.10701558504932329,0
2518,-0.10680886316571085,0
2519,-0.0918399848548155,0
2520,0.2940303948736197,0
2521,3.838861088283414,0
2522,6.713749838018016,0
2523,-1.0262493423261554,0
2524,-1.7834057986335088,0
2525,1.3948915453321946,0
2526,-0.9524824828063583,0
2527,0.031877771368441915,0
2528,-0.15328000190797397,0
2529,-0.2451199862753003,0
2530,-0.14190284142850149,0
2531,-0.24417349825647594,0
2532,-0.15408685184107299,0
2533,-0.09759154885294978,0
2534,-0.1689293211981582,0
2535,-0.23929142432794454,0
2536,-0.1566448424668554,0
2537,-0.17603841456578112,0
2538,-0.1146507509397584,0
2539,-0.20583309531498226,0
2540,0.20487115715801346,0
2541,3.7922988187384234,0
2542,6.514374965743763,0
2543,-1.0489892745692617,0
2544,-1.6392213679756622,0
2545,1.3140610330472675,0
2546,-0.917162346423963,0
2547,0.02328039025331491,0
2548,-0.18981535773246533,0
2549,-0.2099903205997512,0
2550,-0.04175462700620161,0
2551,-0.09932102990938663,0
2552,-0.0922545614987696,0
2553,-0.2487334351529476,0
2554,-0.1819566549380025,0
2555,-0.16804846695876063,0
2556,-0.13472234918542708,0
2557,-0.21126596770913536,0
2558,-0.31664202778749295,0
2559,-0.1973179440987742,0
2560,0.16598050027558597,0
2561,3.851368787077031,0
2562,6.486440963502531,0
2563,-1.1304706883240359,0
2564,-1.792019592054333,0
2565,1.2217269089092748,0
2566,-0.9930605409675857,0
2567,-0.017030495560311137,0
2568,-0.3239660345803714,0
2569,-0.27246025170027677,0
2570,-0.08660643187446156,0
2571,-0.0460572818841074,0
2572,-0.25742327065133336,0
2573,-0.18026227384145527,0
2574,-0.2016809554355979,0
2575,-0.26434405349317525,0
2576,-0.23075713812579468,0
2577,-0.1836013306596109,0
2578,-0.34905659584264737,0
2579,-0.2383779365502535,0
2580,0.13126468098215005,0
2581,3.697278438932758,0
2582,6.512480646024174,0
2583,-1.2286527760294796,0
2584,-1.8001268548518727,0
2585,1.2820806279253134,0
2586,-0.9612243143457643,0
2587,-0.03807847158612285,0
2588,-0.2440927569165173,0
2589,-0.2844527919392317,0
2590,-0.22837993566750878,0
2591,-0.3130446434495296,0
2592,-0.2610753334504802,0
2593,-0.1574478170664787,0
2594,-0.2944138014089076,0
2595,-0.21758794585838942,0
2596,-0.3077919826706791,0
2597,-0.2865294880846237,0
2598,-0.3196885683890153,0
2599,-0.228527614933026,0
2600,0.14769059198178514,0
2601,3.671984282908407,0
2602,6.366916700655794,0
2603,-1.2509227230164586,0
2604,-1.7764734719654278,0
2605,1.1740328450094883,0
2606,-1.0563862634452297,0
2607,-0.10923678076430529,0
2608,-0.2740511254255266,0
2609,-0.24754735787737708,0
2610,-0.2916907073486611,0
2611,-0.3145287216113522,0
2612,-0.2432708738138853,0
2613,-0.24325619527517842,0
2614,-0.3340122677770633,0
2615,-0.33116106374591825,0
2616,-0.23108661487912283,0
2617,-0.3006165796895259,0
2618,-0.2475371316154814,0
2619,-0.31990610157233634,0
2620,0.03873732877854663,0
2621,3.6612805687266228,0
2622,6.333293081165499,0
2623,-1.28431417660041,0
2624,-1.9344509339115235,0
2625,1.0835810348250652,0
2626,-1.1622448418070777,0
2627,-0.15687924425022584,0
2628,-0.36921056667205765,0
2629,-0.3506277762065413,0
2630,-0.31855780335947814,0
2631,-0.44781857215227033,0
2632,-0.3647870827881157,0
2633,-0.37547019494870193,0
2634,-0.3145000373562071,0
2635,-0.28006350005092556,0
2636,-0.36200378378662745,0
2637,-0.3611684688135991,0
2638,-0.2875875290977334,0
2639,-0.32566165009421644,0
2640,-0.021574501455008332,0
2641,3.687614578662892,0
2642,6.319904748863971,0
2643,-1.3906389201786202,0
2644,-1.8910748678567721,0
2645,1.057491662689349,0
2646,-1.0624491121742121,0
2647,-0.09730738562008984,0
2648,-0.4281466115971443,0
2649,-0.3086075388842577,0
2650,-0.4224023059331419,0
2651,-0.25205729277436656,0
2652,-0.29491162367596585,0
2653,-0.22711867506161762,0
2654,-0.2711061468289393,0
2655,-0.38967315644462985,0
2656,-0.247841504348226,0
2657,-0.4615609190445674,0
2658,-0.4452381616359455,0
2659,-0.4312690747231991,0
2660,-0.1705605587723137,0
2661,3.471322801094752,0
2662,6.216948340734295,0
2663,-1.4212282137773538,0
2664,-2.0267061980525876,0
2665,1.0971659148575632,0
2666,-1.1627529402749788,0
2667,-0.18389794333514173,0
2668,-0.47590108311363455,0
2669,-0.47358754671853304,0
2670,-0.3644380911691262,0
2671,-0.3214351467525788,0
2672,-0.30206421843960685,0
2673,-0.467219358544472,0
2674,-0.4294166364960985,0
2675,-0.4252356621649805,0
2676,-0.3932114362745825,0
2677,-0.5067339831033482,0
2678,-0.47786668354168976,0
2679,-0.39404426841583023,0
2680,-0.03722800625535899,0
2681,3.5504658262169735,0
2682,6.208119258371147,0
2683,-1.4252475764336205,0
2684,-1.985157571706977,0
2685,0.9799737752749582,0
2686,-1.2955158898702788,0
2687,-0.21556481272402875,0
2688,-0.46246880847691746,0
2689,-0.4931557843609594,0
2690,-0.49055692457095357,0
2691,-0.49579493431408883,0
2692,-0.44168796968127216,0
2693,-0.44959581310456886,0
2694,-0.39414394167263156,0
2695,-0.46615644222546176,0
2696,-0.412652813240059,0
2697,-0.487925570118327,0
2698,-0.40338272432100153,0
2699,-0.45245426539213685,0
2700,-0.08177637910670021,0
2701,3.4615429253167855,0
2702,6.27547483480395,0
2703,-1.3627525005529537,0
2704,-1.9524068070530949,0
2705,0.9322484923222779,0
2706,-1.1715335348514868,0
2707,-0.2958351218478533,0
2708,-0.5268094214199519,0
2709,-0.43663257827674923,0
2710,-0.38564536972840135,0
2711,-0.4253117881825208,0
2712,-0.45894140870132727,0
2713,-0.42910448424072,0
2714,-0.522893240785945,0
2715,-0.4715051072342364,0
2716,-0.4465571925136048,0
2717,-0.5205533674597516,0
2718,-0.46959326294682857,0
2719,-0.40284070526952204,0
2720,-0.07921541896984713,0
2721,3.5579743975355003,0
2722,6.184976898491287,0
2723,-1.4333501255786258,0
2724,-2.0054216316252953,0
2725,0.9781737369838145,0
2726,-1.216092684677708,0
2727,-0.2644880151254409,0
2728,-0.3917527000977707,0
2729,-0.4575221439834688,0
2730,-0.4855156694327635,0
2731,-0.3903164899224211,0
2732,-0.47584768519969917,0
2733,-0.5106787211869431,0
2734,-0.40560561913383664,0
2735,-0.5564433242025518,0
2736,-0.4475383613930747,0
2737,-0.3995699133259391,0
2738,-0.5764947470070715,0
2739,-0.45200611857985473,0
2740,-0.1087970100565323,0
2741,3.565537992755192,0
2742,6.22357866186475,0
2743,-1.5337961444506658,0
2744,-1.9554105384504146,0
2745,1.010991139253613,0
2746,-1.2753413583929594,0
2747,-0.32405477513801595,0
2748,-0.5632366040869494,0
2749,-0.6364070068585068,0
2750,-0.4762163478427997,0
2751,-0.5539974474840667,0
2752,-0.5269904764980784,0
2753,-0.43191919398291184,0
2754,-0.5599220572658186,0
2755,-0.5348945500206286,0
2756,-0.599304338551616,0
2757,-0.5060846234576625,0
2758,-0.4165465296585463,0
2759,-0.4635001626457823,0
2760,-0.05293262477494448,0
2761,3.466201316505985,0
2762,6.1747326908470885,0
2763,-1.4498629392012752,0
2764,-2.0104085220978454,0
2765,0.9653924714157307,0
2766,-1.1783007379951114,0
2767,-0.2558274301282383,0
2768,-0.489588668602518,0
2769,-0.5106598830685363,0
2770,-0.44466375469873026,0
2771,-0.4829964043421002,0
2772,-0.48380486637256076,0
2773,-0.40337930156390206,0
2774,-0.5080407508114287,0
2775,-0.41940155200500917,0
2776,-0.41126272427488636,0
2777,-0.4472094441728249,0
2778,-0.5143645529585795,0
2779,-0.5065375495453167,0
2780,-0.07001378407782538,0
2781,3.48002583106841,0
2782,6.13483316305319,0
2783,-1.5312418949001696,0
2784,-1.9629112858400755,0
2785,0.9864657458569241,0
2786,-1.2679253530631571,0
2787,-0.2601207003368026,0
2788,-0.5227106247389246,0
2789,-0.4653646878434445,0
2790,-0.47796179775867825,0
2791,-0.4765344750902744,0
2792,-0.4128294173408305,0
2793,-0.4454007016144937,0
2794,-0.5202504644411291,0
2795,-0.4599632598727564,0
2796,-0.4799928377690239,0
2797,-0.5246045461393248,0
2798,-0.47068077456882634,0
2799,-0.5239537378039091,0
2800,-0.0816017842832088,0
2801,3.6013524709314453,0
2802,6.196814361044254,0
2803,-1.4277896562309733,0
2804,-1.93757801768718,0
2805,1.1438898529454575,0
2806,-1.2066358990139028,0
2807,-0.1559994404638257,0
2808,-0.3864951854210955,0
2809,-0.476360014177951,0
2810,-0.3279505869969308,0
2811,-0.41430341847935664,0
2812,-0.31843039423298464,0
2813,-0.40460229535238745,0
2814,-0.38947319274914416,0
2815,-0.31033779876896583,0
2816,-0.4653184752574758,0
2817,-0.2979464995423594,0
2818,-0.4828784041109135,0
2819,-0.2909017134817363,0
2820,-0.13103921643295968,0
2821,3.6019165331295224,0
2822,6.208027389281616,0
2823,-1.435905046600725,0
2824,-1.99760436238352,0
2825,1.0429764155278063,0
2826,-1.2531183695378378,0
2827,-0.22213044103859092,0
2828,-0.42489837035000844,0
2829,-0.45442002272875637,0
2830,-0.4465338265885769,0
2831,-0.2592815531052656,0
2832,-0.4460348002242369,0
2833,-0.523793813223022,0
2834,-0.32737292845233046,0
2835,-0.4299657540632439,0
2836,-0.35147438576044737,0
2837,-0.45886495530793325,0
2838,-0.3413149725732354,0
2839,-0.4260991185368802,0
2840,0.024922591066838584,0
2841,3.7251188630942282,0
2842,6.280651600020595,0
2843,-1.401532428860294,0
2844,-1.962834811407527,0
2845,1.193246744951059,0
2846,-1.0753122176858625,0
2847,-0.15914861302699618,0
2848,-0.38426911432524136,0
2849,-0.29198279558784973,0
2850,-0.24807770621981812,0
2851,-0.25742764597692425,0
2852,-0.4237737427477827,0
2853,-0.30444511990152845,0
2854,-0.4076926581142278,0
2855,-0.37868782486004604,0
2856,-0.37947566549102757,0
2857,-0.35324516722417476,0
2858,-0.448197698618744,0
2859,-0.36317388316326443,0
2860,0.02516310584297693,0
2861,3.729416949606202,0
2862,6.230422617434897,0
2863,-1.3173442948960616,0
2864,-1.7892295135942302,0
2865,1.1647734569280126,0
2866,-1.111416327211968,0
2867,-0.04157761038379815,0
2868,-0.2826116432390359,0
2869,-0.3493525038053612,0
2870,-0.24760988772885517,0
2871,-0.31261386038200956,0
2872,-0.22489559938375608,0
2873,-0.23033378876626034,0
2874,-0.2639529505114616,0
2875,-0.28406625480894643,0
2876,-0.29125226572553664,0
2877,-0.2673209864008206,0
2878,-0.32177439446432526,0
2879,-0.31187975285916547,0
2880,0.077740144138022,0
2881,3.7266626976089197,0
2882,6.337383892098949,0
2883,-1.4044659416802863,0
2884,-1.7793684526297442,0
2885,1.1363231949971047,0
2886,-1.0720149555900225,0
2887,0.0239869962121827,0
2888,-0.24660011297143333,0
2889,-0.3489673575826434,0
2890,-0.2125027270988401,0
2891,-0.19779189099001349,0
2892,-0.20140084530985075,0
2893,-0.15010171802279965,0
2894,-0.21742494185818723,0
2895,-0.23973294585867969,0
2896,-0.286905148314309,0
2897,-0.32077594597936027,0
2898,-0.2933815167680862,0
2899,-0.2668852454309935,0
2900,0.09182297329699218,0
2901,3.817531973558414,0
2902,6.370715992430815,0
2903,-1.2496658169617847,0
2904,-1.7227225735384624,0
2905,1.1746158410932657,0
2906,-1.0457409675043077,0
2907,-0.1056105060252581,0
2908,-0.20534053409530045,0
2909,-0.31749024518757374,0
2910,-0.22411824991603602,0
2911,-0.11526695629650768,0
2912,-0.1843182534527153,0
2913,-0.2213815011604881,0
2914,-0.19712124045341187,0
2915,-0.1859205366906002,0
2916,-0.25566239537655805,0
2917,-0.24895626537709775,0
2918,-0.16310591760468143,0
2919,-0.2753111094318177,0
2920,0.0965541561904707,0
2921,3.7698913828148464,0
2922,6.404430341406233,0
2923,-1.1589009332965845,0
2924,-1.7386474873481306,0
2925,1.292321960236975,0
2926,-0.8487277851189978,0
2927,0.12576914884748924,0
2928,-0.16753242717039987,0
2929,-0.16399235052708255,0
2930,-0.13395754633592483,0
2931,-0.16034720680872114,0
2932,-0.29143532859813115,0
2933,-0.21971548554118236,0
2934,-0.18977821920709464,0
2935,-0.21947890196963354,0
2936,-0.12513748539862962,0
2937,-0.1700131059928428,0
2938,-0.1196618982375447,0
2939,-0.0736213699762801,0
2940,0.21233799667770353,0
2941,3.837636684699544,0
2942,6.506436270797878,0
2943,-1.182319323347678,0
2944,-1.5484171327201335,0
2945,1.3120877283963919,0
2946,-0.9217954660042903,0
2947,0.04087282341998083,0
2948,-0.08757270787685652,0
2949,-0.16370747831818716,0
2950,-0.18323800128301823,0
2951,-0.15044583556566601,0
2952,-0.1000616304250629,0
2953,-0.04585758260023691,0
2954,-0.13472233134209308,0
2955,-0.0016795934796063408,0
2956,-0.08140617126299599,0
2957,-0.09698968094861475,0
2958,-0.07135012965367757,0
2959,-0.027245460893778994,0
2960,0.336291229406827,0
2961,3.9563073086257425,0
2962,6.480143912528972,0
2963,-1.154921484106221,0
2964,-1.500898740543012,0
2965,1.4033260516899286,0
2966,-0.7773844320307003,0
2967,0.15436607759245857,0
2968,-0.06236344694841378,0
2969,-0.1522776672349876,0
2970,-0.00501691056914795,0
2971,0.04707794196759662,0
2972,0.029843550306046913,0
2973,-0.04536442481133267,0
2974,0.007455502988115058,0
2975,-0.04707311977045826,0
2976,0.027446368771561792,0
2977,-0.008110828428810703,0
2978,-0.16293264502206445,0
2979,0.02863041056157574,0
2980,0.3175993564182983,0
2981,3.9686025881209934,0
2982,6.553663683427438,0
2983,-0.9631017244700771,0
2984,-1.390316245641715,0
2985,1.521451659101424,0
2986,-0.681109813119957,0
2987,0.18808109964767222,0
2988,-0.016118185429276462,0
2989,0.0023697377662598197,0
2990,0.021877110424756,0
2991,0.04032348470550177,0
2992,0.097625924730559,0
2993,-0.05997093660657102,0
2994,-0.010761912539181046,0
2995,0.03404275922370841,0
2996,-0.021457360910528668,0
2997,0.04454555891596822,0
2998,0.1139929853145656,0
2999,-0.03172765069227623,0
3000,0.4614876946224328,0
3001,4.036766042139001,0
3002,6.659675407225095,0
3003,-1.0025096208505573,0
3004,-1.39771944411626,0
3005,1.5941671236877815,0
3006,-0.6929869295528333,0
3007,0.3480118151930134,0
3008,0.1035956022655105,0
3009,0.013068784823126765,0
3010,0.13454691219694292,0
3011,0.04171213474428946,0
3012,0.061648418638187846,0
3013,0.06729328180619792,0
3014,0.14969432477177638,0
3015,0.21039465253713516,0
3016,0.13577240570207535,0
3017,0.10199475086725053,0
3018,0.16971050098283735,0
3019,0.0325466432280846,0
3020,0.39670528618568357,0
3021,4.213459056405031,0
3022,6.6285699807830065,0
3023,-0.8634770115321403,0
3024,-1.3583921593957942,0
3025,1.5997615013329962,0
3026,-0.5956834610864512,0
3027,0.40701610845697855,0
3028,0.11035155649615301,0
3029,0.09317286844286918,0
3030,0.15478789023398096,0
3031,0.1732619019071733,0
3032,0.2141085091180604,0
3033,0.17565280968166613,0
3034,0.1402754340948339,0
3035,0.1767412946460212,0
3036,0.17488796340584956,0
3037,0.1008232459242399,0
3038,0.19867708229776948,0
3039,0.09512758618283662,0
3040,0.5595886571787143,0
3041,4.246260438982447,0
3042,6.806186047055421,0
3043,-0.9308470357352818,0
3044,-1.2426990805066231,0
3045,1.5961279103494423,0
3046,-0.6185784872455484,0
3047,0.4241305872288302,0
3048,0.05872154924205228,0
3049,0.18259227706962666,0
3050,0.26123758239070677,0
3051,0.11823288302833047,0
3052,0.17935035401906033,0
3053,0.22482674740761965,0
3054,0.17234178715299586,0
3055,0.2855547107333701,0
3056,0.2829637514674829,0
3057,0.12174612723216381,0
3058,0.02781376839337483,0
3059,0.153870414558482,0
3060,0.6264171573355691,0
3061,4.228658432981526,0
3062,6.756590138915388,0
3063,-0.9913245006446308,0
3064,-1.2945370002966146,0
3065,1.6272118789694665,0
3066,-0.41558209923307876,0
3067,0.49972308509820984,0
3068,0.30094534905541787,0
3069,0.22099105788027795,0
3070,0.21881316929774958,0
3071,0.2550610457224398,0
3072,0.32520270431673776,0
3073,0.34529235881994297,0
3074,0.3914303470522334,0
3075,0.2859470367401518,0
3076,0.2105880466970778,0
3077,0.35052612532849814,0
3078,0.36176453373696466,0
3079,0.3079377079234343,0
3080,0.6834096993862337,0
3081,4.35158101262134,0
3082,6.898377411959421,0
3083,-0.8142367517837241,0
3084,-1.1178698703458976,0
3085,1.7308761295536308,0
3086,-0.5107971966612608,0
3087,0.4951071607580629,0
3088,0.2819759819095724,0
3089,0.2555064506801875,0
3090,0.2844811604594212,0
3091,0.25022605804734066,0
3092,0.33298745388619544,0
3093,0.29870288623876473,0
3094,0.33873310172636345,0
3095,0.15483937851959104,0
3096,0.27063697764480493,0
3097,0.36821497068912273,0
3098,0.32469456715615347,0
3099,0.32607434544832464,0
3100,0.6807008098701409,0
3101,4.396669590727856,0
3102,6.972927520004652,0
3103,-0.6933615053750386,0
3104,-1.1303795769640912,0
3105,1.7416806781606549,0
3106,-0.44155119003106014,0
3107,0.5665973445680546,0
3108,0.26130471774843,0
3109,0.2262389552292703,0
3110,0.3164265921794016,0
3111,0.38261336359458553,0
3112,0.3546165854757696,0
3113,0.4349837042390605,0
3114,0.3130525940588159,0
3115,0.4650022288787536,0
3116,0.32513999598271415,0
3117,0.3159185585425739,0
3118,0.30544125063613237,0
3119,0.3420259103305673,0
3120,0.7746157443865055,0
3121,4.416111141694435,0
3122,6.9958949499178305,0
3123,-0.7243801026397322,0
3124,-1.0469717175642947,0
3125,1.8099229894419429,0
3126,-0.36573510335270815,0
3127,0.6133519958507674,0
3128,0.3691648687746538,0
3129,0.45387292858654227,0
3130,0.3671763816718883,0
3131,0.3136677360285248,0
3132,0.44037185457175576,0
3133,0.4695973456977319,0
3134,0.3928879152415594,0
3135,0.35979293235686693,0
3136,0.4994312405675329,0
3137,0.556866372469295,0
3138,0.46090603755246917,0
3139,0.45792458261867797,0
3140,0.8751692315469525,0
3141,4.4627885052081515,0
3142,7.077890632138762,0
3143,-0.7470169807765211,0
3144,-1.0383044194663715,0
3145,1.8994062188184389,0
3146,-0.38461728927857636,0
3147,0.6274083378224453,0
3148,0.4894289691042953,0
3149,0.5029079375262158,0
3150,0.4534907314364511,0
3151,0.40374866255982433,0
3152,0.4952371522452357,0
3153,0.4936860463658403,0
3154,0.4574572286235357,0
3155,0.4368189509812185,0
3156,0.35169422149953494,0
3157,0.44448520380780693,0
3158,0.5002927981170608,0
3159,0.41686238256956515,0
3160,0.8765903064718861,0
3161,4.513638065285978,0
3162,7.091659562854331,0
3163,-0.7061843127799226,0
3164,-0.9395107041396557,0
3165,1.9941054142152381,0
3166,-0.3036169710081051,0
3167,0.6388359127874496,0
3168,0.39871527159154474,0
3169,0.4831777585456807,0
3170,0.4417791645975948,0
3171,0.4525173943364743,0
3172,0.4886109458627584,0
3173,0.4282476930692129,0
3174,0.42427514727986737,0
3175,0.4576832792494981,0
3176,0.46419678992419,0
3177,0.5246802775681231,0
3178,0.503686623279639,0
3179,0.5754875692215676,0
3180,0.94188451624807,0
3181,4.553906382897687,0
3182,7.050525559032133,0
3183,-0.6389152624862656,0
3184,-0.8732866591171061,0
3185,2.0087678374979925,0
3186,-0.2799358950101892,0
3187,0.7064338668404824,0
3188,0.4411242466956469,0
3189,0.5204363716612376,0
3190,0.5875457465302123,0
3191,0.5511537055690838,0
3192,0.565325775124572,0
3193,0.5991433828164865,0
3194,0.5654506564832926,0
3195,0.4470619630836372,0
3196,0.4942954537382763,0
3197,0.6368280067026224,0
3198,0.5719276303754306,0
3199,0.5624137382267381,0
3200,1.0777621699492885,0
3201,4.655624786526609,0
3202,7.171620060566771,0
3203,-0.6094502698034487,0
3204,-0.9037765129748825,0
3205,1.949422873049472,0
3206,-0.23443120782784027,0
3207,0.93359059558013,0
3208,0.5550070701608099,0
3209,0.639400161903303,0
3210,0.7285828515037432,0
3211,0.5908081522374304,0
3212,0.6324534475053188,0
3213,0.5801525352687358,0
3214,0.6676132339802234,0
3215,0.4976604917024635,0
3216,0.5661848367446987,0
3217,0.5494976349205687,0
3218,0.6098383785938427,0
3219,0.5754190462327081,0
3220,0.9103688678548758,0
3221,4.664026575433088,0
3222,7.05482137820354,0
3223,-0.5666620211307357,0
3224,-0.8275497381721938,0
3225,1.9735657947059426,0
3226,-0.21738065222548625,0
3227,0.7566944663509113,0
3228,0.5179939208024127,0
3229,0.5031447395649704,0
3230,0.5258709618705903,0
3231,0.621795410832425,0
3232,0.560044964463968,0
3233,0.538913729222749,0
3234,0.5292480071109962,0
3235,0.6633713719028065,0
3236,0.53091400919556,0
3237,0.5440000746615212,0
3238,0.5235295975010222,0
3239,0.5018784066071607,0
3240,1.0241261790791925,0
3241,4.626770563076847,0
3242,7.112697090934385,0
3243,-0.6118358151959706,0
3244,-0.8969331009791691,0
3245,1.9619670132212352,0
3246,-0.16567273901594204,0
3247,0.8153965015651327,0
3248,0.5948161453288171,0
3249,0.5581325389019126,0
3250,0.6073676752652538,0
3251,0.6079681156147152,0
3252,0.5360201793586123,0
3253,0.5206308967187858,0
3254,0.5386498507578793,0
3255,0.5312896897030512,0
3256,0.5990782537140652,0
3257,0.47460402342293784,0
3258,0.5983967643850371,0
3259,0.5499183486984667,0
3260,0.9593262368389401,0
3261,4.559341105677237,0
3262,7.1103035271371615,0
3263,-0.6252927299169206,0
3264,-0.9710081568687527,0
3265,1.872213764201835,0
3266,-0.30800548987519205,0
3267,0.7753389581564493,0
3268,0.4987740318195806,0
3269,0.47432123009086297,0
3270,0.5512164031361843,0
3271,0.42961957135981427,0
3272,0.46918238593485495,0
3273,0.3849744077404503,0
3274,0.4765370370833648,0
3275,0.4880597290257264,0
3276,0.4944665047380866,0
3277,0.4370755963271087,0
3278,0.4972114406267334,0
3279,0.5120375131989495,0
3280,0.9108115758717663,0
3281,4.699847547679663,0
3282,7.135264132175272,0
3283,-0.5731766933771386,0
3284,-0.8081534648334189,0
3285,1.9318321769841895,0
3286,-0.20990085062181163,0
3287,0.7411669101909293,0
3288,0.5200091683596433,0
3289,0.4708311967493953,0
3290,0.48519627563957873,0
3291,0.5572326329626234,0
3292,0.5601004321364775,0
3293,0.43120701983868787,0
3294,0.4774654385283628,0
3295,0.42811162797914615,0
3296,0.41073325471995337,0
3297,0.49627881068329355,0
3298,0.40463202622696215,0
3299,0.46299605867369986,0
3300,0.9542787424684234,0
3301,4.689292392613586,0
3302,7.049042053090069,0
3303,-0.5275030912571133,0
3304,-0.9185798658272473,0
3305,1.8493988668555004,0
3306,-0.3169541295801854,0
3307,0.7364187115132307,0
3308,0.3299612618915395,0
3309,0.5493885221573421,0
3310,0.45340876112532863,0
3311,0.36689471496111525,0
3312,0.41991960832218583,0
3313,0.4061257639316375,0
3314,0.4711904241064097,0
3315,0.47585135417993096,0
3316,0.49675355992819054,0
3317,0.38999935592694907,0
3318,0.36168816778808033,0
3319,0.41441912506107004,0
3320,0.8068356155253933,0
3321,4.432673900964801,0
3322,6.9332917184317155,0
3323,-0.7961019389354205,0
3324,-0.9487568181073573,0
3325,1.8209045206271859,0
3326,-0.4438949116087703,0
3327,0.7225014305687559,0
3328,0.3849637249837381,0
3329,0.4046887874753442,0
3330,0.33595268771862175,0
3331,0.326865091771401,0
3332,0.364600029478352,0
3333,0.33487624720014836,0
3334,0.3720360894173923,0
3335,0.4143537741153309,0
3336,0.47447957489756065,0
3337,0.4136217050866541,0
3338,0.35154523329245074,0
3339,0.267835664947179,0
3340,0.7751985342879653,0
3341,4.358647570377101,0
3342,6.938208475813088,0
3343,-0.8888654057892418,0
3344,-1.0230921166475027,0
3345,1.7134775477869808,0
3346,-0.5082608549527103,0
3347,0.6196533373080468,0
3348,0.3180297034205858,0
3349,0.3764195886585735,0
3350,0.41870260339382864,0
3351,0.37933437432930084,0
3352,0.3332323303676415,0
3353,0.3958566038477573,0
3354,0.4227444195050113,0
3355,0.3305641306602899,0
3356,0.5040827669523429,0
3357,0.30757173412353417,0
3358,0.3876261714064763,0
3359,0.3416350215825527,0
3360,0.8411687727497086,0
3361,4.4917160114495065,0
3362,6.893431263133353,0
3363,-0.7177670367729039,0
3364,-0.9911027617197941,0
3365,1.8078448070643722,0
3366,-0.5270049677661173,0
3367,0.525803821585032,0
3368,0.3642409566734896,0
3369,0.26870129675063037,0
3370,0.36993466211116666,0
3371,0.30038300010898683,0
3372,0.298461779176691,0
3373,0.3785368007303308,0
3374,0.361983866820799,0
3375,0.37806217333675146,0
3376,0.327775290602237,0
3377,0.3382480151960033,0
3378,0.29280442669861206,0
3379,0.3194607308910734,0
3380,0.6618214233958757,0
3381,4.416565953497859,0
3382,6.951229075193921,0
3383,-0.7991546411922168,0
3384,-1.0563597836868814,0
3385,1.7090966910245602,0
3386,-0.39792523079765096,0
3387,0.5623008806814265,0
3388,0.38985986591018484,0
3389,0.43010444602684517,0
3390,0.355360093507608,0
3391,0.2404508265290294,0
3392,0.3020218340554299,0
3393,0.30129064337512335,0
3394,0.3724615706503938,0
3395,0.29129556395166417,0
3396,0.3798960191671639,0
3397,0.3393103986633545,0
3398,0.2706728045635204,0
3399,0.26432635358241036,0
3400,0.6817556530737838,0
3401,4.430206985821082,0
3402,6.861223472910211,0
3403,-0.8518408754598952,0
3404,-1.1156251520006943,0
3405,1.5822790475574213,0
3406,-0.5825075753446917,0
3407,0.45663412685892435,0
3408,0.18860909829055506,0
3409,0.22224342674553335,0
3410,0.2640062876344149,0
3411,0.2227114962252938,0
3412,0.2202048614455988,0
3413,0.21829831624763596,0
3414,0.3311573164569032,0
3415,0.2753340901297337,0
3416,0.3417227847791419,0
3417,0.2880317671264456,0
3418,0.17854421783445554,0
3419,0.18242811413832397,0
3420,0.7878086224383558,0
3421,4.4338940412342,0
3422,6.855311173658262,0
3423,-0.9967598667436588,0
3424,-1.1123365439167898,0
3425,1.712285976614126,0
3426,-0.7406240585614041,0
3427,0.4333294199409998,0
3428,0.21573051492526887,0
3429,0.1997023575186409,0
3430,0.2614824751178647,0
3431,0.2662086639848953,0
3432,0.23047744483124422,0
3433,0.090689332543141,0
3434,0.16577568737459294,0
3435,0.1606879466082579,0
3436,0.17335540068964328,0
3437,0.17468172031493295,0
3438,0.22566295104428816,0
3439,0.17304347980377852,0
3440,0.5328416736287042,0
3441,4.400774428817582,0
3442,6.746051071704599,0
3443,-0.9399234341217302,0
3444,-1.1805357353046662,0
3445,1.6154489292561802,0
3446,-0.5628014902805726,0
3447,0.4312400268247629,0
3448,0.22522774365194417,0
3449,0.12937644231538753,0
3450,0.11765181633551632,0
3451,0.2663287006900963,0
3452,0.15557118022581123,0
3453,0.08540924475673248,0
3454,0.19220576553169522,0
3455,0.12577950109236943,0
3456,0.13815438279216682,0
3457,0.15422250297797838,0
3458,0.130723459918475,0
3459,0.19347447266964501,0
3460,0.562652576869402,0
3461,4.188470368126896,0
3462,6.716528678842227,0
3463,-0.9776493240323342,0
3464,-1.2125396999718743,0
3465,1.5311132873371274,0
3466,-0.6889912331218154,0
3467,0.36860121086285724,0
3468,0.026836601401387276,0
3469,0.20935058394329586,0
3470,0.11583919928333378,0
3471,0.08282292937678705,0
3472,0.008997145236839546,0
3473,0.15728146452594946,0
3474,0.04534743211632825,0
3475,0.12632437511050815,0
3476,0.05885528992725436,0
3477,0.029481991312164245,0
3478,0.08569851319858002,0
3479,0.10766076357525291,0
3480,0.43995183139786553,0
3481,4.038211619453985,0
3482,6.685482564684869,0
3483,-1.2116254595251328,0
3484,-1.263627231912792,0
3485,1.387758003394547,0
3486,-0.679773924559106,0
3487,0.3443797519709704,0
3488,0.09893918562624912,0
3489,0.10755624866939295,0
3490,0.0898679972589525,0
3491,0.1351044189796426,0
3492,0.31515825222049176,0
3493,0.21492374929836544,0
3494,0.2246767973372635,0
3495,0.19002311031941263,0
3496,0.059503185795479946,0
3497,0.21615508394561583,0
3498,0.20279166583412714,0
3499,0.055100057537006836,0
3500,0.5470365676838396,0
3501,4.178718428212284,0
3502,6.54546898023527,0
3503,-1.1786772640224827,0
3504,-1.3589401448427834,0
3505,1.3721742836341568,0
3506,-0.8038477269064349,0
3507,0.13335328866012802,0
3508,-0.12367064528384633,0
3509,-0.11793814994952426,0
3510,-0.08600811460184538,0
3511,-0.14058788904553382,0
3512,-0.10568537457963191,0
3513,-0.10121713908903196,0
3514,-0.12051893621763526,0
3515,-0.11435534733465968,0
3516,-0.027378997519116877,0
3517,-0.16096495813440093,0
3518,-0.06949916156523525,0
3519,-0.11144625030196155,0
3520,0.28886735978986855,0
3521,4.041608015979074,0
3522,6.454595868829794,0
3523,-1.1719118795143655,0
3524,-1.5698369754908437,0
3525,1.3187665754092088,0
3526,-0.8952710632709233,0
3527,0.1426103686596415,0
3528,-0.24310107622372795,0
3529,-0.13404942330051772,0
3530,-0.02536367015646456,0
3531,-0.28642988161153715,0
3532,-0.10717050765032395,0
3533,-0.13483401138470974,0
3534,-0.10302285491907809,0
3535,-0.1872014924656327,0
3536,-0.16678691108385002,0
3537,-0.11858858596958062,0
3538,-0.1532326004570134,0
3539,-0.10435374262156442,0
3540,0.2985629294219636,0
3541,4.006612749485757,0
3542,6.499696720007843,0
3543,-1.3950939189612566,0
3544,-1.510406373872576,0
3545,1.2401641130804435,0
3546,-0.8002656624208754,0
3547,0.18547179751521886,0
3548,-0.04661770784167457,0
3549,-0.12228682563106723,0
3550,-0.12012185709940995,0
3551,-0.2040944343527814,0
3552,-0.25768220439326783,0
3553,-0.16947365000571268,0
3554,-0.18095810398984086,0
3555,-0.14366123793470162,0
3556,-0.22564246915947453,0
3557,-0.07737468443926529,0
3558,-0.18711088405598253,0
3559,-0.11941584944863474,0
3560,0.28304152255418213,0
3561,3.9343293711229346,0
3562,6.294031018064844,0
3563,-1.5063077595690801,0
3564,-1.4729160674163764,0
3565,1.251221171388033,0
3566,-1.0220664189056672,0
3567,0.017643729785332157,0
3568,-0.19971460439657512,0
3569,-0.296197790450618,0
3570,-0.22345866254646174,0
3571,-0.28225945367062333,0
3572,-0.2515583440480162,0
3573,-0.18484222827046873,0
3574,-0.24039168797289856,0
3575,-0.35671594924543526,0
3576,-0.20635650682504827,0
3577,-0.24362045062858217,0
3578,-0.14113531564317083,0
3579,-0.24560090179827315,0
3580,0.16829841690672684,0
3581,4.000812961626736,0
3582,6.374162011585803,0
3583,-1.4717304179769481,0
3584,-1.5402288235769583,0
3585,1.2072358290373228,0
3586,-1.037042015021358,0
3587,0.048703437936319066,0
3588,-0.22974259301469674,0
3589,-0.27809842425836134,0
3590,-0.33082536871482554,0
3591,-0.33884293573598273,0
3592,-0.2783345047631215,0
3593,-0.3668389293243283,0
3594,-0.3246998759624989,0
3595,-0.28173308186754353,0
3596,-0.25443794705480316,0
3597,-0.3286620822583639,0
3598,-0.2710527449156591,0
3599,-0.3358308897864295,0
3600,0.08464648118102197,0
3601,3.9100265602080544,0
3602,6.261182928947413,0
3603,-1.611359279892842,0
3604,-1.7515600279884165,0
3605,1.0745355481830483,0
3606,-1.1483434377960955,0
3607,-0.11416124875619144,0
3608,-0.3741892317512193,0
3609,-0.45219347895393275,0
3610,-0.29190187087385855,0
3611,-0.29642904156022487,0
3612,-0.3687987209301879,0
3613,-0.34192975998017566,0
3614,-0.41568008741332546,0
3615,-0.3373077584153933,0
3616,-0.38328593197915356,0
3617,-0.47552471078747416,0
3618,-0.3609210026412704,0
3619,-0.39496195386914007,0
3620,0.08339973692901254,0
3621,3.8158750770753604,0
3622,6.259143383367146,0
3623,-1.62465767186105,0
3624,-1.739916764879271,0
3625,0.9988248223963476,0
3626,-1.1593262694848692,0
3627,-0.1335854901337935,0
3628,-0.37592149687608645,0
3629,-0.5216988722028845,0
3630,-0.4056920169455653,0
3631,-0.43633085803695604,0
3632,-0.4103580107695079,0
3633,-0.3403325359480376,0
3634,-0.4323073957720198,0
3635,-0.41199955697093193,0
3636,-0.41125486059771815,0
3637,-0.3737125699254278,0
3638,-0.44114027807315837,0
3639,-0.44841932089159897,0
3640,0.0493003486849955,0
3641,3.7175680285211965,0
3642,6.190891676779483,0
3643,-1.6713411571049037,0
3644,-1.66752285513269,0
3645,0.9883852794613375,0
3646,-1.0428776983493377,0
3647,-0.06535394079773632,0
3648,-0.3808199698367971,0
3649,-0.4996360689332458,0
3650,-0.4034822680700134,0
3651,-0.35923563503359635,0
3652,-0.33002539176066376,0
3653,-0.42304002895484255,0
3654,-0.45985701675432095,0
3655,-0.3920966425074096,0
3656,-0.4361192333171744,0
3657,-0.3209620986791304,0
3658,-0.46883364637458824,0
3659,-0.40797665142646145,0
3660,0.03125363351839877,0
3661,3.689576786208767,0
3662,6.048048052206904,0
3663,-1.7279287952521467,0
3664,-1.7524011769788577,0
3665,0.8814525909295736,0
3666,-1.309203334708897,0
3667,-0.3349289214732897,0
3668,-0.5267979883315793,0
3669,-0.4307584436398099,0
3670,-0.448312958021394,0
3671,-0.5411557202029876,0
3672,-0.34545589610475175,0
3673,-0.3752397753715749,0
3674,-0.46653004965170586,0
3675,-0.46747475315852094,0
3676,-0.408297036308913,0
3677,-0.4364111025445079,0
3678,-0.3774165468101003,0
3679,-0.5172511664798441,0
3680,-0.17626586281304124,0
3681,3.714935689463029,0
3682,5.996349497721886,0
3683,-1.6976567408782548,0
3684,-1.860246401717943,0
3685,0.8671897599220952,0
3686,-1.2971307001312031,0
3687,-0.29395990842583036,0
3688,-0.48442991166268135,0
3689,-0.5469097190099381,0
3690,-0.505056676528414,0
3691,-0.5138179538144917,0
3692,-0.39769268551286097,0
3693,-0.4300702099175041,0
3694,-0.5218696743713181,0
3695,-0.5383479044511025,0
3696,-0.601413654893218,0
3697,-0.4365495350737838,0
3698,-0.48435621807021045,0
3699,-0.6027201774391171,0
3700,-0.08976161130496702,0
3701,3.5525011258642256,0
3702,6.048829620144307,0
3703,-1.6794958187507096,0
3704,-1.8457167512293116,0
3705,0.9165171517573638,0
3706,-1.2288961929729574,0
3707,-0.34956736915225495,0
3708,-0.538247167026739,0
3709,-0.5498581485544906,0
3710,-0.5044013860128301,0
3711,-0.4949022575511395,0
3712,-0.5567632367530043,0
3713,-0.5534460846135654,0
3714,-0.3953665825690924,0
3715,-0.6004137840300181,0
3716,-0.43343015563409193,0
3717,-0.42272925788568266,0
3718,-0.5321452762813517,0
3719,-0.5232907391239874,0
3720,0.10858013617596657,0
3721,3.7459256744283924,0
3722,6.083583032814958,0
3723,-1.6350462781411594,0
3724,-1.7950505894755422,0
3725,0.8754241544935499,0
3726,-1.2620881351662832,0
3727,-0.20300363878272365,0
3728,-0.5966238062373339,0
3729,-0.4723026136844422,0
3730,-0.5039767939937031,0
3731,-0.46668232868648046,0
3732,-0.45972440651112917,0
3733,-0.4661580832972576,0
3734,-0.4853581497554214,0
3735,-0.5366054876227431,0
3736,-0.5391293915458901,0
3737,-0.601721283572707,0
3738,-0.5626833405232367,0
3739,-0.5215843206401134,0
3740,0.12266101781088684,0
3741,3.6090281888223297,0
3742,5.934290887497015,0
3743,-1.7599909622085272,0
3744,-1.8612916482919712,0
3745,0.7829609272424076,0
3746,-1.243375547132218,0
3747,-0.2497633663007807,0
3748,-0.569344543805499,0
3749,-0.5083892896295533,0
3750,-0.46198055766265345,0
3751,-0.4839927792556446,0
3752,-0.4532391430285153,0
3753,-0.5761835663829737,0
3754,-0.4530847210348212,0
3755,-0.5336194184922957,0
3756,-0.5708935357386483,0
3757,-0.5643698426061959,0
3758,-0.6854250445369754,0
3759,-0.6235573647101754,0
3760,-0.02478901099557068,0
3761,3.594586035487903,0
3762,5.931458510372531,0
3763,-1.7889525179334465,0
3764,-1.7810880648325897,0
3765,0.8831785116927229,0
3766,-1.3471449313905026,0
3767,-0.3613262433875743,0
3768,-0.5874825479449655,0
3769,-0.5524340108714421,0
3770,-0.6085016135958171,0
3771,-0.5058195349879295,0
3772,-0.507482423808027,0
3773,-0.44391710658430755,0
3774,-0.3819604417430284,0
3775,-0.4598221813346197,0
3776,-0.5190263665761599,0
3777,-0.48325640434325484,0
3778,-0.45572217443580365,0
3779,-0.4923259223419709,0
3780,-0.08773543480906937,0
3781,3.6535236699196836,0
3782,5.978901736761067,0
3783,-1.7831951813060156,0
3784,-1.8663143822207664,0
3785,0.9082831243466245,0
3786,-1.2627533265723438,0
3787,-0.2548084541316152,0
3788,-0.5462591290673627,0
3789,-0.48430045833545776,0
3790,-0.4506226422023041,0
3791,-0.5291298493442002,0
3792,-0.46589185764015456,0
3793,-0.4739743087638096,0
3794,-0.3583844157741257,0
3795,-0.47230685295400926,0
3796,-0.506187260947779,0
3797,-0.49456243781937215,0
3798,-0.5355564965896978,0
3799,-0.4235949852133394,0
3800,-0.048175594676067746,0
3801,3.774857545006561,0
3802,6.076051294256374,0
3803,-1.7841644286515241,0
3804,-1.7229777275835996,0
3805,0.9440735498349208,0
3806,-1.3076418012691913,0
3807,-0.1983575180482821,0
3808,-0.31995409203230796,0
3809,-0.4748085728479894,0
3810,-0.44555145365966325,0
3811,-0.5945775382291458,0
3812,-0.506403960572026,0
3813,-0.48133814506775474,0
3814,-0.46836137768745617,0
3815,-0.4238783226373979,0
3816,-0.5488087498439094,0
3817,-0.3229810360759391,0
3818,-0.39193741306021296,0
3819,-0.30232121694960234,0
3820,-0.01458148177352342,0
3821,3.6859454136326946,0
3822,6.1232585619334685,0
3823,-1.6429264398017838,0
3824,-1.7840729506587558,0
3825,0.9529592636581122,0
3826,-1.1937130363966229,0
3827,-0.21599428652782454,0
3828,-0.38951766869193283,0
3829,-0.5101605935659871,0
3830,-0.4888808523595654,0
3831,-0.506298527509919,0
3832,-0.5281569611071485,0
3833,-0.4767842139150425,0
3834,-0.4386416069796904,0
3835,-0.5609081841761044,0
3836,-0.5606106295780166,0
3837,-0.48700573513502693,0
3838,-0.5059916361769985,0
3839,-0.4762317111702042,0
3840,0.04448755072596888,0
3841,3.7470424077386593,0
3842,6.10750603674698,0
3843,-1.7907309299647538,0
3844,-1.7285416565491882,0
3845,1.069972844460787,0
3846,-1.1700704314671602,0
3847,-0.11716849685902686,0
3848,-0.4914684228729976,0
3849,-0.4178220723756522,0
3850,-0.3624002161513705,0
3851,-0.3464887644180554,0
3852,-0.4491408814041216,0
3853,-0.30800299588791596,0
3854,-0.3549300897463875,0
3855,-0.2648946644005535,0
3856,-0.3256308957282578,0
3857,-0.47284474917587105,0
3858,-0.3205613110608328,0
3859,-0.34195468721721894,0
3860,-0.0012008623087449988,0
3861,3.8640916450867206,0
3862,6.075717587149637,0
3863,-1.6962822007741263,0
3864,-1.7459320499554178,0
3865,1.047328607538144,0
3866,-1.2131404591099189,0
3867,-0.19426470317966577,0
3868,-0.3539932477628973,0
3869,-0.3889336334402765,0
3870,-0.3252130808487943,0
3871,-0.4229543556700036,0
3872,-0.36747785123602555,0
3873,-0.36002572767937885,0
3874,-0.34775797131031005,0
3875,-0.37743796034179267,0
3876,-0.33674367868291827,0
3877,-0.3461619983431212,0
3878,-0.33607936061896987,0
3879,-0.23600944194580034,0
3880,0.1931229438897143,0
3881,3.8047776834441422,0
3882,6.360576138114481,0
3883,-1.5566448527730827,0
3884,-1.654773231654199,0
3885,1.0291075598518526,0
3886,-1.076628478118933,0
3887,-0.06754905228414021,0
3888,-0.19788510552850136,0
3889,-0.3907673750733205,0
3890,-0.2873566783030991,0
3891,-0.3697606858747633,0
3892,-0.3851763598639683,0
3893,-0.22978069474747587,0
3894,-0.30743473484155204,0
3895,-0.27519000003402766,0
3896,-0.23884029291252087,0
3897,-0.39777482871569053,0
3898,-0.3527793217221156,0
3899,-0.30645052580061255,0
3900,0.157969326683147,0
3901,3.885581260636562,0
3902,6.312283479770422,0
3903,-1.4943055665748433,0
3904,-1.5120766598636148,0
3905,1.198940569599699,0
3906,-1.0166650744594752,0
3907,-0.0054846041655542965,0
3908,-0.2312587565420064,0
3909,-0.2615971733818508,0
3910,-0.2568018767507142,0
3911,-0.19179743846443212,0
3912,-0.3851368267615269,0
3913,-0.2554685449751824,0
3914,-0.29602468055976555,0
3915,-0.422704336721223,0
3916,-0.19324990687038937,0
3917,-0.2354997784837611,0
3918,-0.25059936922033577,0
3919,-0.10630360476353659,0
3920,0.22986822585354302,0
3921,4.080318809638634,0
3922,6.345895440961225,0
3923,-1.500656907667926,0
3924,-1.485634465791302,0
3925,1.2771935885801438,0
3926,-0.8375575582725334,0
3927,0.0877808882794962,0
3928,-0.2122537574616028,0
3929,-0.20661696728494708,0
3930,-0.16102358821446333,0
3931,-0.1730172837864245,0
3932,-0.12380517396278386,0
3933,-0.13118859862875148,0
3934,-0.16321865383358597,0
3935,-0.16638658093184766,0
3936,-0.06875819191006695,0
3937,-0.09014447662340384,0
3938,-0.21750937234011158,0
3939,-0.20386684160442378,0
3940,0.23795230079042495,0
3941,4.052960852226116,0
3942,6.332257240365891,0
3943,-1.3919337694767455,0
3944,-1.5062450498532511,0
3945,1.28926519576714,0
3946,-0.9773942248744326,0
3947,0.08965731906025659,0
3948,-0.142874049913851,0
3949,-0.13957988601695648,0
3950,-0.1599625545732276,0
3951,-0.13335453181607737,0
3952,-0.257412533073923,0
3953,-0.06832399917177533,0
3954,-0.11263265848645357,0
3955,-0.1755771685780405,0
3956,-0.1331118896095692,0
3957,-0.2208898221531037,0
3958,-0.22737082442860163,0
3959,-0.21891344000849472,0
3960,0.3434670667389919,0
3961,4.129670239594867,0
3962,6.407639386823806,0
3963,-1.4276637016668714,0
3964,-1.3938916530241976,0
3965,1.363102014807485,0
3966,-0.788018399505612,0
3967,0.09008163340201134,0
3968,-0.07294303379023552,0
3969,-0.07288852234456238,0
3970,-0.1197119721582492,0
3971,0.0011686770363258624,0
3972,-0.07867667107295814,0
3973,-0.0922226538209328,0
3974,-0.11991746390534826,0
3975,-0.10424584537659387,0
3976,-0.12396801713099032,0
3977,-0.08893355655288598,0
3978,-0.11475559981904379,0
3979,-0.05397198407716629,0
3980,0.44532039952380387,0
3981,4.149747331655901,0
3982,6.466001763786855,0
3983,-1.3344634863495728,0
3984,-1.2666425654886626,0
3985,1.3966693525097025,0
3986,-0.8073715229875884,0
3987,0.2516162731697956,0
3988,-0.04128151717214901,0
3989,-0.04710541235489769,0
3990,0.04709406616346685,0
3991,0.013755662382675428,0
3992,-0.06891706670323279,0
3993,0.06558450035913921,0
3994,-0.0334082101410632,0
3995,-0.025111753511770432,0
3996,-0.025768391284614785,0
3997,-0.03936151763156416,0
3998,-0.09258441444295001,0
3999,0.05164571693270563,0
4000,0.5555477070051923,0
4001,4.2241730213357975,0
4002,6.4519814814263485,0
4003,-1.3146062427252603,0
4004,-1.2168728791695627,0
4005,1.4557851701025395,0
4006,-0.7651654866716737,0
4007,0.3065479595474215,0
4008,0.00242582024493513,0
4009,-0.028359653510945354,0
4010,0.03747706945917599,0
4011,-0.006998595831300266,0
4012,0.03161518133102958,0
4013,0.07632277386451597,0
4014,0.08780082539212285,0
4015,0.05804981158546245,0
4016,0.022646482275985716,0
4017,0.12581371248574647,0
4018,0.1044934880648843,0
4019,0.06822805614499858,0
4020,0.5083704126681259,0
4021,4.356815530980644,0
4022,6.586253241757935,0
4023,-1.2190043620492323,0
4024,-1.2274031403646517,0
4025,1.4288830634928906,0
4026,-0.6492095135676829,0
4027,0.3389697672333264,0
4028,0.14648329467499754,0
4029,0.07056710877514306,0
4030,0.12709276009839027,0
4031,0.11148422955266027,0
4032,0.08526504895266886,0
4033,0.05349559598553988,0
4034,0.09175257341518993,0
4035,0.16005838133872258,0
4036,0.11116147785401839,0
4037,0.13354622566138416,0
4038,0.13047584731334344,0
4039,0.14845555001611668,0
4040,0.4876880628068222,0
4041,4.327554471795727,0
4042,6.5708655491786185,0
4043,-1.2285160974280047,0
4044,-1.248944831809999,0
4045,1.5128825361343454,0
4046,-0.6801962648095266,0
4047,0.5072185403025788,0
4048,0.2314068237024157,0
4049,0.22256388863418414,0
4050,0.33247357252278503,0
4051,0.17019625053106488,0
4052,0.11874319106473459,0
4053,0.34233321068284467,0
4054,0.1917901087685751,0
4055,0.27397502946891894,0
4056,0.17701101716971557,0
4057,0.2552891401771937,0
4058,0.2833157826774966,0
4059,0.1214434887995675,0
4060,0.5556178310450977,0
4061,4.477821345021378,0
4062,6.719307886846861,0
4063,-1.232098417978375,0
4064,-1.0447807717794475,0
4065,1.5971138706657595,0
4066,-0.6012056042944673,0
4067,0.5207914772533409,0
4068,0.2696401162343071,0
4069,0.2548863996878881,0
4070,0.3291185600693468,0
4071,0.2812768832720236,0
4072,0.2930433238112871,0
4073,0.19338389949902263,0
4074,0.22321348438997712,0
4075,0.3010586925822293,0
4076,0.22633893199586586,0
4077,0.3170953827762492,0
4078,0.34077876473252205,0
4079,0.284106143815421,0
4080,0.7598080372654065,0
4081,4.567580660081444,0
4082,6.789744121459703,0
4083,-1.1557570942729722,0
4084,-0.9530280568715048,0
4085,1.7084601103969281,0
4086,-0.4852741430430636,0
4087,0.5124978735602407,0
4088,0.213017030860804,0
4089,0.3017876806029276,0
4090,0.3920063112242511,0
4091,0.34410383765880537,0
4092,0.3099074419309603,0
4093,0.3492385394485334,0
4094,0.3906326224446477,0
4095,0.3150002978648131,0
4096,0.32294139171785485,0
4097,0.43563488416400376,0
4098,0.3400631519582521,0
4099,0.3124104872603328,0
4100,0.6898896258848347,0
4101,4.6443639066069595,0
4102,6.784168907107047,0
4103,-0.9605235749945964,0
4104,-0.9850024361729717,0
4105,1.8246879806527918,0
4106,-0.452362180094141,0
4107,0.6758144249303848,0
4108,0.2822340256720793,0
4109,0.3732407450823578,0
4110,0.3067633774363079,0
4111,0.43144881163251286,0
4112,0.3812511745287796,0
4113,0.40560644320896005,0
4114,0.39398377373278537,0
4115,0.4607997936719861,0
4116,0.4895889778560244,0
4117,0.28700500009460833,0
4118,0.3214359099477374,0
4119,0.4783153391202653,0
4120,0.8209625757465586,0
4121,4.66424866225979,0
4122,6.807940156775531,0
4123,-0.9336375175159182,0
4124,-0.8950783366292159,0
4125,1.7709317576179175,0
4126,-0.3576587937618728,0
4127,0.6309053147400252,0
4128,0.4105204316158047,0
4129,0.39643371365367985,0
4130,0.47247065189245263,0
4131,0.34096956793092964,0
4132,0.40491788033051407,0
4133,0.4117201449984989,0
4134,0.4239065040490073,0
4135,0.3936033330960205,0
4136,0.5066721391657318,0
4137,0.4429931914232371,0
4138,0.457616238421368,0
4139,0.4138665606093031,0
4140,0.9585011376173234,0
4141,4.685129082637688,0
4142,6.904905453399968,0
4143,-0.9472508787656768,0
4144,-0.8403844873871515,0
4145,1.8333792288698387,0
4146,-0.22785317723140508,0
4147,0.6939718103178143,0
4148,0.4720004832992759,0
4149,0.3657029708722136,0
4150,0.35977296407624243,0
4151,0.46050759193117835,0
4152,0.4665056450107463,0
4153,0.5186480437257364,0
4154,0.42994130423396515,0
4155,0.3946616682188764,0
4156,0.47814605121911347,0
4157,0.4371948032197978,0
4158,0.547613381073849,0
4159,0.4467669217274772,0
4160,0.8842552202003104,0
4161,4.823335547563295,0
4162,6.9990113262341564,0
4163,-0.8476043227469119,0
4164,-0.8195387688948138,0
4165,1.8018275927334546,0
4166,-0.415094353697322,0
4167,0.6520707662411258,0
4168,0.4300990207284169,0
4169,0.43513986010298056,0
4170,0.3918746369466934,0
4171,0.47976048800123794,0
4172,0.5656841395943154,0
4173,0.5338865311773717,0
4174,0.41855411304091056,0
4175,0.47203374157412176,0
4176,0.5613479774058966,0
4177,0.483717056292362,0
4178,0.4328396987631239,0
4179,0.5601587449532149,0
4180,0.9389593411338246,0
4181,4.782715877220807,0
4182,6.966096434811991,0
4183,-0.8329432198179771,0
4184,-0.696999338242698,0
4185,1.9397409829866776,0
4186,-0.3304783089199914,0
4187,0.7137632834259853,0
4188,0.5409750642026983,0
4189,0.5694646938006361,0
4190,0.5493967485443224,0
4191,0.428722109601784,0
4192,0.5750483538269671,0
4193,0.6520558890570535,0
4194,0.6056836535312917,0
4195,0.44815721620980203,0
4196,0.5369514738912159,0
4197,0.5453174921532203,0
4198,0.4276554950235307,0
4199,0.4778180224950685,0
4200,0.9328820228792642,0
4201,4.769273439837975,0
4202,7.06590144146921,0
4203,-0.9868978236762411,0
4204,-0.8945906712055973,0
4205,1.9228233720064787,0
4206,-0.22322419648517422,0
4207,0.8278051963170359,0
4208,0.4760432315009673,0
4209,0.5120972578691964,0
4210,0.496030322342544,0
4211,0.5179484676914697,0
4212,0.46463109494054455,0
4213,0.5588351461104962,0
4214,0.6113922018904665,0
4215,0.49919653529925767,0
4216,0.5467516460410003,0
4217,0.4356526334726434,0
4218,0.6197756439050796,0
4219,0.5955556982407966,0
4220,0.9615738254423509,0
4221,4.873348981409888,0
4222,7.0687420283769615,0
4223,-0.7970556230797337,0
4224,-0.7082658539151931,0
4225,1.903194589197629,0
4226,-0.26244079861307634,0
4227,0.7146713042204422,0
4228,0.5283125962567816,0
4229,0.5458780003738356,0
4230,0.5706198745867395,0
4231,0.5944897085593254,0
4232,0.37074179581352557,0
4233,0.5048604792569688,0
4234,0.44392171579156325,0
4235,0.5822940658368113,0
4236,0.44562169218734166,0
4237,0.4600568162519838,0
4238,0.6503688522578712,0
4239,0.53179699515689,0
4240,0.9749819078327218,0
4241,4.80789148566175,0
4242,6.968514276318401,0
4243,-0.7895886007670877,0
4244,-0.8096178710702335,0
4245,1.8321453588749594,0
4246,-0.2740828198677837,0
4247,0.7513061538978228,0
4248,0.508549742317809,0
4249,0.4925704862229953,0
4250,0.5338504248903171,0
4251,0.47470201646336163,0
4252,0.459343936095338,0
4253,0.44966316911913656,0
4254,0.5137325294941371,0
4255,0.37790487007064094,0
4256,0.49993622545563243,0
4257,0.4593603943883156,0
4258,0.4289133402810803,0
4259,0.4683811504590231,0
4260,0.8448375390036769,0
4261,4.808243149122558,0
4262,6.97200690890678,0
4263,-1.0428462939862837,0
4264,-0.8199438912718083,0
4265,1.91591079478001,0
4266,-0.34445159274396453,0
4267,0.6975059632004329,0
4268,0.35333290863264666,0
4269,0.36440783101183566,0
4270,0.49557775582213487,0
4271,0.5734453715585158,0
4272,0.5361208495825001,0
4273,0.5667261800688853,0
4274,0.4734741210641785,0
4275,0.5146721894462334,0
4276,0.6047001119935034,0
4277,0.45077294770130344,0
4278,0.4653389982377476,0
4279,0.5664452676743725,0
4280,1.0082770824079008,0
4281,4.713252156592903,0
4282,6.9449407489869115,0
4283,-0.8386913335807586,0
4284,-0.7516485709852136,0
4285,1.918914409458933,0
4286,-0.22513866326459298,0
4287,0.6767490763070921,0
4288,0.4945041490070605,0
4289,0.42808152424130874,0
4290,0.49013771468075545,0
4291,0.4828205309993424,0
4292,0.4905107094502956,0
4293,0.49468761368905156,0
4294,0.46632646441207143,0
4295,0.5024754229698819,0
4296,0.4967625854763704,0
4297,0.48625732447819003,0
4298,0.44000804377112357,0
4299,0.37460722860442386,0
4300,0.9565666451125265,0
4301,4.71029872725018,0
4302,6.9370580232955845,0
4303,-0.889798788037559,0
4304,-0.75714862853163,0
4305,1.9244547345202951,0
4306,-0.33549183705067254,0
4307,0.6984349384668959,0
4308,0.40291443246128156,0
4309,0.40222268579270287,0
4310,0.49655120643353395,0
4311,0.42040794665958675,0
4312,0.4755971182039698,0
4313,0.46921946122708064,0
4314,0.43951110331061294,0
4315,0.4400905629608488,0
4316,0.39087310383664203,0
4317,0.42712930463179544,0
4318,0.4490259282807349,0
4319,0.4477652558424123,0
4320,0.8328414783341265,0
4321,4.6741610380169565,0
4322,6.936723388833367,0
4323,-0.9584439816286126,0
4324,-0.7308679703448038,0
4325,1.7461992785212468,0
4326,-0.3597537200702905,0
4327,0.6308670705543675,0
4328,0.4002413341454858,0
4329,0.3863515965530173,0
4330,0.4209077193565353,0
4331,0.34126056097338825,0
4332,0.41462121240676997,0
4333,0.34401809601342526,0
4334,0.33081596727013796,0
4335,0.4416029242849061,0
4336,0.3682834935437463,0
4337,0.3491119330062041,0
4338,0.32904309433251394,0
4339,0.47982548926207924,0
4340,0.7777658167680801,0
4341,4.6610597131072335,0
4342,6.843446050535879,0
4343,-0.9786538614030633,0
4344,-0.8357951948258922,0
4345,1.8064057558658102,0
4346,-0.40128694629701006,0
4347,0.6779676293285347,0
4348,0.37998952513705564,0
4349,0.42923544820356097,0
4350,0.35859286456690315,0
4351,0.37706434101973013,0
4352,0.40315205579683355,0
4353,0.35361023027986366,0
4354,0.2537727590578642,0
4355,0.26390606722719123,0
4356,0.4191575419747423,0
4357,0.3980008875175264,0
4358,0.43170982878783787,0
4359,0.3674555950675959,0
4360,0.9311129667450604,0
4361,4.686249603640299,0
4362,6.793682832107601,0
4363,-1.0165485026267835,0
4364,-0.9022828273750394,0
4365,1.7275067987134904,0
4366,-0.4943171097100495,0
4367,0.6585066056291873,0
4368,0.2696406061868648,0
4369,0.27308235811022397,0
4370,0.32082385757575105,0
4371,0.250751405887696,0
4372,0.245162325673986,0
4373,0.28685982432284185,0
4374,0.3521857933723904,0
4375,0.26819908545586546,0
4376,0.31527079188102525,0
4377,0.28741335788728556,0
4378,0.2747416795629858,0
4379,0.2550804006100166,0
4380,0.7914074407777302,0
4381,4.5837023357641264,0
4382,6.751709631671606,0
4383,-1.1627216258656892,0
4384,-0.9765732814618874,0
4385,1.6782916345856633,0
4386,-0.4562457739094286,0
4387,0.6126758606192544,0
4388,0.29666394422661113,0
4389,0.214932664759627,0
4390,0.3291448773210704,0
4391,0.3638256122858383,0
4392,0.251342568131027,0
4393,0.33238682909355327,0
4394,0.31654976621638414,0
4395,0.33576616873827164,0
4396,0.35252757617436975,0
4397,0.28764162131241755,0
4398,0.2180311853521883,0
4399,0.27891350281106264,0
4400,0.8033486708898658,0
4401,4.511544252620681,0
4402,6.694123190426708,0
4403,-1.1853382454871562,0
4404,-0.9289323853580187,0
4405,1.5040080869389585,0
4406,-0.6056156152353264,0
4407,0.3763887236800215,0
4408,0.21591942901277753,0
4409,0.33462079858066796,0
4410,0.20907391566321926,0
4411,0.20378685299469926,0
4412,0.19795153242712174,0
4413,0.16153684993949718,0
4414,0.23148570097583332,0
4415,0.16419171124239573,0
4416,0.21985234767610753,0
4417,0.25871801638929565,0
4418,0.1965513560086207,0
4419,0.21336380006854885,0
4420,0.7690537402957185,0
4421,4.540728721870776,0
4422,6.705992273310346,0
4423,-1.169975404893904,0
4424,-0.9253591813831511,0
4425,1.643479990104042,0
4426,-0.49730187560216543,0
4427,0.5289753173746516,0
4428,0.3009831677683147,0
4429,0.19011520315833655,0
4430,0.2338186405112608,0
4431,0.20719452959466592,0
4432,0.3062528706777689,0
4433,0.22927811359725342,0
4434,0.22321610534846684,0
4435,0.3242976020403957,0
4436,0.23741471979067216,0
4437,0.1750857388412378,0
4438,0.17241347309424315,0
4439,0.14693571399294716,0
4440,0.6770379115456702,0
4441,4.4969875795639,0
4442,6.622729040392968,0
4443,-1.258901793988798,0
4444,-1.009614204638344,0
4445,1.5264831398158623,0
4446,-0.640837774648282,0
4447,0.39587824676585137,0
4448,0.17936405503887753,0
4449,0.13004399876822612,0
4450,0.11754843658645747,0
4451,0.18720247901019407,0
4452,0.041245676001533615,0
4453,0.17553519514900387,0
4454,0.11862716192457382,0
4455,0.14560751791589727,0
4456,0.14216098563226115,0
4457,0.1596107736201027,0
4458,0.1556657848175244,0
4459,0.08708677983836076,0
4460,0.8094383920935204,0
4461,4.551768856995276,0
4462,6.6075197090798135,0
4463,-1.3160306264758315,0
4464,-0.991053769961564,0
4465,1.3946179662095168,0
4466,-0.6642460977123998,0
4467,0.2414707297094627,0
4468,0.16199007448588584,0
4469,0.12308052502660732,0
4470,0.10996949148672963,0
4471,0.091522088602225,0
4472,0.048024307671925406,0
4473,-0.025540989186901973,0
4474,0.08688265655140406,0
4475,0.22191821915532356,0
4476,0.09368847562175528,0
4477,0.05699186725950704,0
4478,-0.01092326240903024,0
4479,0.07290107255618249,0
4480,0.5263956369705965,0
4481,4.43800575553891,0
4482,6.517116037056699,0
4483,-1.3007775323078272,0
4484,-1.0942715381630652,0
4485,1.3999862196974031,0
4486,-0.663207984226411,0
4487,0.318648174386489,0
4488,0.012744380430260459,0
4489,0.12877955554541382,0
4490,0.05921702597369454,0
4491,0.06941547114247401,0
4492,0.06320219688195079,0
4493,0.12557808742465923,0
4494,-0.001822308949096213,0
4495,0.013514830096676901,0
4496,0.07684580006535964,0
4497,-0.07167489130900255,0
4498,0.04937527183577832,0
4499,0.1000432462726286,0
4500,0.5060523353583717,0
4501,4.321070975707827,0
4502,6.461851830061741,0
4503,-1.3616001086062364,0
4504,-1.2031557495459284,0
4505,1.4059180861733356,0
4506,-0.8708459243954826,0
4507,0.29273503504590304,0
4508,-0.06186936324945558,0
4509,0.014814393045202302,0
4510,0.01875487368449229,0
4511,0.06540552769950331,0
4512,-0.05152033987183875,0
4513,-0.09224601514941858,0
4514,-0.06078118155981315,0
4515,-0.032133717302184776,0
4516,-0.05719142349240122,0
4517,0.0197254266022386,0
4518,-0.14911665369106664,0
4519,-0.10948628177278913,0
4520,0.4159726975125494,0
4521,4.304282508970563,0
4522,6.498905459677463,0
4523,-1.4483715146863292,0
4524,-1.1981454492776227,0
4525,1.338944146409136,0
4526,-0.7991599542729808,0
4527,0.21216748151400744,0
4528,-0.12301660861137098,0
4529,-0.14756353664747096,0
4530,-0.08022108298899143,0
4531,-0.053805866166451506,0
4532,-0.10619402648267885,0
4533,-0.21751633031274448,0
4534,-0.11320325360724039,0
4535,-0.014687603151124858,0
4536,-0.1498863686332514,0
4537,-0.0195178472728482,0
4538,-0.18394330631567687,0
