timestamp,value-0,is_anomaly
0,0.3231752337959488,0.0
1,3.4870030438504993,0.0
2,6.792592365825611,0.0
3,-0.10701668747304269,0.0
4,-1.997819939358075,0.0
5,1.669885725376564,0.0
6,-0.6823831396928086,0.0
7,0.24507722882735083,0.0
8,0.054357525470005365,0.0
9,-0.02067145971025461,0.0
10,0.06948171155391045,0.0
11,-0.04966964151589608,0.0
12,0.028104275184229945,0.0
13,0.073137743644861,0.0
14,-0.0010837732104665614,0.0
15,0.0002451127125554682,0.0
16,0.07892978129345117,0.0
17,0.06686636042465931,0.0
18,-0.03470402125577112,0.0
19,0.08564680849356798,0.0
20,0.32254477706270795,0.0
21,3.4988945751956533,0.0
22,6.933053808351675,0.0
23,-0.2690877355615193,0.0
24,-1.9358031922031984,0.0
25,1.653424092344839,0.0
26,-0.7063308514350696,0.0
27,0.19057476855768307,0.0
28,0.10842784285777185,0.0
29,0.10354568036958577,0.0
30,0.09823203025773322,0.0
31,0.06457461704030555,0.0
32,0.06976267550689869,0.0
33,0.05460857092495964,0.0
34,-0.015531192070407826,0.0
35,0.030380963176363657,0.0
36,0.12967840082841123,0.0
37,0.005608927589098754,0.0
38,0.14314491429240445,0.0
39,0.24677503873110887,0.0
40,0.362576611646509,0.0
41,3.694915933100793,0.0
42,7.008192891282151,0.0
43,-0.005431038771011254,0.0
44,-1.8886159490197711,0.0
45,1.640596992755369,0.0
46,-0.5735138905429651,0.0
47,0.18711533101716887,0.0
48,0.1774436406734074,0.0
49,0.1471733298119749,0.0
50,0.18955545395430357,0.0
51,0.15969309449810767,0.0
52,0.17409614928578454,0.0
53,0.134797499290801,0.0
54,0.2532466774027051,0.0
55,0.16329505315504023,0.0
56,0.17596403364732027,0.0
57,0.12705458970619482,0.0
58,0.32037933463681856,0.0
59,0.16336200987980853,0.0
60,0.5191007634560798,0.0
61,3.6151046816137025,0.0
62,7.1238652385741,0.0
63,0.04622664396318371,0.0
64,-1.6403435875020702,0.0
65,1.8284811322691583,0.0
66,-0.5619086256671437,0.0
67,0.2799200097905704,0.0
68,0.20527413835900568,0.0
69,0.24697653151293236,0.0
70,0.19313393175444113,0.0
71,0.2296473925810064,0.0
72,0.2682909052618194,0.0
73,0.18444449952959321,0.0
74,0.13097699246120242,0.0
75,0.11450535703533907,0.0
76,0.22692679112775876,0.0
77,0.16955311172557563,0.0
78,0.17674643494894535,0.0
79,0.22962606220275977,0.0
80,0.47081214891669804,0.0
81,3.7885545625449257,0.0
82,7.052529531082375,0.0
83,-0.08891453654678422,0.0
84,-1.7332496293989594,0.0
85,1.7682425952386212,0.0
86,-0.4317176971403245,0.0
87,0.4087350599735807,0.0
88,0.30476432456907204,0.0
89,0.24630641035932868,0.0
90,0.2847000192198123,0.0
91,0.3001599849636653,0.0
92,0.32655222805167217,0.0
93,0.3483798961727583,0.0
94,0.3707133354362455,0.0
95,0.345686006657511,0.0
96,0.29455546235964186,0.0
97,0.2752402383886204,0.0
98,0.40526849689033256,0.0
99,0.27210588915666106,0.0
100,0.6255467288737193,0.0
101,3.844136452391352,0.0
102,7.071653570111774,0.0
103,0.0942547741353491,0.0
104,-1.587916352237531,0.0
105,2.11930585273834,0.0
106,-0.4423887069596183,0.0
107,0.5255624011999422,0.0
108,0.34739715169650937,0.0
109,0.23902651985886664,0.0
110,0.3215261296625107,0.0
111,0.3891318996188734,0.0
112,0.33910248045768626,0.0
113,0.3063139303116917,0.0
114,0.2879453283538191,0.0
115,0.3353656786345123,0.0
116,0.26286605593140216,0.0
117,0.34203461700565896,0.0
118,0.3987450833701431,0.0
119,0.34094156143415905,0.0
120,0.5814254714560108,0.0
121,3.76456757016738,0.0
122,7.175220205695277,0.0
123,0.07502466695842075,0.0
124,-1.5012098158590543,0.0
125,1.8757120499376856,0.0
126,-0.3700190248996883,0.0
127,0.4818017876143934,0.0
128,0.38699362058660475,0.0
129,0.2964028196248368,0.0
130,0.4744964452938305,0.0
131,0.35905697559560873,0.0
132,0.3830814702740377,0.0
133,0.3932408465862697,0.0
134,0.3255529411358546,0.0
135,0.4083458792498283,0.0
136,0.37724859718211884,0.0
137,0.37587557335996447,0.0
138,0.40567470705747205,0.0
139,0.324417973657594,0.0
140,0.7644692645808622,0.0
141,3.886046645657982,0.0
142,7.2819231432883065,0.0
143,0.07069531663153705,0.0
144,-1.553796523784105,0.0
145,2.0442872174213798,0.0
146,-0.3721628981188108,0.0
147,0.568918864762461,0.0
148,0.4519113730693637,0.0
149,0.391440070700186,0.0
150,0.5658610880886316,0.0
151,0.4836318008419335,0.0
152,0.5111304765668695,0.0
153,0.40373338204979536,0.0
154,0.4746196416082247,0.0
155,0.40384268604324636,0.0
156,0.3131575157683968,0.0
157,0.48816996124663126,0.0
158,0.5496540735284777,0.0
159,0.3881859899979122,0.0
160,0.6365220339826421,0.0
161,3.9850898744445655,0.0
162,7.388098303689448,0.0
163,0.2030551499708172,0.0
164,-1.5304595547112956,0.0
165,1.9806241931996393,0.0
166,-0.18441798474305215,0.0
167,0.5824321725250454,0.0
168,0.5404839862474736,0.0
169,0.4823656038384225,0.0
170,0.5558508275099732,0.0
171,0.5256269404837562,0.0
172,0.46513904259958955,0.0
173,0.5053244262226795,0.0
174,0.4042280885947669,0.0
175,0.5838792418149759,0.0
176,0.4358595943888818,0.0
177,0.43109601658325813,0.0
178,0.47699431996989045,0.0
179,0.435906609432113,0.0
180,0.7600026227954535,0.0
181,3.8834661637227925,0.0
182,7.313227850098819,0.0
183,0.1725821971023807,0.0
184,-1.5508259661004344,0.0
185,1.961363076782755,0.0
186,-0.20606440830749162,0.0
187,0.48154667846649307,0.0
188,0.6204061270160135,0.0
189,0.4122089911842201,0.0
190,0.46455265994481687,0.0
191,0.530215195718799,0.0
192,0.5479768575698529,0.0
193,0.4685186213125274,0.0
194,0.4503164682504013,0.0
195,0.5034104708486559,0.0
196,0.5010499592679292,0.0
197,0.4810810976789186,0.0
198,0.5093171626184673,0.0
199,0.5072973757981898,0.0
200,0.8002687739314001,0.0
201,4.093608250260078,0.0
202,7.3973145776253455,0.0
203,0.1777123965727641,0.0
204,-1.4307960442615537,0.0
205,2.0140725244365196,0.0
206,-0.2684226909346454,0.0
207,0.6184680064882713,0.0
208,0.5027704677328986,0.0
209,0.4712833942259965,0.0
210,0.42427641517295317,0.0
211,0.41700030449030606,0.0
212,0.5811935329121958,0.0
213,0.48485590743570944,0.0
214,0.49520986883004464,0.0
215,0.40265540811376754,0.0
216,0.48181651621013877,0.0
217,0.3872159611622141,0.0
218,0.4990114825876651,0.0
219,0.5580375268953114,0.0
220,0.7319434099078986,0.0
221,3.99986480455287,0.0
222,7.368825822252681,0.0
223,0.20233809995599072,0.0
224,-1.4363141420963417,0.0
225,2.1043664313984527,0.0
226,-0.1815256862922492,0.0
227,0.5765040419474176,0.0
228,0.5417074713618862,0.0
229,0.4906673063362252,0.0
230,0.5797023028562114,0.0
231,0.5384457841662724,0.0
232,0.4930969648207695,0.0
233,0.4681926142451585,0.0
234,0.4494276428697385,0.0
235,0.47447496441523906,0.0
236,0.4852064392158944,0.0
237,0.4954917492000394,0.0
238,0.451435237931107,0.0
239,0.5418400131729613,0.0
240,0.855128029542673,0.0
241,4.066117277521808,0.0
242,7.357442055194823,0.0
243,0.30070427868211375,0.0
244,-1.474307850772933,0.0
245,2.0741961363369272,0.0
246,-0.16397994669094973,0.0
247,0.6372550409854219,0.0
248,0.6245003114071733,0.0
249,0.38423404177167353,0.0
250,0.5883969772843802,0.0
251,0.551497942970704,0.0
252,0.5565640524024549,0.0
253,0.5894794190578705,0.0
254,0.4939762116839679,0.0
255,0.4898847250019137,0.0
256,0.4891778804503643,0.0
257,0.4935037279714373,0.0
258,0.6123625579741565,0.0
259,0.4176980780251862,0.0
260,0.7544754915878058,0.0
261,3.963819154406963,0.0
262,7.430191750568796,0.0
263,0.1746162404195135,0.0
264,-1.370445933738857,0.0
265,2.10021768976349,0.0
266,-0.25983739672025324,0.0
267,0.6065729606748145,0.0
268,0.45657337507122553,0.0
269,0.46976472057213137,0.0
270,0.573984373800643,0.0
271,0.5037735750960766,0.0
272,0.6318339426293174,0.0
273,0.47950922995727974,0.0
274,0.5456798694041154,0.0
275,0.48379654673749334,0.0
276,0.5459003874770688,0.0
277,0.4458736922202937,0.0
278,0.5552548999162583,0.0
279,0.534836562834437,0.0
280,0.7224189748005367,0.0
281,4.04125854808447,0.0
282,7.45611299237599,0.0
283,0.17931579260856062,0.0
284,-1.524342586383873,0.0
285,2.0608577221231963,0.0
286,-0.29229877394105475,0.0
287,0.6344330835902894,0.0
288,0.511334316198271,0.0
289,0.40873601393198955,0.0
290,0.6180711400587459,0.0
291,0.5084879058962946,0.0
292,0.396812775818163,0.0
293,0.47903625721725207,0.0
294,0.5020833155786668,0.0
295,0.4430907643913065,0.0
296,0.4660551145190419,0.0
297,0.4285121986673005,0.0
298,0.41896572313797786,0.0
299,0.4250664665907053,0.0
300,0.7699135511576056,0.0
301,3.9613524679952588,0.0
302,7.3777855012860405,0.0
303,0.13952892493497748,0.0
304,-1.5075730823499873,0.0
305,1.9927353716959157,0.0
306,-0.2951554073528415,0.0
307,0.600242928701249,0.0
308,0.5356047805932287,0.0
309,0.4230668193269745,0.0
310,0.5503805290578758,0.0
311,0.45813805410187197,0.0
312,0.45152112379113823,0.0
313,0.4296414980151852,0.0
314,0.3838494140722235,0.0
315,0.38837478756583826,0.0
316,0.3921841211246323,0.0
317,0.3869767644451149,0.0
318,0.4519912970787189,0.0
319,0.353834024335512,0.0
320,0.7389332595906721,0.0
321,4.0008569508494976,0.0
322,7.263348326255749,0.0
323,0.05322094971135344,0.0
324,-1.4349832571610526,0.0
325,1.9632707990585057,0.0
326,-0.17393631496692552,0.0
327,0.6048124161550402,0.0
328,0.5373328820756164,0.0
329,0.33812859835116704,0.0
330,0.490828692877437,0.0
331,0.4209648815338163,0.0
332,0.5631298779582727,0.0
333,0.420678068356957,0.0
334,0.3984469049794212,0.0
335,0.42260937501471435,0.0
336,0.38311706488996666,0.0
337,0.39404302695930254,0.0
338,0.4069317457470214,0.0
339,0.44700357158778703,0.0
340,0.7171403969307854,0.0
341,3.9014283747108305,0.0
342,7.250607038544075,0.0
343,-0.04121716222084071,0.0
344,-1.4916825466651404,0.0
345,1.918098861231288,0.0
346,-0.26934442882543286,0.0
347,0.5326043618374895,0.0
348,0.4635124278676722,0.0
349,0.3655383521784906,0.0
350,0.3602194247975086,0.0
351,0.4819983764982987,0.0
352,0.4772042635159762,0.0
353,0.34214379643491494,0.0
354,0.30661085114707326,0.0
355,0.39771809480387565,0.0
356,0.46184410004068305,0.0
357,0.36622785457758955,0.0
358,0.38285642210293575,0.0
359,0.37848145807996436,0.0
360,0.6087960645595554,0.0
361,3.919658524005765,0.0
362,7.238545891222053,0.0
363,-0.02589958705155687,0.0
364,-1.5039985849883897,0.0
365,1.833060744337721,0.0
366,-0.41656631313359416,0.0
367,0.4659036687352012,0.0
368,0.37712020705316285,0.0
369,0.32752904867365207,0.0
370,0.37534891190816183,0.0
371,0.36754251092161366,0.0
372,0.3658451763231603,0.0
373,0.4618131560937393,0.0
374,0.3127677317012538,0.0
375,0.27432379827895864,0.0
376,0.39694117033254733,0.0
377,0.29028416616601316,0.0
378,0.43226334677890915,0.0
379,0.30829954455916997,0.0
380,0.6881665683289593,0.0
381,3.9584468408329396,0.0
382,7.189975224545517,0.0
383,0.03014605964920042,0.0
384,-1.534674097465486,0.0
385,1.7008243493001969,0.0
386,-0.36592303222541456,0.0
387,0.4671518918805887,0.0
388,0.34893219494823197,0.0
389,0.31647024704111504,0.0
390,0.3151874942303123,0.0
391,0.2852706756653037,0.0
392,0.379412972642243,0.0
393,0.35661724758728763,0.0
394,0.4486726171714184,0.0
395,0.23746005940135542,0.0
396,0.35156017809820744,0.0
397,0.19638291730968221,0.0
398,0.3821253598658419,0.0
399,0.2510993000470412,0.0
400,0.544562581492159,0.0
401,3.9086228134795102,0.0
402,7.156541267011905,0.0
403,-0.10049833472937264,0.0
404,-1.5995006692930336,0.0
405,1.8232772827702264,0.0
406,-0.41416935906142993,0.0
407,0.3760388568201277,0.0
408,0.26871902276493836,0.0
409,0.29325727774619137,0.0
410,0.38594918813883716,0.0
411,0.20605577223729407,0.0
412,0.27920446128454324,0.0
413,0.19014232879203882,0.0
414,0.3019237314294474,0.0
415,0.26963870830537334,0.0
416,0.29816145262459287,0.0
417,0.21316972982645827,0.0
418,0.19164684517533634,0.0
419,0.2775464315643787,0.0
420,0.5766716996826657,0.0
421,3.8641616379972694,0.0
422,7.075310307123357,0.0
423,-0.06453845096795047,0.0
424,-1.6475158101264853,0.0
425,1.7697922170984803,0.0
426,-0.4933448672118582,0.0
427,0.3232562884392802,0.0
428,0.15557752426142216,0.0
429,0.1732030066812614,0.0
430,0.22205431026466727,0.0
431,0.21430209982176,0.0
432,0.0921519398735963,0.0
433,0.11133772948052115,0.0
434,0.23173100620354992,0.0
435,0.2356963451116665,0.0
436,0.19393597288265113,0.0
437,0.24028094644410833,0.0
438,0.22825123464054384,0.0
439,0.12638313853696226,0.0
440,0.49385876762235,0.0
441,3.83250226392217,0.0
442,7.161028178191618,0.0
443,-0.05523481729347046,0.0
444,-1.7261796706510366,0.0
445,1.6863544480262056,0.0
446,-0.5908679599920706,0.0
447,0.24406798969519272,0.0
448,0.2117287897021231,0.0
449,0.1753523825945527,0.0
450,0.21493079453616842,0.0
451,0.16454376088143663,0.0
452,0.17476828932102864,0.0
453,0.1535810785234712,0.0
454,0.1539338530252099,0.0
455,0.16959646582982757,0.0
456,0.16562060088125227,0.0
457,0.1540482511952055,0.0
458,0.1340556789835694,0.0
459,0.1572618012297269,0.0
460,0.49261487123047054,0.0
461,3.741004946038836,0.0
462,6.984917794378292,0.0
463,-0.2248081936494164,0.0
464,-1.7040246116797544,0.0
465,1.7528642973542163,0.0
466,-0.5437295712465454,0.0
467,0.19281762034901112,0.0
468,0.22738732952787355,0.0
469,0.12412414743533753,0.0
470,0.21117834961829302,0.0
471,0.098382135338864,0.0
472,0.08770303853438317,0.0
473,0.21597663442170212,0.0
474,0.17146406109642592,0.0
475,0.20717620694443795,0.0
476,0.055610244476816555,0.0
477,0.17727308317879348,0.0
478,0.1561846204616966,0.0
479,0.12673529063292477,0.0
480,0.48835566204397085,0.0
481,3.6711191517432953,0.0
482,6.975675476282315,0.0
483,-0.3320627999073193,0.0
484,-1.7582370488324146,0.0
485,1.6740672364662705,0.0
486,-0.6962965926975633,0.0
487,0.25345551699694063,0.0
488,0.21695613060621116,0.0
489,0.0006168623612965805,0.0
490,0.1650200018828421,0.0
491,0.07602457094002169,0.0
492,0.05377688593022471,0.0
493,0.04441347266052642,0.0
494,0.003059266427719226,0.0
495,0.12260152305386937,0.0
496,0.0193123882531807,0.0
497,0.09307617429508674,0.0
498,0.08792012146597361,0.0
499,0.0713911013119135,0.0
500,0.31780797575474873,0.0
501,3.592505656739005,0.0
502,7.011417809704242,0.0
503,-0.3083232067572164,0.0
504,-1.8933132287643608,0.0
505,1.595802612998221,0.0
506,-0.7216907409688249,0.0
507,0.30399062202864513,0.0
508,0.01286826170508397,0.0
509,-0.045080779276804255,0.0
510,0.11655297891449881,0.0
511,0.015343662474200576,0.0
512,0.07775856045678065,0.0
513,-0.030013937667327933,0.0
514,-0.03979647599825663,0.0
515,0.0719170476769423,0.0
516,0.04352048352570317,0.0
517,0.02554962303775525,0.0
518,0.003972180123287837,0.0
519,-0.018904563176319188,0.0
520,0.24538503198218936,0.0
521,3.495400442247289,0.0
522,6.751526012406991,0.0
523,-0.4379812275803904,0.0
524,-1.8887177722601192,0.0
525,1.4893286163930173,0.0
526,-0.7602599062826043,0.0
527,0.12544152545962944,0.0
528,0.02382801761793288,0.0
529,-0.07326581747878547,0.0
530,0.001994469091582629,0.0
531,-0.059477063557304075,0.0
532,-0.10499022503570457,0.0
533,-0.15946612229486612,0.0
534,0.05265368091613777,0.0
535,-0.08360592294599539,0.0
536,-0.006600330405171571,0.0
537,0.016253766462711212,0.0
538,-0.06268396001856501,0.0
539,-0.1314314679379175,0.0
540,0.1830206960829948,0.0
541,3.497544068505909,0.0
542,6.914318421133105,0.0
543,-0.49168575598216757,0.0
544,-1.9833025847270922,0.0
545,1.443483710831379,0.0
546,-0.7225695939906371,0.0
547,0.06649088682333852,0.0
548,-0.10108675824593645,0.0
549,-0.13927164238812623,0.0
550,-0.1476496418315724,0.0
551,-0.2219298732255021,0.0
552,-0.12135990476537803,0.0
553,-0.062395659790210264,0.0
554,-0.09527231720819294,0.0
555,-0.1418092146541229,0.0
556,-0.08555910755286629,0.0
557,-0.17565509528730197,0.0
558,-0.13277093670174658,0.0
559,-0.16704625163492448,0.0
560,0.018268343605094328,0.0
561,3.3328626502872405,0.0
562,6.684953779166286,0.0
563,-0.5270062492061398,0.0
564,-1.9959652676071276,0.0
565,1.3523161269428663,0.0
566,-0.9171710239784919,0.0
567,-0.09450548643427031,0.0
568,-0.1542972914583035,0.0
569,-0.20943216169491072,0.0
570,-0.08298144152851682,0.0
571,-0.3010705358920864,0.0
572,-0.17858650546981267,0.0
573,-0.1623977181099234,0.0
574,-0.20872762834833078,0.0
575,-0.15885376708935442,0.0
576,-0.3025350660905268,0.0
577,-0.2655698650286969,0.0
578,-0.22944086347350334,0.0
579,-0.19882258615029652,0.0
580,0.006579581209026686,0.0
581,3.3315073484545525,0.0
582,6.679463987728394,0.0
583,-0.7860382484894982,0.0
584,-2.069427320663541,0.0
585,1.3284450364596685,0.0
586,-1.0377663198540668,0.0
587,-0.04432879483108709,0.0
588,-0.19149725976778123,0.0
589,-0.35045275189079544,0.0
590,-0.21190510799855947,0.0
591,-0.22874585620199644,0.0
592,-0.2804109018018344,0.0
593,-0.29579543151075555,0.0
594,-0.2985912865847658,0.0
595,-0.34937484395886864,0.0
596,-0.31061700415602866,0.0
597,-0.33459746941955776,0.0
598,-0.40443469786609804,0.0
599,-0.360799268282464,0.0
600,-0.05020909029311113,0.0
601,3.255529011191753,0.0
602,6.548563568349777,0.0
603,-0.8403645116608363,0.0
604,-2.2359199948937887,0.0
605,1.139699784498345,0.0
606,-1.0043156057364513,0.0
607,-0.22334881242301485,0.0
608,-0.38777956266303104,0.0
609,-0.4646909601053626,0.0
610,-0.3186070412120932,0.0
611,-0.4685022904110348,0.0
612,-0.40055919790611666,0.0
613,-0.33665888507660785,0.0
614,-0.3218361814283341,0.0
615,-0.24087254358364485,0.0
616,-0.43950884891521197,0.0
617,-0.2926410410177449,0.0
618,-0.4747213202203152,0.0
619,-0.3538242812921432,0.0
620,-0.05982872990821986,0.0
621,3.225725963177177,0.0
622,6.474236751993489,0.0
623,-0.8316888699645932,0.0
624,-2.229166749980165,0.0
625,1.252309074487357,0.0
626,-1.1196506559655652,0.0
627,-0.3535365684577908,0.0
628,-0.269364865014055,0.0
629,-0.33046257647280175,0.0
630,-0.4424944050115618,0.0
631,-0.5021491368654181,0.0
632,-0.43063722772650237,0.0
633,-0.42964667995232625,0.0
634,-0.43899518648410896,0.0
635,-0.3084922720471671,0.0
636,-0.5278769340657162,0.0
637,-0.41099824957102016,0.0
638,-0.49219263948403996,0.0
639,-0.44871596560389054,0.0
640,-0.08174365743606843,0.0
641,3.1784806548582525,0.0
642,6.485410222759047,0.0
643,-0.8684290691144179,0.0
644,-2.2265091876269163,0.0
645,1.1909502931986873,0.0
646,-1.0938074954674175,0.0
647,-0.2401279885147562,0.0
648,-0.44154065803685094,0.0
649,-0.38037129212199217,0.0
650,-0.41126991693520815,0.0
651,-0.41882061014935135,0.0
652,-0.39041712560139435,0.0
653,-0.4507162186420575,0.0
654,-0.4071090784278868,0.0
655,-0.4399801937904228,0.0
656,-0.37290511011259486,0.0
657,-0.47150082600700904,0.0
658,-0.43366949935690574,0.0
659,-0.3839321663111037,0.0
660,-0.11889114755507346,0.0
661,3.188487573024977,0.0
662,6.399161096087975,0.0
663,-0.798276607288402,0.0
664,-2.3279068137830596,0.0
665,1.1897434225963786,0.0
666,-1.1680187659295511,0.0
667,-0.2425828714395592,0.0
668,-0.3157870191189077,0.0
669,-0.5095341475395375,0.0
670,-0.3159438534753892,0.0
671,-0.43369723652648573,0.0
672,-0.4302017495204105,0.0
673,-0.3732661779168823,0.0
674,-0.4593760421759483,0.0
675,-0.38243174115274586,0.0
676,-0.40228991989562934,0.0
677,-0.37712888576821635,0.0
678,-0.3980257852945695,0.0
679,-0.4213767629276076,0.0
680,-0.074279833689325,0.0
681,3.2119701682662147,0.0
682,6.495856055160743,0.0
683,-0.8495228952118594,0.0
684,-2.149262459075448,0.0
685,1.0994898123362207,0.0
686,-1.0240143240327384,0.0
687,-0.26387638925092405,0.0
688,-0.5401747111981611,0.0
689,-0.5886635027388311,0.0
690,-0.3563984930322446,0.0
691,-0.39635547303272944,0.0
692,-0.4757311159691209,0.0
693,-0.44332631063086975,0.0
694,-0.3545711444373733,0.0
695,-0.3096475977844159,0.0
696,-0.3904713829653617,0.0
697,-0.3331422483230947,0.0
698,-0.4282206305136774,0.0
699,-0.27628668365024117,0.0
700,-0.048992054533523954,0.0
701,3.261912457414958,0.0
702,6.446988535287606,0.0
703,-0.8688829487974455,0.0
704,-2.2819234678641283,0.0
705,1.0920616390970874,0.0
706,-1.1930646102352385,0.0
707,-0.159822558138733,0.0
708,-0.32413409486826444,0.0
709,-0.5385757213180455,0.0
710,-0.4083707760127159,0.0
711,-0.3690186387252085,0.0
712,-0.4279215669238787,0.0
713,-0.4283213347195213,0.0
714,-0.3848406960921245,0.0
715,-0.4257183897758994,0.0
716,-0.49768805763552504,0.0
717,-0.33983997763564044,0.0
718,-0.501556032962477,0.0
719,-0.44462714446983054,0.0
720,-0.235032980787028,0.0
721,3.070451373598382,0.0
722,6.466520645962116,0.0
723,-0.7522681023292499,0.0
724,-2.325156718591359,0.0
725,1.1555299431642183,0.0
726,-1.1666678768722007,0.0
727,-0.22732588504261422,0.0
728,-0.45039351824992735,0.0
729,-0.5478415984253985,0.0
730,-0.49847616748853085,0.0
731,-0.4696673979560928,0.0
732,-0.4010576813229506,0.0
733,-0.5071002916802657,0.0
734,-0.4261324968829451,0.0
735,-0.4440256681813707,0.0
736,-0.4479461406887802,0.0
737,-0.5409000985379068,0.0
738,-0.47041470529677587,0.0
739,-0.3995008714804689,0.0
740,-0.06837630511380777,0.0
741,3.1794741679979954,0.0
742,6.340288123376851,0.0
743,-0.9198677799366597,0.0
744,-2.284947970754745,0.0
745,1.0643204819056569,0.0
746,-1.2273110867286996,0.0
747,-0.31511782981921443,0.0
748,-0.4790878220645799,0.0
749,-0.5776042313164013,0.0
750,-0.5407304467049134,0.0
751,-0.5522492746285197,0.0
752,-0.4896571125801632,0.0
753,-0.45015292008376656,0.0
754,-0.4220878332330346,0.0
755,-0.5687480981146558,0.0
756,-0.47199640604582427,0.0
757,-0.49870136601663667,0.0
758,-0.4790482238852757,0.0
759,-0.5155676996491833,0.0
760,-0.15706344265970829,0.0
761,3.0234964244846623,0.0
762,6.311410067929623,0.0
763,-0.859091162843244,0.0
764,-2.395059828953828,0.0
765,0.9651220773927947,0.0
766,-1.2898215269052722,0.0
767,-0.3761816854954007,0.0
768,-0.4384013983671049,0.0
769,-0.6221610827227051,0.0
770,-0.41446475657848025,0.0
771,-0.5087435531496028,0.0
772,-0.41237288756132584,0.0
773,-0.4780400479283869,0.0
774,-0.48688375298128495,0.0
775,-0.4188096786657439,0.0
776,-0.4784163274561066,0.0
777,-0.4426923859374,0.0
778,-0.49938143032945176,0.0
779,-0.37709131832694454,0.0
780,-0.25868937592316976,0.0
781,3.267348911556685,0.0
782,6.376273945350098,0.0
783,-0.8925068040907598,0.0
784,-2.215503112954423,0.0
785,0.9833283541753761,0.0
786,-1.1973112600048668,0.0
787,-0.41031807750171057,0.0
788,-0.4811586253107607,0.0
789,-0.5047172673501432,0.0
790,-0.3683746480167197,0.0
791,-0.4867744584541711,0.0
792,-0.4804765748875744,0.0
793,-0.41010647982177256,0.0
794,-0.5462198658359568,0.0
795,-0.4892626856976346,0.0
796,-0.3734828896127091,0.0
797,-0.39891763819498777,0.0
798,-0.4935764108393086,0.0
799,-0.5080668990040087,0.0
800,-0.1633022403638245,0.0
801,3.226293193915824,0.0
802,6.313414685419369,0.0
803,-0.9565666240958557,0.0
804,-2.2597642748676514,0.0
805,1.0756770032908376,0.0
806,-1.2127634862857537,0.0
807,-0.2806262903523145,0.0
808,-0.40451476927676944,0.0
809,-0.5303494084541389,0.0
810,-0.37689005850642865,0.0
811,-0.5607763742848172,0.0
812,-0.490920637627412,0.0
813,-0.4651589214186424,0.0
814,-0.48813514772730815,0.0
815,-0.4552417812468073,0.0
816,-0.47070835545871753,0.0
817,-0.3879070052611148,0.0
818,-0.35533778603271293,0.0
819,-0.4749647075412325,0.0
820,-0.16456933005268154,0.0
821,3.243837019453588,0.0
822,6.395896170253973,0.0
823,-0.8664114368785938,0.0
824,-2.30574989197299,0.0
825,1.1628232511807584,0.0
826,-1.3222122851333755,0.0
827,-0.2927498379870189,0.0
828,-0.4751915425076296,0.0
829,-0.37672959849032883,0.0
830,-0.48578540167855316,0.0
831,-0.375481942907342,0.0
832,-0.4904057181165246,0.0
833,-0.405586484782758,0.0
834,-0.45913164390013284,0.0
835,-0.36551631089269393,0.0
836,-0.38233307329891014,0.0
837,-0.3308441238242545,0.0
838,-0.39382228155079857,0.0
839,-0.36039185514611327,0.0
840,-0.159568159363302,0.0
841,3.244217050482977,0.0
842,6.4824723352493345,0.0
843,-0.8593467601376984,0.0
844,-2.1216685593075755,0.0
845,1.18151375853613,0.0
846,-1.2285414393508747,0.0
847,-0.22851873089502792,0.0
848,-0.3163480125403168,0.0
849,-0.4886874572373148,0.0
850,-0.36006473263068073,0.0
851,-0.32666334625806215,0.0
852,-0.39707814808347647,0.0
853,-0.45049339718052067,0.0
854,-0.3637268640616257,0.0
855,-0.4147487566286735,0.0
856,-0.3840331080917395,0.0
857,-0.403079616216421,0.0
858,-0.39000278069573413,0.0
859,-0.4787101497325716,0.0
860,-0.14312520731949652,0.0
861,3.231568129332274,0.0
862,6.501028099902907,0.0
863,-0.8557052940310979,0.0
864,-2.2779203400098424,0.0
865,1.1823844927037919,0.0
866,-1.1278211989533908,0.0
867,-0.24240627468814657,0.0
868,-0.32959656321133046,0.0
869,-0.48666929581344115,0.0
870,-0.36134165256999684,0.0
871,-0.381250355963293,0.0
872,-0.39905120496393776,0.0
873,-0.3430148442254536,0.0
874,-0.40568050905791186,0.0
875,-0.306415911277344,0.0
876,-0.35894925579522957,0.0
877,-0.1592087153858259,0.0
878,-0.3425912436994457,0.0
879,-0.26973245630950915,0.0
880,0.05532359450267782,0.0
881,3.355115363617525,0.0
882,6.644283044048431,0.0
883,-0.7664062490548711,0.0
884,-2.187095840867031,0.0
885,1.1980779611973125,0.0
886,-1.0622814288024338,0.0
887,-0.05798576949481837,0.0
888,-0.4049010064029945,0.0
889,-0.22806498315060972,0.0
890,-0.2256886372550576,0.0
891,-0.2778016465441662,0.0
892,-0.28382554322906833,0.0
893,-0.351355548648758,0.0
894,-0.37606052683818514,0.0
895,-0.07778149045249265,0.0
896,-0.30962197850457945,0.0
897,-0.2389713593366574,0.0
898,-0.3331797330540686,0.0
899,-0.2195594992821529,0.0
900,0.07570301669613017,0.0
901,3.417669553412548,0.0
902,6.6181763858656835,0.0
903,-0.7746560321193712,0.0
904,-2.103770814943277,0.0
905,1.2286025746578262,0.0
906,-0.9809212038800688,0.0
907,-0.08581695661795788,0.0
908,-0.2802815703680395,0.0
909,-0.25846462263466374,0.0
910,-0.26070991598105825,0.0
911,-0.28718477220428784,0.0
912,-0.2713976928631585,0.0
913,-0.18864222841770678,0.0
914,-0.18173685729237044,0.0
915,-0.26279851447802494,0.0
916,-0.1980288345832525,0.0
917,-0.20227673525896073,0.0
918,-0.24494134337889267,0.0
919,-0.14517117248296452,0.0
920,0.0775149809764174,0.0
921,3.489169775580753,0.0
922,6.674397174395758,0.0
923,-0.6765071887595976,0.0
924,-2.064573941886141,0.0
925,1.3370760588567667,0.0
926,-0.8554507971510027,0.0
927,-0.0003754217444179031,0.0
928,-0.06671134107850835,0.0
929,-0.22778535887200313,0.0
930,-0.27429786360897623,0.0
931,-0.12548271911154157,0.0
932,-0.1539935383434523,0.0
933,-0.17389781903136486,0.0
934,-0.0891248408861667,0.0
935,-0.1742110865359044,0.0
936,-0.1628904754408139,0.0
937,-0.11274516736654075,0.0
938,-0.14651063321734686,0.0
939,-0.14169388074943265,0.0
940,0.13519827207772483,0.0
941,3.556660717846485,0.0
942,6.656640548423144,0.0
943,-0.6892851552007602,0.0
944,-1.9414130043046207,0.0
945,1.468985416085833,0.0
946,-0.9354483766266597,0.0
947,0.08472832218509559,0.0
948,-0.13852456726521672,0.0
949,-0.08294671193706699,0.0
950,-0.14777634456034427,0.0
951,-0.08899587795765723,0.0
952,-0.12441182070066012,0.0
953,-0.2325960814416421,0.0
954,-0.17646328516588583,0.0
955,-0.05603107401857395,0.0
956,-0.13473843382709233,0.0
957,-0.14872616759101803,0.0
958,-0.11659213809997837,0.0
959,-0.19225967255511217,0.0
960,0.27256501859836335,0.0
961,3.5957513854162726,0.0
962,6.739615807957268,0.0
963,-0.5634006583142401,0.0
964,-1.8884334392200206,0.0
965,1.4935563984448899,0.0
966,-0.7977769933412153,0.0
967,0.14635194597542026,0.0
968,-0.015070850575845646,0.0
969,-0.12534509870227512,0.0
970,0.07017752829917932,0.0
971,-0.05015744937792799,0.0
972,-0.0478375478958345,0.0
973,0.09485502344335604,0.0
974,-0.04922530744709126,0.0
975,0.007868628574751776,0.0
976,0.057641586194494325,0.0
977,-0.03354650505276843,0.0
978,-0.018522588693466527,0.0
979,-0.019513909672583138,0.0
980,0.26613263052922725,0.0
981,3.6753255146322887,0.0
982,6.8684326896446075,0.0
983,-0.5188647826990906,0.0
984,-1.837500467147458,0.0
985,1.5477192950721135,0.0
986,-0.5587570989364681,0.0
987,0.2093043317902885,0.0
988,-0.02776859726067822,0.0
989,0.006025253920212085,0.0
990,0.05800356307481186,0.0
991,0.03210806292465396,0.0
992,0.057378578616468556,0.0
993,0.02099687070756344,0.0
994,0.011226785875691168,0.0
995,0.047482074535613324,0.0
996,0.018807099689309416,0.0
997,-0.10131014208458805,0.0
998,0.06793991778579808,0.0
999,-0.056004970256959455,0.0
1000,0.3559131344580003,0.0
1001,3.684961740649679,0.0
1002,6.9177073852890185,0.0
1003,-0.5221872358570027,0.0
1004,-1.7942100805029229,0.0
1005,1.5471921768436712,0.0
1006,-0.7675566774504743,0.0
1007,0.12413455283807974,0.0
1008,0.09042721912479076,0.0
1009,0.03783041355315274,0.0
1010,0.0950484232674356,0.0
1011,-0.032333508805583,0.0
1012,0.09941733142051457,0.0
1013,0.019542824447167265,0.0
1014,0.07216524171758382,0.0
1015,0.040971813023126885,0.0
1016,0.14975965110783904,0.0
1017,0.0867321216676735,0.0
1018,-0.0007860448103708135,0.0
1019,0.014999682819468233,0.0
1020,0.46937285307934373,0.0
1021,3.705368310168949,0.0
1022,6.875812217800373,0.0
1023,-0.4788106581148032,0.0
1024,-1.6714978306370456,0.0
1025,1.6393768466646466,0.0
1026,-0.7080317938211463,0.0
1027,0.29481819328933195,0.0
1028,0.1288350947323333,0.0
1029,0.04282901240922552,0.0
1030,0.14794558386336537,0.0
1031,0.1271495905618437,0.0
1032,0.08373101840795001,0.0
1033,0.11035066759088524,0.0
1034,0.07257205272881362,0.0
1035,0.13074367181485472,0.0
1036,0.12277437863892131,0.0
1037,0.15872128564599802,0.0
1038,0.0285054734741775,0.0
1039,0.137377167235699,0.0
1040,0.4719402054219549,0.0
1041,3.7910342984236465,0.0
1042,6.9167806823177465,0.0
1043,-0.3445467057531244,0.0
1044,-1.624126767331141,0.0
1045,1.7094739058316766,0.0
1046,-0.5981355468447229,0.0
1047,0.29334845707150314,0.0
1048,0.15149651837841538,0.0
1049,0.025808968889274447,0.0
1050,0.06345384549961636,0.0
1051,0.11091357321914236,0.0
1052,0.11873265392743146,0.0
1053,0.18912174375782775,0.0
1054,0.043629786054456776,0.0
1055,0.19204295554727333,0.0
1056,0.18179025413387842,0.0
1057,0.1768712461978923,0.0
1058,0.1541899685832668,0.0
1059,0.19400716057587714,0.0
1060,0.5332225543126896,0.0
1061,3.9160351463307226,0.0
1062,7.077782814365612,0.0
1063,-0.30421945511737114,0.0
1064,-1.6396130991048798,0.0
1065,1.7877384447761426,0.0
1066,-0.5780584232283756,0.0
1067,0.40939522971971254,0.0
1068,0.23103227550024075,0.0
1069,0.17166093282052403,0.0
1070,0.3008122503388765,0.0
1071,0.32036810900133933,0.0
1072,0.15036329913812843,0.0
1073,0.16165666200072146,0.0
1074,0.2122859206978561,0.0
1075,0.1987682400162454,0.0
1076,0.08987972303879743,0.0
1077,0.1352619131297219,0.0
1078,0.1794297305526507,0.0
1079,0.17457878774278962,0.0
1080,0.44684814884968804,0.0
1081,3.823738777424767,0.0
1082,6.927809039302172,0.0
1083,-0.40859340133978295,0.0
1084,-1.5994423501433839,0.0
1085,1.8034771520738406,0.0
1086,-0.5867269814156714,0.0
1087,0.25087739690225425,0.0
1088,0.1328964739261475,0.0
1089,0.11196963881872292,0.0
1090,0.35924294276175595,0.0
1091,0.25527029597417594,0.0
1092,0.33872650677917615,0.0
1093,0.28342675614145085,0.0
1094,0.33239056845291487,0.0
1095,0.23858546348524948,0.0
1096,0.3133553983553714,0.0
1097,0.2734311897495748,0.0
1098,0.33640722890483354,0.0
1099,0.20450392013251095,0.0
1100,0.6713726696545922,0.0
1101,3.931745275060728,0.0
1102,7.087283526441767,0.0
1103,-0.20841253657331038,0.0
1104,-1.5258567332617776,0.0
1105,1.7921004141511694,0.0
1106,-0.3996894195626108,0.0
1107,0.5155003946908391,0.0
1108,0.3606225177905762,0.0
1109,0.28906100140875735,0.0
1110,0.37132134727079,0.0
1111,0.29355696666045117,0.0
1112,0.30328462347718166,0.0
1113,0.31262713604932263,0.0
1114,0.2880839364500236,0.0
1115,0.2719059527136885,0.0
1116,0.40516226195455857,0.0
1117,0.30545621313546517,0.0
1118,0.2990078606164212,0.0
1119,0.3218432037755478,0.0
1120,0.728624741240574,0.0
1121,4.021386482398188,0.0
1122,7.104766594205129,0.0
1123,-0.1915757893181338,0.0
1124,-1.3868604851044806,0.0
1125,1.8873958681136274,0.0
1126,-0.2755132098471494,0.0
1127,0.4563419107164224,0.0
1128,0.4942621891332681,0.0
1129,0.18189614078483868,0.0
1130,0.4477831910868142,0.0
1131,0.36118955829167493,0.0
1132,0.4221440741299216,0.0
1133,0.4645782665107905,0.0
1134,0.32336138729693903,0.0
1135,0.39473654038173694,0.0
1136,0.4055550179286032,0.0
1137,0.4553768497017617,0.0
1138,0.4430211275473427,0.0
1139,0.4194587490398638,0.0
1140,0.7753145319394745,0.0
1141,4.195229108949858,0.0
1142,7.235678347544588,0.0
1143,-0.0762385953896848,0.0
1144,-1.3433868500815958,0.0
1145,2.0015991737712615,0.0
1146,-0.32932169578296044,0.0
1147,0.6313633021581784,0.0
1148,0.39770095733864513,0.0
1149,0.3222375611437551,0.0
1150,0.46297040632785474,0.0
1151,0.42189961619818567,0.0
1152,0.3624402028434258,0.0
1153,0.3789925692448655,0.0
1154,0.35991378848461825,0.0
1155,0.3678388531673048,0.0
1156,0.40257054212612947,0.0
1157,0.3908683626417681,0.0
1158,0.40195755095178315,0.0
1159,0.3049316881254517,0.0
1160,0.6725281102426942,0.0
1161,4.208813531051649,0.0
1162,7.231757636041213,0.0
1163,-0.11045149260502601,0.0
1164,-1.2894025899196468,0.0
1165,2.036857089584865,0.0
1166,-0.39438427083913813,0.0
1167,0.5544468711161008,0.0
1168,0.3960793082788048,0.0
1169,0.35041914315012634,0.0
1170,0.5281456246440899,0.0
1171,0.41140537336161576,0.0
1172,0.36318114048182715,0.0
1173,0.40127541817588475,0.0
1174,0.4676723177179629,0.0
1175,0.4123079290130077,0.0
1176,0.4804305168952379,0.0
1177,0.3645302730836502,0.0
1178,0.4326251783021389,0.0
1179,0.5248634362100218,0.0
1180,0.7286757517670134,0.0
1181,4.164445126386922,0.0
1182,7.24379089898598,0.0
1183,-0.1764869202957281,0.0
1184,-1.1945479285286007,0.0
1185,2.0775081744986155,0.0
1186,-0.2531903330069863,0.0
1187,0.7574118810222055,0.0
1188,0.45665066558870426,0.0
1189,0.4513368599720045,0.0
1190,0.5156585992936703,0.0
1191,0.4463602463017409,0.0
1192,0.41955532042943106,0.0
1193,0.47734133924387095,0.0
1194,0.4586904350401295,0.0
1195,0.3092366115259717,0.0
1196,0.4817474182248699,0.0
1197,0.4805722593238729,0.0
1198,0.4681694321244686,0.0
1199,0.4989364374647014,0.0
1200,0.9171866717849841,0.0
1201,4.108182423232725,0.0
1202,7.159679383948259,0.0
1203,-0.19538173031625933,0.0
1204,-1.212265527740563,0.0
1205,2.0266816284004445,0.0
1206,-0.295162894069038,0.0
1207,0.6318362740029798,0.0
1208,0.40893782982130206,0.0
1209,0.42446695037198406,0.0
1210,0.5427316965539618,0.0
1211,0.3691565755703659,0.0
1212,0.4680768230056789,0.0
1213,0.3997669861705109,0.0
1214,0.5545675912725083,0.0
1215,0.43845887984592535,0.0
1216,0.45818266002816727,0.0
1217,0.4349115323499717,0.0
1218,0.4028450233735823,0.0
1219,0.450971215338828,0.0
1220,0.8308486990463358,0.0
1221,4.1420218989398565,0.0
1222,7.336964854582684,0.0
1223,-0.07452744085271323,0.0
1224,-1.1438396928967567,0.0
1225,2.0003626304300846,0.0
1226,-0.2433177276692683,0.0
1227,0.6648245771743767,0.0
1228,0.5095826325501809,0.0
1229,0.42205818756226693,0.0
1230,0.4680092302992765,0.0
1231,0.5970489241682025,0.0
1232,0.401925992236726,0.0
1233,0.37451072724375317,0.0
1234,0.5501653399502071,0.0
1235,0.5217492330226783,0.0
1236,0.5150329793218912,0.0
1237,0.4763802846779283,0.0
1238,0.343306324199494,0.0
1239,0.5027954995946697,0.0
1240,0.7650838423013369,0.0
1241,4.168052335018688,0.0
1242,7.219474915390496,0.0
1243,-0.1612996403719712,0.0
1244,-1.2869114634736913,0.0
1245,2.001602294396618,0.0
1246,-0.40019128583664415,0.0
1247,0.6501240352452686,0.0
1248,0.4513258963464133,0.0
1249,0.39806055574664023,0.0
1250,0.5236396244550083,0.0
1251,0.4778680276005267,0.0
1252,0.436744003029662,0.0
1253,0.45647816639810646,0.0
1254,0.4883061090886298,0.0
1255,0.42900054295462053,0.0
1256,0.3857382468766757,0.0
1257,0.3770680788040215,0.0
1258,0.3535315707155603,0.0
1259,0.4056624786724924,0.0
1260,0.6060873115020026,0.0
1261,4.178737447473574,0.0
1262,7.246435965136065,0.0
1263,-0.17547254137732865,0.0
1264,-1.297285981238438,0.0
1265,1.9541319059122397,0.0
1266,-0.34562236783064865,0.0
1267,0.6683429916842668,0.0
1268,0.5733570076447789,0.0
1269,0.4397016324508695,0.0
1270,0.4542875216247156,0.0
1271,0.4997432160122441,0.0
1272,0.4396229612463356,0.0
1273,0.5751777372598977,0.0
1274,0.5895673190798417,0.0
1275,0.5305504529512463,0.0
1276,0.5082683643301041,0.0
1277,0.4965652051286688,0.0
1278,0.6070764518475323,0.0
1279,0.6296793996424449,0.0
1280,0.7975364725259376,0.0
1281,4.338800843680787,0.0
1282,7.2931870417710325,0.0
1283,-0.026680975244460448,0.0
1284,-1.3023611633054042,0.0
1285,2.0600802949630688,0.0
1286,-0.4211412912596764,0.0
1287,0.7043834549960515,0.0
1288,0.49442544253140464,0.0
1289,0.38202660146164835,0.0
1290,0.47827247524139255,0.0
1291,0.5659733461973361,0.0
1292,0.4283665183055766,0.0
1293,0.5076316784297368,0.0
1294,0.5104516077494521,0.0
1295,0.5607192618893465,0.0
1296,0.405669049719517,0.0
1297,0.5136555482249919,0.0
1298,0.5637493582488833,0.0
1299,0.4678165325490537,0.0
1300,0.8890422969132565,0.0
1301,4.099167087728465,0.0
1302,7.248102642651963,0.0
1303,-0.11664760578648792,0.0
1304,-1.3052693403512903,0.0
1305,1.9937239083668252,0.0
1306,-0.3463402435489953,0.0
1307,0.7220309624756223,0.0
1308,0.5748661041230926,0.0
1309,0.4100310162954002,0.0
1310,0.471837579712416,0.0
1311,0.4483681012246999,0.0
1312,0.4269816531821496,0.0
1313,0.4946715416261217,0.0
1314,0.31742216148761404,0.0
1315,0.4850951583504616,0.0
1316,0.486611260307714,0.0
1317,0.582507144763792,0.0
1318,0.5292112121378747,0.0
1319,0.4266423022002859,0.0
1320,0.7577234912815425,0.0
1321,4.107244864075063,0.0
1322,7.252241050714053,0.0
1323,-0.216277843772762,0.0
1324,-1.227128767377941,0.0
1325,1.9342755771469875,0.0
1326,-0.409380357928385,0.0
1327,0.5367234426982311,0.0
1328,0.4082525234988886,0.0
1329,0.3227012946867053,0.0
1330,0.4158024894550547,0.0
1331,0.229867808141009,0.0
1332,0.40477585111801184,0.0
1333,0.4266368196895698,0.0
1334,0.4085473147522069,0.0
1335,0.36296316582673693,0.0
1336,0.4665004208330848,0.0
1337,0.3342459404769218,0.0
1338,0.4073840113319181,0.0
1339,0.4526938505071706,0.0
1340,0.726740812601578,0.0
1341,4.06723240268762,0.0
1342,7.234838521260085,0.0
1343,-0.22490658623372978,0.0
1344,-1.2792089546945793,0.0
1345,1.9740291724850967,0.0
1346,-0.31289371818203804,0.0
1347,0.5622997990832359,0.0
1348,0.25645644760023756,0.0
1349,0.2681948921736274,0.0
1350,0.46203673260620154,0.0
1351,0.38074647406703627,0.0
1352,0.42962666228247276,0.0
1353,0.35879715799661993,0.0
1354,0.4421025049579797,0.0
1355,0.3274311802787203,0.0
1356,0.33361443094210974,0.0
1357,0.3190049727250165,0.0
1358,0.4851075611850094,0.0
1359,0.3562463122469495,0.0
1360,0.6499493673723511,0.0
1361,4.141597926137227,0.0
1362,7.17875293258381,0.0
1363,-0.20047582356182847,0.0
1364,-1.4265777048799286,0.0
1365,1.7506757136966091,0.0
1366,-0.24541474471658842,0.0
1367,0.5768679940999228,0.0
1368,0.3641990394264682,0.0
1369,0.33571283523823026,0.0
1370,0.44552128089463633,0.0
1371,0.27917940257360735,0.0
1372,0.3011209008395936,0.0
1373,0.4210398684162801,0.0
1374,0.3075831615588147,0.0
1375,0.2815793859020696,0.0
1376,0.27077724219553306,0.0
1377,0.404363792627121,0.0
1378,0.28262785417316444,0.0
1379,0.3445072230125897,0.0
1380,0.7090302957640815,0.0
1381,4.201724052841631,0.0
1382,7.144953510333987,0.0
1383,-0.2493780074173157,0.0
1384,-1.3814128724456118,0.0
1385,1.835220673126452,0.0
1386,-0.481086132334729,0.0
1387,0.5093830158438649,0.0
1388,0.3524651348253314,0.0
1389,0.29815779586783914,0.0
1390,0.35490843936009187,0.0
1391,0.30794167489538593,0.0
1392,0.27012742445364923,0.0
1393,0.23617933219009052,0.0
1394,0.2592774361329821,0.0
1395,0.3126937751315689,0.0
1396,0.38798797743782826,0.0
1397,0.35706931880569615,0.0
1398,0.31457293648112183,0.0
1399,0.27086876153223505,0.0
1400,0.7016761910809627,0.0
1401,4.038512920898264,0.0
1402,7.126479723792814,0.0
1403,-0.3180633178997138,0.0
1404,-1.4837275431726904,0.0
1405,1.8489884014845304,0.0
1406,-0.5588849120848827,0.0
1407,0.47681853902780114,0.0
1408,0.24807830362833788,0.0
1409,0.13977396425601088,0.0
1410,0.27209257561359784,0.0
1411,0.34775555698840677,0.0
1412,0.31937997116034444,0.0
1413,0.34233748794646796,0.0
1414,0.3732096321667106,0.0
1415,0.3178102129423339,0.0
1416,0.2512823804001746,0.0
1417,0.25725299505676663,0.0
1418,0.19522167040146035,0.0
1419,0.11295354644933253,0.0
1420,0.5269720342916104,0.0
1421,3.9452156269636958,0.0
1422,7.091015211929619,0.0
1423,-0.44414584421995074,0.0
1424,-1.5749394272380968,0.0
1425,1.5872387121723028,0.0
1426,-0.6281613163771159,0.0
1427,0.32850684237279376,0.0
1428,0.24042832509965237,0.0
1429,0.23251595765393968,0.0
1430,0.1967753395801481,0.0
1431,0.20231022882975763,0.0
1432,0.1502407465766978,0.0
1433,0.12329586761767194,0.0
1434,0.21069763167764394,0.0
1435,0.07921548582971014,0.0
1436,0.31615317821824734,0.0
1437,0.16669637905462745,0.0
1438,0.19619711105596604,0.0
1439,0.10416062429981694,0.0
1440,0.5064759006739239,0.0
1441,3.9062030050936944,0.0
1442,6.995048163682811,0.0
1443,-0.38339122716187224,0.0
1444,-1.5440866909807127,0.0
1445,1.7044266831816852,0.0
1446,-0.537532195012451,0.0
1447,0.20566003739509428,0.0
1448,0.16192117127757216,0.0
1449,0.10606165748209592,0.0
1450,0.09255346988309934,0.0
1451,0.2335636802857854,0.0
1452,0.1279481446330695,0.0
1453,-0.005781294057575016,0.0
1454,0.2151258124091073,0.0
1455,0.22059834663074274,0.0
1456,0.10602237335679796,0.0
1457,0.17306010311687348,0.0
1458,0.1237263239904205,0.0
1459,0.20366668297732599,0.0
1460,0.5397350005600321,0.0
1461,3.965313965236789,0.0
1462,6.901335460094703,0.0
1463,-0.6057763028272344,0.0
1464,-1.6119262527439107,0.0
1465,1.613398133558477,0.0
1466,-0.6129809906715673,0.0
1467,0.2672236472694378,0.0
1468,0.15084317200042036,0.0
1469,0.08136446848951107,0.0
1470,0.18237460822665497,0.0
1471,0.14850375067251254,0.0
1472,0.08134637964670204,0.0
1473,0.151304983108399,0.0
1474,0.10392123708243553,0.0
1475,0.15077990898929408,0.0
1476,0.0410276458740249,0.0
1477,0.1536692454790501,0.0
1478,0.06402254079503619,0.0
1479,0.03536050825242683,0.0
1480,0.4433575902482251,0.0
1481,3.912139557429625,0.0
1482,6.8999373371300905,0.0
1483,-0.5453827553946243,0.0
1484,-1.6479581049427563,0.0
1485,1.5706151982446177,0.0
1486,-0.6756334473114871,0.0
1487,0.32893917915771376,0.0
1488,0.04484839070172282,0.0
1489,0.05573417234477743,0.0
1490,-0.01364839609058844,0.0
1491,0.12117891406011203,0.0
1492,0.05380163349356609,0.0
1493,-0.03444000099193716,0.0
1494,-0.08761227947838479,0.0
1495,-0.03620393817875858,0.0
1496,-0.0010334734593873338,0.0
1497,-0.02651575295569862,0.0
1498,0.0347672860157605,0.0
1499,0.01844770957035211,0.0
1500,0.34012507713350015,0.0
1501,3.787480997864997,0.0
1502,6.761886222562991,0.0
1503,-0.6217932958975071,0.0
1504,-1.7782489959831778,0.0
1505,1.5080016535188838,0.0
1506,-0.700076737728683,0.0
1507,0.08125325438579122,0.0
1508,-0.01588821711519172,0.0
1509,-0.07105201078278933,0.0
1510,-0.0790815648392961,0.0
1511,-0.01235322002286468,0.0
1512,-0.11451341476480625,0.0
1513,-0.07476143749359518,0.0
1514,-0.07705239875485213,0.0
1515,-0.032272101914054524,0.0
1516,0.03362893604141005,0.0
1517,-0.022236275974911304,0.0
1518,0.06400936512598171,0.0
1519,-0.0771821753469569,0.0
1520,0.2730683756900348,0.0
1521,3.7150732013910557,0.0
1522,6.835949229216304,0.0
1523,-0.8007577848625403,0.0
1524,-1.7959526871054932,0.0
1525,1.4887866595911006,0.0
1526,-0.7602048137885744,0.0
1527,0.09310034302959465,0.0
1528,0.08591299314106647,0.0
1529,-0.08955007438797505,0.0
1530,-0.02187204538482463,0.0
1531,-0.014568321506597377,0.0
1532,-0.037770232530149814,0.0
1533,-0.03749779374934289,0.0
1534,-0.06811833701447635,0.0
1535,-0.12136019089732553,0.0
1536,-0.10315691903302426,0.0
1537,-0.10070251623051171,0.0
1538,-0.09100496477976383,0.0
1539,-0.06526132174795483,0.0
1540,0.26610730306193053,0.0
1541,3.7797902401737407,0.0
1542,6.579130842273858,0.0
1543,-0.7723878565402278,0.0
1544,-1.8406471546283818,0.0
1545,1.302361767831221,0.0
1546,-0.880775235119959,0.0
1547,0.16169887541263883,0.0
1548,-0.22506031392727882,0.0
1549,-0.18201952327506993,0.0
1550,-0.09676596979323975,0.0
1551,-0.16847186067168907,0.0
1552,-0.15804770547177796,0.0
1553,-0.07078716612408256,0.0
1554,-0.16345611834504603,0.0
1555,-0.17843580043596463,0.0
1556,-0.18750307943396466,0.0
1557,-0.2124447377969079,0.0
1558,-0.24836257120488484,0.0
1559,-0.09420681369818479,0.0
1560,0.1607270383971221,0.0
1561,3.577148664263251,0.0
1562,6.578558633788396,0.0
1563,-0.9040825551042732,0.0
1564,-1.926527421441396,0.0
1565,1.3634204831669703,0.0
1566,-0.9475663290086944,0.0
1567,-0.14103427498493,0.0
1568,-0.16726841403380524,0.0
1569,-0.3114357175438457,0.0
1570,-0.16753867288562252,0.0
1571,-0.09818849607943658,0.0
1572,-0.18503085234585132,0.0
1573,-0.23450633498321183,0.0
1574,-0.27092822970981423,0.0
1575,-0.23240474996852226,0.0
1576,-0.1647619198725613,0.0
1577,-0.20642952684956956,0.0
1578,-0.2239102901180162,0.0
1579,-0.11043975029518767,0.0
1580,0.19155229148722572,0.0
1581,3.609082059262181,0.0
1582,6.580578746698725,0.0
1583,-0.954948000871584,0.0
1584,-1.8478626652199754,0.0
1585,1.303433334601763,0.0
1586,-0.9787036521826711,0.0
1587,0.03407631435430308,0.0
1588,-0.1915563257759869,0.0
1589,-0.3384314462683594,0.0
1590,-0.2748285507327167,0.0
1591,-0.3574314640084063,0.0
1592,-0.26192392854595453,0.0
1593,-0.21346445877360376,0.0
1594,-0.23585164426661093,0.0
1595,-0.29757050542398883,0.0
1596,-0.27203648746172926,0.0
1597,-0.25008429893763034,0.0
1598,-0.2586486974699222,0.0
1599,-0.29836085754688524,0.0
1600,0.021056239708943547,0.0
1601,3.4850881331854087,0.0
1602,6.493920113545299,0.0
1603,-1.016322505004041,0.0
1604,-2.086432312200822,0.0
1605,1.252843056992119,0.0
1606,-0.9974357531208726,0.0
1607,-0.2027709403713098,0.0
1608,-0.3648281258045807,0.0
1609,-0.3220599530064423,0.0
1610,-0.19025710226443118,0.0
1611,-0.31432820392711164,0.0
1612,-0.21628298890104536,0.0
1613,-0.33809637473208226,0.0
1614,-0.2599311084936293,0.0
1615,-0.2093926363845287,0.0
1616,-0.3520331734554799,0.0
1617,-0.26841764177205985,0.0
1618,-0.2906657937673565,0.0
1619,-0.30428969478562995,0.0
1620,0.048169524670496344,0.0
1621,3.481910036422899,0.0
1622,6.413360282838979,0.0
1623,-1.0501574458413176,0.0
1624,-2.002274683705165,0.0
1625,1.266217890761426,0.0
1626,-1.013564773074458,0.0
1627,-0.1984491025550917,0.0
1628,-0.29085999322052436,0.0
1629,-0.4118120683325766,0.0
1630,-0.27686849466250935,0.0
1631,-0.37974963449753063,0.0
1632,-0.27611344177347824,0.0
1633,-0.3181644867332067,0.0
1634,-0.23708288151938878,0.0
1635,-0.337167614139576,0.0
1636,-0.17646231136046814,0.0
1637,-0.2951554277656013,0.0
1638,-0.38822916196366986,0.0
1639,-0.45453616878255015,0.0
1640,0.08327912158452433,0.0
1641,3.510659638282451,0.0
1642,6.296897250829484,0.0
1643,-1.109222228003374,0.0
1644,-1.9944967650617942,0.0
1645,1.1230744751039854,0.0
1646,-1.2076682532880367,0.0
1647,-0.24883753794130012,0.0
1648,-0.29377959974797496,0.0
1649,-0.4826509949341939,0.0
1650,-0.4152297826088194,0.0
1651,-0.40826675209521707,0.0
1652,-0.3353481380037032,0.0
1653,-0.32874813347612764,0.0
1654,-0.3660566284281282,0.0
1655,-0.5075321227321218,0.0
1656,-0.43945375831795086,0.0
1657,-0.4207211472850034,0.0
1658,-0.48980058613159655,0.0
1659,-0.294621628936083,0.0
1660,-0.04108993300972824,0.0
1661,3.408315639143752,0.0
1662,6.373533313196547,0.0
1663,-1.100902527485743,0.0
1664,-1.9356206404353642,0.0
1665,1.2161663825917843,0.0
1666,-1.17563145110683,0.0
1667,-0.16667942326249607,0.0
1668,-0.26963801692864414,0.0
1669,-0.4379692041768627,0.0
1670,-0.3805735715640965,0.0
1671,-0.4293565049057686,0.0
1672,-0.33722950540348834,0.0
1673,-0.4637844951034651,0.0
1674,-0.450136253436327,0.0
1675,-0.42377490613477886,0.0
1676,-0.3436633364164676,0.0
1677,-0.34069717783170683,0.0
1678,-0.3843556124841543,0.0
1679,-0.3930600611470148,0.0
1680,0.07914349222754641,0.0
1681,3.5512171628708638,0.0
1682,6.349282214312285,0.0
1683,-1.101598367192394,0.0
1684,-2.021727783150884,0.0
1685,1.1188568658583655,0.0
1686,-0.9827654976285075,0.0
1687,-0.18173440617984682,0.0
1688,-0.3519394657339043,0.0
1689,-0.49072605681907566,0.0
1690,-0.24920633979212936,0.0
1691,-0.4180932754629419,0.0
1692,-0.4270386278545935,0.0
1693,-0.39627484593058254,0.0
1694,-0.44724068603426786,0.0
1695,-0.36601479717563373,0.0
1696,-0.48066315442704255,0.0
1697,-0.42127354529013916,0.0
1698,-0.414923696776447,0.0
1699,-0.3496202273595766,0.0
1700,-0.06951350606548251,0.0
1701,3.428504737566317,0.0
1702,6.342838018436444,0.0
1703,-1.1056235923092683,0.0
1704,-2.0199319651969105,0.0
1705,1.070175644446233,0.0
1706,-1.2445724326454375,0.0
1707,-0.20776474875713583,0.0
1708,-0.4098382225407623,0.0
1709,-0.42394661526854494,0.0
1710,-0.36851755899512123,0.0
1711,-0.3515320553591805,0.0
1712,-0.35943738799688973,0.0
1713,-0.452072053157598,0.0
1714,-0.43046422989853494,0.0
1715,-0.3865127040222966,0.0
1716,-0.36033637329346396,0.0
1717,-0.4693606664808443,0.0
1718,-0.46111918684186515,0.0
1719,-0.45198700416203325,0.0
1720,-0.10881655978044635,0.0
1721,3.31783682218484,0.0
1722,6.391108708394563,0.0
1723,-1.200847744589388,0.0
1724,-2.090358562620963,0.0
1725,1.0602691486855476,0.0
1726,-1.195718403128191,0.0
1727,-0.2044734692090897,0.0
1728,-0.3495869821463248,0.0
1729,-0.4239937980832641,0.0
1730,-0.4229817641966041,0.0
1731,-0.48677090378814175,0.0
1732,-0.5540977897649563,0.0
1733,-0.4763624539926552,0.0
1734,-0.39171711718214347,0.0
1735,-0.4232106900283966,0.0
1736,-0.5203350148019928,0.0
1737,-0.5799349224708965,0.0
1738,-0.4605282047318718,0.0
1739,-0.5940788910283848,0.0
1740,-0.19973046545673123,0.0
1741,3.24100240642384,0.0
1742,6.189820304832445,0.0
1743,-1.2975958380944252,0.0
1744,-2.2288496636359785,0.0
1745,0.9223094670118444,0.0
1746,-1.2555260157154324,0.0
1747,-0.32060956802764395,0.0
1748,-0.5571193674261855,0.0
1749,-0.5361948838566373,0.0
1750,-0.4812660544183214,0.0
1751,-0.4666640579293778,0.0
1752,-0.4728109855318565,0.0
1753,-0.4465198382247082,0.0
1754,-0.38620808212476454,0.0
1755,-0.48615077095517306,0.0
1756,-0.5218009650958336,0.0
1757,-0.3542840911221912,0.0
1758,-0.4311039364153258,0.0
1759,-0.44119118421944015,0.0
1760,-0.15679594547728798,0.0
1761,3.308654952681048,0.0
1762,6.270926892910453,0.0
1763,-1.183377602104569,0.0
1764,-2.1891819055926547,0.0
1765,0.9581377322634846,0.0
1766,-1.3170988976869098,0.0
1767,-0.2945927669679587,0.0
1768,-0.5428627829717177,0.0
1769,-0.4906084601876166,0.0
1770,-0.5579870233275361,0.0
1771,-0.4539923335304937,0.0
1772,-0.49978521481184196,0.0
1773,-0.5523024690851981,0.0
1774,-0.46783142931533817,0.0
1775,-0.44616823775503,0.0
1776,-0.5074012720851142,0.0
1777,-0.5618308388118486,0.0
1778,-0.40311110656422394,0.0
1779,-0.4849349137252317,0.0
1780,-0.00014970899414473715,0.0
1781,3.397187669581551,0.0
1782,6.191118073251826,0.0
1783,-1.2060259335310408,0.0
1784,-2.1867165119129544,0.0
1785,1.1154010317891458,0.0
1786,-1.3390136068712577,0.0
1787,-0.15810883120501007,0.0
1788,-0.4160014367409441,0.0
1789,-0.4249481456610643,0.0
1790,-0.4440357264100858,0.0
1791,-0.4680783416558277,0.0
1792,-0.3476087169168336,0.0
1793,-0.4789938151573214,0.0
1794,-0.37481426768796583,0.0
1795,-0.4769822569911144,0.0
1796,-0.5246874196953754,0.0
1797,-0.3995042013711968,0.0
1798,-0.36660257049708805,0.0
1799,-0.46794617080427847,0.0
1800,-0.09892820399446078,0.0
1801,3.322951864870039,0.0
1802,6.318998977449356,0.0
1803,-1.1752024834883694,0.0
1804,-2.0774415731595512,0.0
1805,0.9338192537417807,0.0
1806,-1.2351255370675296,0.0
1807,-0.305861589759651,0.0
1808,-0.45439207236425067,0.0
1809,-0.554447109670266,0.0
1810,-0.5208325370555755,0.0
1811,-0.5141755082752013,0.0
1812,-0.4385103218938785,0.0
1813,-0.4053239176362276,0.0
1814,-0.48809259854864295,0.0
1815,-0.36124825658125775,0.0
1816,-0.4070662271130341,0.0
1817,-0.494784128671122,0.0
1818,-0.4524537952253525,0.0
1819,-0.49549103817918366,0.0
1820,-0.04443150197119433,0.0
1821,3.391133618925806,0.0
1822,6.288974671172147,0.0
1823,-1.1424257334046461,0.0
1824,-2.0869033574607507,0.0
1825,1.033784673394322,0.0
1826,-1.2465208627936444,0.0
1827,-0.32256161618855406,0.0
1828,-0.42950853366453196,0.0
1829,-0.5095938814101963,0.0
1830,-0.47965271091902284,0.0
1831,-0.5207918862514672,0.0
1832,-0.4789622324551062,0.0
1833,-0.3847406670218199,0.0
1834,-0.4475809389841622,0.0
1835,-0.342734181530902,0.0
1836,-0.3714747729065229,0.0
1837,-0.3625976326182063,0.0
1838,-0.42552887761890656,0.0
1839,-0.3807521632354262,0.0
1840,-0.12580438756124307,0.0
1841,3.429277987784111,0.0
1842,6.311661255729932,0.0
1843,-1.1558662301203781,0.0
1844,-2.072062503110938,0.0
1845,1.0149675828512366,0.0
1846,-1.196884607548252,0.0
1847,-0.2805519015797837,0.0
1848,-0.46115964722701924,0.0
1849,-0.5625387485557851,0.0
1850,-0.3925419880187314,0.0
1851,-0.3522819331275934,0.0
1852,-0.3230144135957203,0.0
1853,-0.43495202514735415,0.0
1854,-0.3852445383727103,0.0
1855,-0.36838227521271816,0.0
1856,-0.3241033888100398,0.0
1857,-0.39642260001714524,0.0
1858,-0.4310486125631113,0.0
1859,-0.3753244453926097,0.0
1860,-0.005300095378621639,0.0
1861,3.469388156289197,0.0
1862,6.28238828816902,0.0
1863,-1.1543504217281844,0.0
1864,-2.036655576925163,0.0
1865,1.2306316562779427,0.0
1866,-1.1469201480505644,0.0
1867,-0.185584576454325,0.0
1868,-0.35108528035342607,0.0
1869,-0.5179226356528549,0.0
1870,-0.3509960370563631,0.0
1871,-0.38092479183969813,0.0
1872,-0.39739391795300494,0.0
1873,-0.299424531586562,0.0
1874,-0.23825974313728643,0.0
1875,-0.31755534521786033,0.0
1876,-0.38954964779571055,0.0
1877,-0.3981849101547176,0.0
1878,-0.3801763544104418,0.0
1879,-0.30851268412728616,0.0
1880,0.08383224232945752,0.0
1881,3.462192981435365,0.0
1882,6.525683900949039,0.0
1883,-1.0895768240982293,0.0
1884,-1.9870125732716017,0.0
1885,1.1752603652838252,0.0
1886,-1.1088271654387318,0.0
1887,-0.10889775870078164,0.0
1888,-0.2658421366881711,0.0
1889,-0.3521587881023015,0.0
1890,-0.2615470000173643,0.0
1891,-0.31385627865952664,0.0
1892,-0.27326499864594406,0.0
1893,-0.30448440029054913,0.0
1894,-0.20291937937269283,0.0
1895,-0.28279112447541643,0.0
1896,-0.27591840317471833,0.0
1897,-0.3181060788895882,0.0
1898,-0.21870495783223454,0.0
1899,-0.11529150668502988,0.0
1900,0.10930181706038283,0.0
1901,3.58047033051475,0.0
1902,6.4749106484171,0.0
1903,-1.0422118441212316,0.0
1904,-1.8752262619309796,0.0
1905,1.2068052090795351,0.0
1906,-1.0617707291177716,0.0
1907,-0.12110593584973434,0.0
1908,-0.2466114312405842,0.0
1909,-0.2959039760662633,0.0
1910,-0.23682504252779493,0.0
1911,-0.3602711887046823,0.0
1912,-0.2714130467059117,0.0
1913,-0.3191925565091836,0.0
1914,-0.2696976467160961,0.0
1915,-0.26803884912370707,0.0
1916,-0.2844292160923273,0.0
1917,-0.28533272723703335,0.0
1918,-0.29935943643844865,0.0
1919,-0.25881652268171074,0.0
1920,0.07059880129979923,0.0
1921,3.598864349652375,0.0
1922,6.470087885189436,0.0
1923,-0.9477225316944871,0.0
1924,-1.9339900299525303,0.0
1925,1.2248939411085042,0.0
1926,-0.9709932591455358,0.0
1927,-0.05728881265272143,0.0
1928,-0.05075621098378104,0.0
1929,-0.23611078387154508,0.0
1930,-0.19841265197236096,0.0
1931,-0.17717035123053396,0.0
1932,-0.21769251190495972,0.0
1933,-0.014819064755908024,0.0
1934,-0.1982826543235735,0.0
1935,-0.2030188273860084,0.0
1936,-0.16072615904638643,0.0
1937,-0.27631017635086574,0.0
1938,-0.18929116481307182,0.0
1939,-0.2506823937511253,0.0
1940,0.14271471380383766,0.0
1941,3.614446491300697,0.0
1942,6.511420563960388,0.0
1943,-0.9248999638111908,0.0
1944,-1.8482862599555805,0.0
1945,1.1605976063765322,0.0
1946,-0.9205918026699191,0.0
1947,-0.05102674706954724,0.0
1948,-0.1433654999273333,0.0
1949,-0.09799630033917742,0.0
1950,-0.17575685709468253,0.0
1951,-0.13538756160012672,0.0
1952,-0.1685606615489621,0.0
1953,-0.11086184912662661,0.0
1954,-0.1527209926462432,0.0
1955,-0.08629631897471945,0.0
1956,-0.1633730965238096,0.0
1957,-0.1578808285217743,0.0
1958,-0.13161852728253554,0.0
1959,-0.16762977387361438,0.0
1960,0.23646320674942567,0.0
1961,3.564433996053604,0.0
1962,6.575018417199341,0.0
1963,-0.9352817975124655,0.0
1964,-1.7400243039225092,0.0
1965,1.3717088113231946,0.0
1966,-0.8712957549490356,0.0
1967,-0.011238476894442323,0.0
1968,-0.0199859124228221,0.0
1969,-0.25846821780029605,0.0
1970,-0.07192993706241455,0.0
1971,-0.09005388999842028,0.0
1972,0.010387564711343354,0.0
1973,-0.12500479324656505,0.0
1974,-0.1375772445933451,0.0
1975,-0.05818536358823165,0.0
1976,-0.04380211847428114,0.0
1977,-0.05717376116313256,0.0
1978,-0.033897226081586074,0.0
1979,-0.03840976203776186,0.0
1980,0.32862394039565845,0.0
1981,3.8500968263351503,0.0
1982,6.734213629780889,0.0
1983,-0.8039169594035611,0.0
1984,-1.6509816245045414,0.0
1985,1.5729608677916032,0.0
1986,-0.7581872837748301,0.0
1987,0.21020572561068918,0.0
1988,0.06503321444331221,0.0
1989,-0.035805810153770004,0.0
1990,0.037791538363015895,0.0
1991,0.07861085097898113,0.0
1992,0.07597400737671323,0.0
1993,-0.034411216377299686,0.0
1994,0.003865736486236261,0.0
1995,-0.010421781366807856,0.0
1996,0.1371092539193445,0.0
1997,-0.041037494534363006,0.0
1998,0.05052331057338191,0.0
1999,0.036272330563468014,0.0
2000,0.2733896637324078,0.0
2001,3.8262761901843865,0.0
2002,6.651694869167965,0.0
2003,-0.8085774748868089,0.0
2004,-1.6550144144643977,0.0
2005,1.4848805332528507,0.0
2006,-0.7450776249821635,0.0
2007,0.27258041816142853,0.0
2008,0.005813562737191559,0.0
2009,0.1098074205524285,0.0
2010,0.04793762258218849,0.0
2011,0.07312964948441517,0.0
2012,0.07123263873564106,0.0
2013,0.011929407159584411,0.0
2014,0.12645310883171465,0.0
2015,0.02474182010969077,0.0
2016,0.13795177677487147,0.0
2017,0.07698936190677536,0.0
2018,0.19970454463585072,0.0
2019,0.09777254576987165,0.0
2020,0.45368137778673934,0.0
2021,3.8783131094078303,0.0
2022,6.744727911715592,0.0
2023,-0.7196800458599257,0.0
2024,-1.5472219112064933,0.0
2025,1.5682602252831628,0.0
2026,-0.6881130019423114,0.0
2027,0.3389628597600724,0.0
2028,0.12283368532899491,0.0
2029,0.01549188980278101,0.0
2030,0.23444788647795348,0.0
2031,0.03037907017453754,0.0
2032,0.11444073796093757,0.0
2033,0.14386514088867286,0.0
2034,0.05044190043459895,0.0
2035,0.16886337636540763,0.0
2036,0.12914539878903752,0.0
2037,0.21673258988430918,0.0
2038,0.10152574791914862,0.0
2039,0.20343733212592907,0.0
2040,0.6181919833063246,0.0
2041,3.90905487510803,0.0
2042,6.822628305035753,0.0
2043,-0.5750092911157522,0.0
2044,-1.4721915835385537,0.0
2045,1.644729742307413,0.0
2046,-0.7248997022869245,0.0
2047,0.35914109666407756,0.0
2048,0.2439169328026509,0.0
2049,0.10026231364520732,0.0
2050,0.15937339295157954,0.0
2051,0.11178772050847646,0.0
2052,0.2051796869983962,0.0
2053,0.21979655795621514,0.0
2054,0.12865173727243195,0.0
2055,0.17905796255949627,0.0
2056,0.2779076027723234,0.0
2057,0.1613796043122074,0.0
2058,0.1933473283996406,0.0
2059,0.155439758088107,0.0
2060,0.48839481420154407,0.0
2061,3.99611424133999,0.0
2062,6.858470282753018,0.0
2063,-0.5235656141636797,0.0
2064,-1.3591355536206584,0.0
2065,1.7015319519577647,0.0
2066,-0.43721719706234263,0.0
2067,0.4646003453863,0.0
2068,0.1507470701696376,0.0
2069,0.15689465294796923,0.0
2070,0.3304285959462586,0.0
2071,0.1944557507824106,0.0
2072,0.24507971938323309,0.0
2073,0.2128995964642726,0.0
2074,0.23035014278378255,0.0
2075,0.2929473149013532,0.0
2076,0.2969533814266763,0.0
2077,0.2743507736204539,0.0
2078,0.2971701692420084,0.0
2079,0.22561562656111933,0.0
2080,0.7377077743356046,0.0
2081,4.072059056624552,0.0
2082,7.01440930282887,0.0
2083,-0.5716337194012515,0.0
2084,-1.3475666307345564,0.0
2085,1.7659016126590346,0.0
2086,-0.38853653794218884,0.0
2087,0.4140082201566601,0.0
2088,0.3409614977643993,0.0
2089,0.24349020246099246,0.0
2090,0.29026147357470644,0.0
2091,0.23769483608434888,0.0
2092,0.3286053259570181,0.0
2093,0.3108926222034148,0.0
2094,0.24396653949710903,0.0
2095,0.3652021721847149,0.0
2096,0.30671206828740505,0.0
2097,0.2769692836614221,0.0
2098,0.3193142499087928,0.0
2099,0.20889858022717211,0.0
2100,0.5765053483762014,0.0
2101,4.1983850662137865,0.0
2102,6.96917517845587,0.0
2103,-0.5284038277610925,0.0
2104,-1.3130357947556033,0.0
2105,1.8848233028485568,0.0
2106,-0.5009745001643733,0.0
2107,0.4628933332679511,0.0
2108,0.34473074230629147,0.0
2109,0.3330843264951212,0.0
2110,0.5196508799113958,0.0
2111,0.28213099348233495,0.0
2112,0.348240581646635,0.0
2113,0.29413004132353476,0.0
2114,0.40431296633517194,0.0
2115,0.35095324564085584,0.0
2116,0.3291669205633289,0.0
2117,0.35764517991662237,0.0
2118,0.466256344924346,0.0
2119,0.3808397746353173,0.0
2120,0.65866384686619,0.0
2121,4.295291489202793,0.0
2122,7.046641160848984,0.0
2123,-0.5173078916867285,0.0
2124,-1.3159847160247484,0.0
2125,1.8302338353159604,0.0
2126,-0.4748622806833022,0.0
2127,0.5349980363226019,0.0
2128,0.3828062276873952,0.0
2129,0.26739813788801586,0.0
2130,0.5778087801223,0.0
2131,0.38673686057379986,0.0
2132,0.40318367617667933,0.0
2133,0.40081931598744275,0.0
2134,0.3718101616235347,0.0
2135,0.358827446879227,0.0
2136,0.5298367166015553,0.0
2137,0.36434491010584436,0.0
2138,0.36421550342945885,0.0
2139,0.32656152930412263,0.0
2140,0.7936279405204656,0.0
2141,4.3186341944560125,0.0
2142,7.081761018598776,0.0
2143,-0.4757488286197895,0.0
2144,-1.1845965569323031,0.0
2145,1.770626613715164,0.0
2146,-0.34491615178276785,0.0
2147,0.599438754548362,0.0
2148,0.4335827747694852,0.0
2149,0.3781574889631282,0.0
2150,0.4020816854047626,0.0
2151,0.4131409870201318,0.0
2152,0.5851199319706374,0.0
2153,0.39176652389713207,0.0
2154,0.48571228190354054,0.0
2155,0.4357222379424627,0.0
2156,0.444044929507778,0.0
2157,0.5209624692899035,0.0
2158,0.3799493086236541,0.0
2159,0.40593603889507385,0.0
2160,0.719893527150862,0.0
2161,4.311586408730072,0.0
2162,7.055894003911247,0.0
2163,-0.47277574209465556,0.0
2164,-1.229719577151945,0.0
2165,1.8510697366994644,0.0
2166,-0.4150285978280489,0.0
2167,0.657792413950942,0.0
2168,0.44803131962850734,0.0
2169,0.47597346631611237,0.0
2170,0.42407878232751983,0.0
2171,0.38287063275587696,0.0
2172,0.49022780199389016,0.0
2173,0.5592265421230238,0.0
2174,0.47412883084151325,0.0
2175,0.36808644769674775,0.0
2176,0.46958250978545274,0.0
2177,0.4608801663967141,0.0
2178,0.38142915364512264,0.0
2179,0.40744638722495996,0.0
2180,0.7491123267240826,0.0
2181,4.291927350769373,0.0
2182,7.124002860683687,0.0
2183,-0.4140800818257747,0.0
2184,-1.1546197535674536,0.0
2185,1.9097351994057195,0.0
2186,-0.43134514018262915,0.0
2187,0.5422029005487163,0.0
2188,0.48827853000094046,0.0
2189,0.42803117582193634,0.0
2190,0.33623881931696437,0.0
2191,0.4631837814776922,0.0
2192,0.602045855757502,0.0
2193,0.5590824971234348,0.0
2194,0.4534378639780361,0.0
2195,0.414077239664242,0.0
2196,0.4790552587876293,0.0
2197,0.47859065324904415,0.0
2198,0.4648242468972409,0.0
2199,0.3468790705042609,0.0
2200,0.8441692809915297,0.0
2201,4.384352191921334,0.0
2202,7.127023937480984,0.0
2203,-0.3939097659831077,0.0
2204,-1.0787985270269238,0.0
2205,1.9557185442196037,0.0
2206,-0.21543430443054223,0.0
2207,0.6189495042887349,0.0
2208,0.5104100181811853,0.0
2209,0.44400943286633093,0.0
2210,0.6139836845802668,0.0
2211,0.4820946769209003,0.0
2212,0.5333392449730491,0.0
2213,0.5496141777702821,0.0
2214,0.4524086319784839,0.0
2215,0.510026645817043,0.0
2216,0.42504509473668295,0.0
2217,0.4255953972538316,0.0
2218,0.5494642021497568,0.0
2219,0.4997057941627431,0.0
2220,0.8366288662326773,0.0
2221,4.338975909712378,0.0
2222,7.137072914541402,0.0
2223,-0.421542352444787,0.0
2224,-1.0841889250244745,0.0
2225,1.845274183911719,0.0
2226,-0.3101478890094963,0.0
2227,0.5180467521011025,0.0
2228,0.4016964857727426,0.0
2229,0.44181091755016716,0.0
2230,0.515071260439155,0.0
2231,0.5543558686590763,0.0
2232,0.41026514883007364,0.0
2233,0.4871564458580549,0.0
2234,0.5466309774944185,0.0
2235,0.43232885114145986,0.0
2236,0.4542812534339363,0.0
2237,0.46906023657238766,0.0
2238,0.48384889501223244,0.0
2239,0.5047626719536431,0.0
2240,0.9441004009940017,0.0
2241,4.272991036344779,0.0
2242,7.16948018652036,0.0
2243,-0.3479022576168186,0.0
2244,-1.170206451516818,0.0
2245,1.9664108249022036,0.0
2246,-0.33643233828969554,0.0
2247,0.7395958320393553,0.0
2248,0.46144208595406544,0.0
2249,0.5219527141088885,0.0
2250,0.5368216765241604,0.0
2251,0.47080351183440855,0.0
2252,0.47316659853021287,0.0
2253,0.5266066139039616,0.0
2254,0.519082933854584,0.0
2255,0.5585640397056058,0.0
2256,0.5270520299651621,0.0
2257,0.5059485315365503,0.0
2258,0.5121102449870676,0.0
2259,0.6054457439321839,0.0
2260,0.862263020816701,0.0
2261,4.455703257988012,0.0
2262,7.214608390638615,0.0
2263,-0.3043383014122938,0.0
2264,-1.0286246973417388,0.0
2265,1.966942855918211,0.0
2266,-0.2058435682074211,0.0
2267,0.6108483834960046,0.0
2268,0.5347870315574603,0.0
2269,0.4583504385398588,0.0
2270,0.505343521947729,0.0
2271,0.3873706701631669,0.0
2272,0.505578158548491,0.0
2273,0.5348459751167471,0.0
2274,0.512560650787738,0.0
2275,0.4947075007355771,0.0
2276,0.5873477458277845,0.0
2277,0.5112163815530508,0.0
2278,0.4308634530875832,0.0
2279,0.516642250536234,0.0
2280,0.8464844692648559,0.0
2281,4.482226658487718,0.0
2282,7.230280189221227,0.0
2283,-0.3046828320983002,0.0
2284,-1.0173289946328041,0.0
2285,1.9964632566923493,0.0
2286,-0.33115534179899286,0.0
2287,0.6626813311717539,0.0
2288,0.5630052765860663,0.0
2289,0.4506758137878749,0.0
2290,0.5744895449483718,0.0
2291,0.45670775578143263,0.0
2292,0.6042030435762281,0.0
2293,0.5425355320206705,0.0
2294,0.41686820728543894,0.0
2295,0.4368435338176158,0.0
2296,0.39079566475880423,0.0
2297,0.48451915961047304,0.0
2298,0.5422533392345488,0.0
2299,0.4344169374734683,0.0
2300,0.8721979804256326,0.0
2301,4.385454020520562,0.0
2302,7.176320985623178,0.0
2303,-0.44710843438671855,0.0
2304,-1.1470930541266726,0.0
2305,2.008087715515876,0.0
2306,-0.20500848268728622,0.0
2307,0.7019425309564069,0.0
2308,0.563422689506088,0.0
2309,0.48366467077440667,0.0
2310,0.6159293579447702,0.0
2311,0.5165619045574505,0.0
2312,0.5485472434847107,0.0
2313,0.5681195183776343,0.0
2314,0.45053621687209916,0.0
2315,0.5591208078734504,0.0
2316,0.46692347957308394,0.0
2317,0.4507698600232216,0.0
2318,0.4899734200963176,0.0
2319,0.33221302379959355,0.0
2320,0.7818753096105934,0.0
2321,4.355043978832932,0.0
2322,7.098282466324809,0.0
2323,-0.5865783218796573,0.0
2324,-1.1745432586552158,0.0
2325,1.966775599231977,0.0
2326,-0.2957978125887461,0.0
2327,0.5811878717021621,0.0
2328,0.5197739119422544,0.0
2329,0.42508055269002304,0.0
2330,0.5192772461756803,0.0
2331,0.47810406420484564,0.0
2332,0.5133777685110663,0.0
2333,0.45940142583612936,0.0
2334,0.4276901210334827,0.0
2335,0.5108763411081622,0.0
2336,0.4252372426673719,0.0
2337,0.4193348698338482,0.0
2338,0.4099707418668107,0.0
2339,0.4563252996064442,0.0
2340,0.8596042987149273,0.0
2341,4.305183215483906,0.0
2342,7.102242269785047,0.0
2343,-0.4695849452314231,0.0
2344,-1.1547394513699363,0.0
2345,1.839348002598604,0.0
2346,-0.32821678885618394,0.0
2347,0.5947804382213742,0.0
2348,0.4642092123138567,0.0
2349,0.42582508898838206,0.0
2350,0.2965227988167238,0.0
2351,0.5372430253987949,0.0
2352,0.38613590271913606,0.0
2353,0.4683805945257967,0.0
2354,0.4993159343778463,0.0
2355,0.34905055539705115,0.0
2356,0.36067037829225607,0.0
2357,0.49565359398571895,0.0
2358,0.4075383079089555,0.0
2359,0.28558215041625135,0.0
2360,0.8423369217726648,0.0
2361,4.326091476567233,0.0
2362,7.115488829328974,0.0
2363,-0.5485919888685562,0.0
2364,-1.084766238555931,0.0
2365,1.9489291699256426,0.0
2366,-0.42028481762806624,0.0
2367,0.6153082946152424,0.0
2368,0.3947704041772711,0.0
2369,0.35706600218737145,0.0
2370,0.45490678741071994,0.0
2371,0.37635783664865563,0.0
2372,0.3865034840652745,0.0
2373,0.3004141349815116,0.0
2374,0.4374002682601621,0.0
2375,0.3198832093693801,0.0
2376,0.4272019022585948,0.0
2377,0.3606245991019785,0.0
2378,0.4946261767682238,0.0
2379,0.37448722377711086,0.0
2380,0.7507398843434057,0.0
2381,4.4001489065226895,0.0
2382,6.979459344317926,0.0
2383,-0.5162755551610833,0.0
2384,-1.2597869907368124,0.0
2385,1.8182532638480848,0.0
2386,-0.41190607331523305,0.0
2387,0.6586299694938835,0.0
2388,0.2318824255356266,0.0
2389,0.4017883195382102,0.0
2390,0.3467603974175818,0.0
2391,0.46967617377536003,0.0
2392,0.4277735462712629,0.0
2393,0.43982418020237307,0.0
2394,0.43694186117613726,0.0
2395,0.34450065482962955,0.0
2396,0.39795691758751006,0.0
2397,0.36008573748856315,0.0
2398,0.25943804165272244,0.0
2399,0.34190530964999577,0.0
2400,0.7356296568544582,0.0
2401,4.272506414469738,0.0
2402,7.062119070596089,0.0
2403,-0.5312801420391992,0.0
2404,-1.272859408482267,0.0
2405,1.9161846382469823,0.0
2406,-0.4500882551935414,0.0
2407,0.5611238350934735,0.0
2408,0.3822807730275339,0.0
2409,0.36929946042736983,0.0
2410,0.4037784637276999,0.0
2411,0.26874999127750887,0.0
2412,0.26061721505946556,0.0
2413,0.3426478889382734,0.0
2414,0.34766974293294445,0.0
2415,0.2480289727893476,0.0
2416,0.28466572809462415,0.0
2417,0.3013680038791879,0.0
2418,0.35590733578489653,0.0
2419,0.3082068388222546,0.0
2420,0.7014511689233454,0.0
2421,4.08806561219329,0.0
2422,6.900066432866221,0.0
2423,-0.7524178107759906,0.0
2424,-1.3725264753072455,0.0
2425,1.580134975156492,0.0
2426,-0.5386095450782098,0.0
2427,0.38324313623022477,0.0
2428,0.22085358250496195,0.0
2429,0.24997923009718065,0.0
2430,0.20257455004720187,0.0
2431,0.2821976579054106,0.0
2432,0.25112987976300577,0.0
2433,0.22761270436273517,0.0
2434,0.31154619700043273,0.0
2435,0.2514301404002738,0.0
2436,0.27702991775742314,0.0
2437,0.34278117863503355,0.0
2438,0.2293427831513388,0.0
2439,0.3399091136880097,0.0
2440,0.6289875277851346,0.0
2441,4.18413514078768,0.0
2442,6.826648375630166,0.0
2443,-0.6869208956509868,0.0
2444,-1.2845190451557236,0.0
2445,1.669374510285924,0.0
2446,-0.575135169783136,0.0
2447,0.4054164647018572,0.0
2448,0.23689786086040657,0.0
2449,0.12817695286923425,0.0
2450,0.2394963192607844,0.0
2451,0.14299014779036825,0.0
2452,0.06332729933445616,0.0
2453,0.171784489501747,0.0
2454,0.12601471663895336,0.0
2455,0.06008455917332796,0.0
2456,0.21593103997065619,0.0
2457,0.19322890648407998,0.0
2458,0.13832157248046784,0.0
2459,0.11087927543425577,0.0
2460,0.44981623084041167,0.0
2461,4.082284438648904,0.0
2462,6.799537580123715,0.0
2463,-0.7774109883141718,0.0
2464,-1.3725150849334251,0.0
2465,1.5225855219287616,0.0
2466,-0.6835336833521901,0.0
2467,0.3115976719473307,0.0
2468,0.1182463567667817,0.0
2469,0.022787357032203033,0.0
2470,0.0949523387823377,0.0
2471,0.1644559168393246,0.0
2472,0.07473260151400593,0.0
2473,0.012539538517451829,0.0
2474,-0.01780217826395977,0.0
2475,0.09560897467492076,0.0
2476,0.06213434197083334,0.0
2477,0.013834697400891726,0.0
2478,0.032022841297469205,0.0
2479,0.037154665240062536,0.0
2480,0.4775218026646038,0.0
2481,4.098548459370511,0.0
2482,6.670905271385174,0.0
2483,-0.8566226175601218,0.0
2484,-1.6219321924385643,0.0
2485,1.5280758397803904,0.0
2486,-0.7956425006082386,0.0
2487,0.18278114197237516,0.0
2488,0.1091943437301111,0.0
2489,-0.03699171790111492,0.0
2490,0.024946319823493737,0.0
2491,-0.02788562369555795,0.0
2492,-0.026045108139705814,0.0
2493,0.04056811619733713,0.0
2494,-0.07276569994367371,0.0
2495,-0.0454491806962285,0.0
2496,0.058381870180587096,0.0
2497,0.03699391450592616,0.0
2498,0.07040983780054973,0.0
2499,-0.0354859919624608,0.0
2500,0.4456298479931946,0.0
2501,3.9215741361402463,0.0
2502,6.697820421893656,0.0
2503,-0.9867395697306518,0.0
2504,-1.6208642984854724,0.0
2505,1.5572416490284011,0.0
2506,-0.7876553857786711,0.0
2507,0.2168483710353003,0.0
2508,-0.13271200423789573,0.0
2509,-0.013140395211343296,0.0
2510,0.05006742468477139,0.0
2511,-0.026168042336508327,0.0
2512,-0.025026011027750924,0.0
2513,-0.08718730370724787,0.0
2514,-0.007023940162695502,0.0
2515,-0.10527164890451224,0.0
2516,-0.1209648100010074,0.0
2517,-0.06740387313985528,0.0
2518,-0.05671853333025545,0.0
2519,-0.1422124283317262,0.0
2520,0.3703865581363485,0.0
2521,3.8649727025754737,0.0
2522,6.635694020016923,0.0
2523,-1.0398898168300592,0.0
2524,-1.6122765013719547,0.0
2525,1.447153928804924,0.0
2526,-0.8843143380731705,0.0
2527,0.08037363117940094,0.0
2528,0.06488270974646992,0.0
2529,-0.06274845841791296,0.0
2530,-0.02600826175151298,0.0
2531,-0.04864737775507818,0.0
2532,-0.0334545006493504,0.0
2533,-0.018583079680067935,0.0
2534,-0.10461175251375748,0.0
2535,-0.03373581640577827,0.0
2536,-0.006848169979912708,0.0
2537,-0.1908460660096403,0.0
2538,-0.12976831308307393,0.0
2539,-0.17262551372011198,0.0
2540,0.24685262035972808,0.0
2541,3.7451701513426006,0.0
2542,6.638052732188813,0.0
2543,-1.1207259626506358,0.0
2544,-1.7047430293841093,0.0
2545,1.2909788185233122,0.0
2546,-0.9624971703324153,0.0
2547,0.009174704163218556,0.0
2548,-0.08710317091621192,0.0
2549,-0.144427669272236,0.0
2550,-0.23235804219090647,0.0
2551,-0.16166588322443504,0.0
2552,-0.13122392401509453,0.0
2553,-0.16625037994888586,0.0
2554,-0.20598734976117938,0.0
2555,-0.22157606723833576,0.0
2556,-0.20988619214878396,0.0
2557,-0.09058590619822231,0.0
2558,-0.20806419194359607,0.0
2559,-0.29016475339730424,0.0
2560,0.14611333518471176,0.0
2561,3.736288150609055,0.0
2562,6.392853636725001,0.0
2563,-1.2159013685099953,0.0
2564,-1.7586968568369052,0.0
2565,1.2013418746489963,0.0
2566,-0.980540816587923,0.0
2567,0.07384941166877917,0.0
2568,-0.24528083342336837,0.0
2569,-0.22988435928327725,0.0
2570,-0.1266048007118738,0.0
2571,-0.23628007233501086,0.0
2572,-0.21566320538969347,0.0
2573,-0.2543353052564099,0.0
2574,-0.29170318668108824,0.0
2575,-0.29760753510282395,0.0
2576,-0.1830286995698319,0.0
2577,-0.242104065522027,0.0
2578,-0.16491171855472986,0.0
2579,-0.16266830797454238,0.0
2580,0.09563590488002122,0.0
2581,3.6767139522890906,0.0
2582,6.409793575570578,0.0
2583,-1.1931451061977059,0.0
2584,-1.814037978844174,0.0
2585,1.1562429267319752,0.0
2586,-1.0884690942423576,0.0
2587,-0.14751085873557845,0.0
2588,-0.2769831198028046,0.0
2589,-0.38913549302869427,0.0
2590,-0.30554019998452286,0.0
2591,-0.16961043395761166,0.0
2592,-0.2905425870830285,0.0
2593,-0.24487712053132002,0.0
2594,-0.3538571854117942,0.0
2595,-0.3223734246831358,0.0
2596,-0.30468162828434436,0.0
2597,-0.2789546759076426,0.0
2598,-0.29855706024420053,0.0
2599,-0.3855811845764155,0.0
2600,0.14721697953365404,0.0
2601,3.6314787580013173,0.0
2602,6.382162714571091,0.0
2603,-1.1784561116683159,0.0
2604,-1.8587756002685056,0.0
2605,1.1928748987262892,0.0
2606,-1.0401088280767827,0.0
2607,-0.08397831162131614,0.0
2608,-0.3168505063209222,0.0
2609,-0.4600605625150715,0.0
2610,-0.3035266078306506,0.0
2611,-0.2590507397930736,0.0
2612,-0.33478757846447005,0.0
2613,-0.3522351229738816,0.0
2614,-0.3690069759753277,0.0
2615,-0.3151527994327108,0.0
2616,-0.39481833577754905,0.0
2617,-0.25894314055805556,0.0
2618,-0.3805742235174305,0.0
2619,-0.3281412074747588,0.0
2620,0.027817072609222393,0.0
2621,3.6250256864593817,0.0
2622,6.3694452004513495,0.0
2623,-1.2685190220155476,0.0
2624,-1.8367128806353339,0.0
2625,1.1613451040483813,0.0
2626,-1.0363137211101672,0.0
2627,-0.11401621286833652,0.0
2628,-0.4472089152364517,0.0
2629,-0.3924113974129202,0.0
2630,-0.34056467287495995,0.0
2631,-0.43866369053791077,0.0
2632,-0.3410272872376914,0.0
2633,-0.29604827228413366,0.0
2634,-0.3500766284497641,0.0
2635,-0.3778099000353232,0.0
2636,-0.379243732448571,0.0
2637,-0.34160526660660584,0.0
2638,-0.40272726688210614,0.0
2639,-0.3740439516579349,0.0
2640,0.12400482531050933,0.0
2641,3.5505084819793744,0.0
2642,6.3153208974710076,0.0
2643,-1.3299468488904993,0.0
2644,-1.8901843062144368,0.0
2645,1.090123725139715,0.0
2646,-1.2327103668766188,0.0
2647,-0.1945157394748155,0.0
2648,-0.44879625215167573,0.0
2649,-0.39182890494455785,0.0
2650,-0.3587870563199561,0.0
2651,-0.4029617920070781,0.0
2652,-0.4497539469447918,0.0
2653,-0.3235968666525404,0.0
2654,-0.3656471235086458,0.0
2655,-0.41376558760209553,0.0
2656,-0.39370318330628684,0.0
2657,-0.43196088228455043,0.0
2658,-0.34486477860496456,0.0
2659,-0.4659918580161675,0.0
2660,0.05619386182263192,0.0
2661,3.5182002495304276,0.0
2662,6.221005535901493,0.0
2663,-1.4343990040577954,0.0
2664,-1.8963170008054022,0.0
2665,1.102695473589012,0.0
2666,-1.1808284770941189,0.0
2667,-0.23026957276412033,0.0
2668,-0.49809039811115013,0.0
2669,-0.4528902818033998,0.0
2670,-0.4130097973967159,0.0
2671,-0.44999613514466247,0.0
2672,-0.41181825241271475,0.0
2673,-0.5116018225496243,0.0
2674,-0.37218859901703455,0.0
2675,-0.4627353665786976,0.0
2676,-0.5195474091331734,0.0
2677,-0.5323731073467779,0.0
2678,-0.32645496125175577,0.0
2679,-0.3923139533735424,0.0
2680,-0.0055254362837815485,0.0
2681,3.5183734753515186,0.0
2682,6.198900335308702,0.0
2683,-1.4571628939042438,0.0
2684,-2.071003857074316,0.0
2685,1.064234592394395,0.0
2686,-1.3303083936766527,0.0
2687,-0.3170843085363475,0.0
2688,-0.4233753521673464,0.0
2689,-0.5399554093481769,0.0
2690,-0.4672336664553301,0.0
2691,-0.4905358773888189,0.0
2692,-0.4789360758043645,0.0
2693,-0.4552402080258241,0.0
2694,-0.5615798726560534,0.0
2695,-0.4587416194247969,0.0
2696,-0.49231500344011825,0.0
2697,-0.4473784309898927,0.0
2698,-0.5692143592218718,0.0
2699,-0.3740822414758248,0.0
2700,-0.0861760136363347,0.0
2701,3.537977558215041,0.0
2702,6.028796406662197,0.0
2703,-1.3899216402406442,0.0
2704,-2.070677764738713,0.0
2705,0.9196726581535585,0.0
2706,-1.2064019509865298,0.0
2707,-0.24927757253437963,0.0
2708,-0.41010651982882945,0.0
2709,-0.45538991432250037,0.0
2710,-0.499779780550508,0.0
2711,-0.4798588361668318,0.0
2712,-0.4841063199179846,0.0
2713,-0.5983416924414336,0.0
2714,-0.5509281017004539,0.0
2715,-0.5506064223856502,0.0
2716,-0.5343066209188538,0.0
2717,-0.5346058885495024,0.0
2718,-0.5417663598368648,0.0
2719,-0.5039100269636078,0.0
2720,-0.22312509412315085,0.0
2721,3.5276991299582514,0.0
2722,6.0591227155546665,0.0
2723,-1.4571293960445035,0.0
2724,-2.0385045950859615,0.0
2725,0.9032593176686091,0.0
2726,-1.2926944269667948,0.0
2727,-0.28590428225233966,0.0
2728,-0.48296762050955433,0.0
2729,-0.4644926716405362,0.0
2730,-0.4671531626726611,0.0
2731,-0.4826768238781995,0.0
2732,-0.5100881634290018,0.0
2733,-0.5439720945943769,0.0
2734,-0.5460640046251483,0.0
2735,-0.4859473243533303,0.0
2736,-0.4447485448555313,0.0
2737,-0.4679662892597315,0.0
2738,-0.5093651018039134,0.0
2739,-0.5445269655588659,0.0
2740,-0.15278438746975243,0.0
2741,3.5072657466224566,0.0
2742,6.2023271115562215,0.0
2743,-1.3939104698954476,0.0
2744,-2.022823237534915,0.0
2745,0.9304160078059909,0.0
2746,-1.3748549183808252,0.0
2747,-0.3881710382686944,0.0
2748,-0.5883704347911323,0.0
2749,-0.54700937832602,0.0
2750,-0.5580961391024615,0.0
2751,-0.6177919239898599,0.0
2752,-0.5635316005322452,0.0
2753,-0.6352911462456899,0.0
2754,-0.6165953416324681,0.0
2755,-0.5664019227931066,0.0
2756,-0.5296675580191587,0.0
2757,-0.5183185198400027,0.0
2758,-0.4807289381060053,0.0
2759,-0.4516033230242921,0.0
2760,-0.1308511754250153,0.0
2761,3.5154472046710152,0.0
2762,6.2153627144560115,0.0
2763,-1.4622038194900413,0.0
2764,-1.9846382977502997,0.0
2765,1.0479719097145377,0.0
2766,-1.2655336027441457,0.0
2767,-0.30472754265961743,0.0
2768,-0.49198437009975166,0.0
2769,-0.46234034395926316,0.0
2770,-0.4982690819253822,0.0
2771,-0.47157249049992783,0.0
2772,-0.5200460287374069,0.0
2773,-0.4181406762527965,0.0
2774,-0.4467713212698078,0.0
2775,-0.48220831687318516,0.0
2776,-0.4059498575573233,0.0
2777,-0.6168306574602291,0.0
2778,-0.4410559758104911,0.0
2779,-0.4920095261603161,0.0
2780,-0.09668500996092538,0.0
2781,3.5323090133053854,0.0
2782,6.121364949189957,0.0
2783,-1.4625710593265486,0.0
2784,-1.986107205351745,0.0
2785,0.9659359238220278,0.0
2786,-1.3047967835471763,0.0
2787,-0.2391024292382188,0.0
2788,-0.5494639912138498,0.0
2789,-0.5892733366722865,0.0
2790,-0.4509543689478101,0.0
2791,-0.5026275934616315,0.0
2792,-0.5340059174485651,0.0
2793,-0.42971078372482896,0.0
2794,-0.5290739300383694,0.0
2795,-0.5391553688810068,0.0
2796,-0.6286785100266037,0.0
2797,-0.5013547955626682,0.0
2798,-0.49306101493056764,0.0
2799,-0.528257161146116,0.0
2800,-0.10266561504141136,0.0
2801,3.5138991995998996,0.0
2802,6.178833103269104,0.0
2803,-1.553723727633119,0.0
2804,-1.9403495581098136,0.0
2805,1.0431453771075063,0.0
2806,-1.1686315281035256,0.0
2807,-0.26185932850199534,0.0
2808,-0.4761360346967343,0.0
2809,-0.4241475401513499,0.0
2810,-0.38242446239509487,0.0
2811,-0.4518955566416175,0.0
2812,-0.4537747062204267,0.0
2813,-0.5072299995654642,0.0
2814,-0.4267278734616482,0.0
2815,-0.36549439196883654,0.0
2816,-0.4423117665019792,0.0
2817,-0.3994676612472887,0.0
2818,-0.4450872779340727,0.0
2819,-0.3410467362982328,0.0
2820,-0.05049601152745614,0.0
2821,3.4750938098672832,0.0
2822,6.206430089695386,0.0
2823,-1.483191018784866,0.0
2824,-1.9517312178695334,0.0
2825,1.050359393555706,0.0
2826,-1.0792686597368226,0.0
2827,-0.20735623528924352,0.0
2828,-0.4726206556169693,0.0
2829,-0.38945569819133774,0.0
2830,-0.46854219634833505,0.0
2831,-0.38125749450370794,0.0
2832,-0.5041006836065494,0.0
2833,-0.38518862852868846,0.0
2834,-0.41946353168349304,0.0
2835,-0.3586791665464609,0.0
2836,-0.38227805980756707,0.0
2837,-0.41883209137299343,0.0
2838,-0.3896822440580083,0.0
2839,-0.4753159165192298,0.0
2840,0.06895005948498112,0.0
2841,3.721553412556452,0.0
2842,6.266294129321665,0.0
2843,-1.421354604040177,0.0
2844,-1.7706796274629646,0.0
2845,1.0943414499360185,0.0
2846,-1.1605193392852886,0.0
2847,-0.1872521670132246,0.0
2848,-0.35946137657044147,0.0
2849,-0.35596052139295664,0.0
2850,-0.36961595053271795,0.0
2851,-0.418480893104308,0.0
2852,-0.34331190564007125,0.0
2853,-0.3714273392607136,0.0
2854,-0.4979968902907847,0.0
2855,-0.3312956240700791,0.0
2856,-0.39626712181723756,0.0
2857,-0.44661690416332833,0.0
2858,-0.35679979453622285,0.0
2859,-0.3505717651312052,0.0
2860,0.03749009228427136,0.0
2861,3.642945391434057,0.0
2862,6.332869718163351,0.0
2863,-1.4809295179967263,0.0
2864,-1.8641921357619964,0.0
2865,1.0639489158789197,0.0
2866,-1.1589981179754325,0.0
2867,-0.16811076527627059,0.0
2868,-0.36592709378029364,0.0
2869,-0.3760397947386072,0.0
2870,-0.248931247708313,0.0
2871,-0.2676442071475293,0.0
2872,-0.37348449697728153,0.0
2873,-0.42265196414474626,0.0
2874,-0.35046517959571344,0.0
2875,-0.3950833830856634,0.0
2876,-0.37211268607485437,0.0
2877,-0.3210922836078095,0.0
2878,-0.1925449356840202,0.0
2879,-0.33707856452325574,0.0
2880,0.08974539331214731,0.0
2881,3.650935269226677,0.0
2882,6.321023468572412,0.0
2883,-1.4004001952595349,0.0
2884,-1.8006563425241406,0.0
2885,1.1342301887765789,0.0
2886,-1.1191933781161534,0.0
2887,0.03744975996400832,0.0
2888,-0.2594129330037979,0.0
2889,-0.40687254238212833,0.0
2890,-0.3114349545742287,0.0
2891,-0.262260578861525,0.0
2892,-0.2016098871535216,0.0
2893,-0.3546395651633034,0.0
2894,-0.33242618233750215,0.0
2895,-0.2674179774947538,0.0
2896,-0.36722478966474487,0.0
2897,-0.4072733274237483,0.0
2898,-0.3259193914731708,0.0
2899,-0.25221087916746765,0.0
2900,0.11549461339809275,0.0
2901,3.765527696398956,0.0
2902,6.434885804659821,0.0
2903,-1.313612201148569,0.0
2904,-1.822470076083216,0.0
2905,1.198662978513177,0.0
2906,-1.1265098301912282,0.0
2907,-0.07942022114258326,0.0
2908,-0.28034499873449603,0.0
2909,-0.27139879355259894,0.0
2910,-0.2556621419122657,0.0
2911,-0.2461222292699465,0.0
2912,-0.1893905003006315,0.0
2913,-0.2409831578421442,0.0
2914,-0.22774794622942685,0.0
2915,-0.21489025062757863,0.0
2916,-0.210253132580378,0.0
2917,-0.22132351597524186,0.0
2918,-0.15379692474903278,0.0
2919,-0.17430809568552944,0.0
2920,0.1776985852007652,0.0
2921,3.9281004330399636,0.0
2922,6.4323239022259635,0.0
2923,-1.1773029788375107,0.0
2924,-1.5913775561460848,0.0
2925,1.2344493701060408,0.0
2926,-0.9236027038563245,0.0
2927,0.0810104974335481,0.0
2928,-0.05831548517605471,0.0
2929,-0.20329731549650573,0.0
2930,-0.025266218092568446,0.0
2931,-0.1137554189003608,0.0
2932,-0.13194747466438772,0.0
2933,-0.2539663228213719,0.0
2934,-0.032092734844102494,0.0
2935,-0.11371637988278763,0.0
2936,-0.09667287649276582,0.0
2937,-0.11939062639111572,0.0
2938,-0.16117692010070378,0.0
2939,-0.13662664889081824,0.0
2940,0.19702406036942344,0.0
2941,3.8903373421827574,0.0
2942,6.495148487226844,0.0
2943,-1.1977048898744553,0.0
2944,-1.626386968319423,0.0
2945,1.1735558206885688,0.0
2946,-0.8304561708751255,0.0
2947,-0.027388738716542765,0.0
2948,-0.1294752800096402,0.0
2949,-0.12606268888050948,0.0
2950,-0.11160988870710191,0.0
2951,-0.14053135592211738,0.0
2952,-0.1614543196360934,0.0
2953,-0.15807181073264231,0.0
2954,-0.08038830100892691,0.0
2955,-0.06603565731464174,0.0
2956,-0.11834817554505882,0.0
2957,-0.17316739154078525,0.0
2958,-0.055220456424015685,0.0
2959,-0.004314915139328579,0.0
2960,0.4376846290688797,0.0
2961,3.898118875843261,0.0
2962,6.619374953383155,0.0
2963,-1.1450703874670647,0.0
2964,-1.5020985628219439,0.0
2965,1.3512561739444389,0.0
2966,-0.8276658434304809,0.0
2967,0.14808592065897241,0.0
2968,-0.052748130119704306,0.0
2969,-0.04738741665592015,0.0
2970,-0.039622094690823235,0.0
2971,-0.07495230337896272,0.0
2972,-0.09673192081618176,0.0
2973,-0.12591993504193255,0.0
2974,-0.1165920495741143,0.0
2975,-0.08535502454760628,0.0
2976,-0.1272736136323851,0.0
2977,-0.002096963032220143,0.0
2978,-0.036902550486584466,0.0
2979,-0.022580415883836052,0.0
2980,0.4232709748894977,0.0
2981,4.068634775679141,0.0
2982,6.578329742241785,0.0
2983,-1.0432771987974885,0.0
2984,-1.4483611889917207,0.0
2985,1.3697243769606868,0.0
2986,-0.7858662300041792,0.0
2987,0.18595249209501752,0.0
2988,0.04142960609260245,0.0
2989,-0.0052793518600891196,0.0
2990,0.08772583790783209,0.0
2991,0.08908807491121502,0.0
2992,0.1555515605426287,0.0
2993,0.06856276939858212,0.0
2994,0.16633687333033959,0.0
2995,0.08909276568630493,0.0
2996,-0.011168785618359725,0.0
2997,0.005849877837449578,0.0
2998,-0.009452434610491688,0.0
2999,0.09199636653153452,0.0
3000,0.4224836546896644,0.0
3001,3.9852411701828006,0.0
3002,6.658337974938733,0.0
3003,-0.9492263623000491,0.0
3004,-1.4143485200964447,0.0
3005,1.4801414095530854,0.0
3006,-0.7251375568661643,0.0
3007,0.2568705617071423,0.0
3008,0.027482256253568767,0.0
3009,0.09959107403352939,0.0
3010,0.09210538186570544,0.0
3011,0.08778407842528405,0.0
3012,0.10544810578128264,0.0
3013,0.04868482727242468,0.0
3014,0.05765533789571782,0.0
3015,0.08099931477150965,0.0
3016,0.13141053528368996,0.0
3017,0.07878035528554779,0.0
3018,0.1296584983161545,0.0
3019,0.03591676989472866,0.0
3020,0.4384473988319719,0.0
3021,4.047499343182904,0.0
3022,6.677067330264403,0.0
3023,-1.1115765431945965,0.0
3024,-1.3702504805915847,0.0
3025,1.6079988905594467,0.0
3026,-0.6219797077218348,0.0
3027,0.4139058898756315,0.0
3028,0.1853693716811657,0.0
3029,0.14897624957870143,0.0
3030,0.14486020590138113,0.0
3031,0.2195481432319363,0.0
3032,0.20534128667149038,0.0
3033,0.007159482780511421,0.0
3034,0.18840957284528043,0.0
3035,0.16741831121141626,0.0
3036,0.08768748989859068,0.0
3037,0.21155967624107996,0.0
3038,0.20009607112229572,0.0
3039,0.05428083527639772,0.0
3040,0.5755137230651546,0.0
3041,4.177449611837521,0.0
3042,6.69201472939771,0.0
3043,-0.9365006425275184,0.0
3044,-1.3721657272685504,0.0
3045,1.6093182272086652,0.0
3046,-0.7318019890655463,0.0
3047,0.31154656667208247,0.0
3048,0.07137745394286048,0.0
3049,0.13074452430844552,0.0
3050,0.20712854916612466,0.0
3051,0.0469863930391463,0.0
3052,0.204618726229726,0.0
3053,0.1434999569688573,0.0
3054,0.07860564704185749,0.0
3055,0.11036903131716823,0.0
3056,0.1671329410496891,0.0
3057,0.14960829154591032,0.0
3058,0.2121296313295348,0.0
3059,0.2801891087402884,0.0
3060,0.5333587392587873,0.0
3061,4.271069993267944,0.0
3062,6.925268370464089,0.0
3063,-0.9186751835159664,0.0
3064,-1.2715003851595414,0.0
3065,1.8409008873923838,0.0
3066,-0.6152938958948019,0.0
3067,0.4641394259901309,0.0
3068,0.28793026827954155,0.0
3069,0.35033161931423373,0.0
3070,0.24595543702261233,0.0
3071,0.13663993330377425,0.0
3072,0.21879352837220312,0.0
3073,0.32528075249737143,0.0
3074,0.3118456788564383,0.0
3075,0.27017295578571626,0.0
3076,0.23473617874197353,0.0
3077,0.18582482558667202,0.0
3078,0.19243691656085027,0.0
3079,0.22745483039059788,0.0
3080,0.5702400495607205,0.0
3081,4.286941122467754,0.0
3082,6.871461632221808,0.0
3083,-0.8321849974411649,0.0
3084,-1.165811613581213,0.0
3085,1.729994132709907,0.0
3086,-0.53767151591773,0.0
3087,0.4630621671011893,0.0
3088,0.21874137159113627,0.0
3089,0.34214812700400726,0.0
3090,0.309443485879302,0.0
3091,0.3749470358055746,0.0
3092,0.43830325100115747,0.0
3093,0.37592436606932855,0.0
3094,0.4564388024359457,0.0
3095,0.4505804793302412,0.0
3096,0.382057449363206,0.0
3097,0.3797875683212683,0.0
3098,0.30036037122167836,0.0
3099,0.30067664023385654,0.0
3100,0.7251236633784217,0.0
3101,4.462285275844539,0.0
3102,7.033219693643166,0.0
3103,-0.745854769506158,0.0
3104,-1.0691340766537227,0.0
3105,1.7796070421174135,0.0
3106,-0.4913794360907455,0.0
3107,0.6143615705959186,0.0
3108,0.302756616809417,0.0
3109,0.3358600009405869,0.0
3110,0.365579188697118,0.0
3111,0.35700957244629605,0.0
3112,0.3443302476531577,0.0
3113,0.4763773565314674,0.0
3114,0.3256575043958437,0.0
3115,0.3894269401903633,0.0
3116,0.41142013194934124,0.0
3117,0.4289937279099084,0.0
3118,0.46819244862484294,0.0
3119,0.3903130316394935,0.0
3120,0.7005990001519209,0.0
3121,4.502322828044966,0.0
3122,6.963850126745917,0.0
3123,-0.6674188557722085,0.0
3124,-1.0017922346401136,0.0
3125,1.7722716360285893,0.0
3126,-0.300410178105281,0.0
3127,0.5917143555708371,0.0
3128,0.4619079328198423,0.0
3129,0.40624483276900475,0.0
3130,0.4729651840738973,0.0
3131,0.44589538853463606,0.0
3132,0.4581148160571228,0.0
3133,0.34981816216640127,0.0
3134,0.36255160162217304,0.0
3135,0.3779972773308362,0.0
3136,0.43317038124641793,0.0
3137,0.3452617450508421,0.0
3138,0.42095468271836434,0.0
3139,0.4232096094754227,0.0
3140,0.8551991834499738,0.0
3141,4.49623289475131,0.0
3142,7.116147993994254,0.0
3143,-0.6483885334787449,0.0
3144,-1.0792421640636674,0.0
3145,1.8815938763696196,0.0
3146,-0.39201611982867945,0.0
3147,0.6878483125464026,0.0
3148,0.4042305622550221,0.0
3149,0.32060108320265507,0.0
3150,0.4444308509542264,0.0
3151,0.47935303463249074,0.0
3152,0.4275107677937566,0.0
3153,0.42001751643417984,0.0
3154,0.40846406370283983,0.0
3155,0.42201000116810766,0.0
3156,0.36360984295517756,0.0
3157,0.42920761679749075,0.0
3158,0.4576324545649507,0.0
3159,0.4457528315676453,0.0
3160,0.9944103228712575,0.0
3161,4.582417530563268,0.0
3162,7.021039717603092,0.0
3163,-0.5892592163808152,0.0
3164,-0.9356871375743951,0.0
3165,1.8742814030855754,0.0
3166,-0.26735436344559405,0.0
3167,0.6749032770306995,0.0
3168,0.4938270219987659,0.0
3169,0.32210170263189164,0.0
3170,0.3094754337844942,0.0
3171,0.47025392828884305,0.0
3172,0.4764899349285078,0.0
3173,0.46914231426445113,0.0
3174,0.5335560939881594,0.0
3175,0.4624533973412079,0.0
3176,0.43989193382102415,0.0
3177,0.49546266802549527,0.0
3178,0.5186396090581781,0.0
3179,0.5513864410189474,0.0
3180,0.9102286276042196,0.0
3181,4.6223721378530644,0.0
3182,7.172100044104657,0.0
3183,-0.4813604069404712,0.0
3184,-0.9482000236218036,0.0
3185,1.974370278576429,0.0
3186,-0.28481562946789224,0.0
3187,0.7794144174805616,0.0
3188,0.47969760212263346,0.0
3189,0.5801097177690148,0.0
3190,0.45477534222267474,0.0
3191,0.4350872951249622,0.0
3192,0.4398090219858987,0.0
3193,0.5586917931998914,0.0
3194,0.48804346652995184,0.0
3195,0.4888328013123217,0.0
3196,0.5501766089962513,0.0
3197,0.3786038860616966,0.0
3198,0.5210824086790725,0.0
3199,0.450586454760695,0.0
3200,0.8838396638169363,0.0
3201,4.4901291763092885,0.0
3202,7.03741853702731,0.0
3203,-0.6005812682102442,0.0
3204,-0.9052658099045864,0.0
3205,1.8668627210864717,0.0
3206,-0.4419687203330798,0.0
3207,0.6842126815811154,0.0
3208,0.4101540026616242,0.0
3209,0.4934298911127962,0.0
3210,0.4907947152548481,0.0
3211,0.4090979874964931,0.0
3212,0.44725029098986846,0.0
3213,0.3645566497302487,0.0
3214,0.43901168549276254,0.0
3215,0.47292494787792294,0.0
3216,0.5302381134144747,0.0
3217,0.489445819647499,0.0
3218,0.4703648609687185,0.0
3219,0.5244125918588001,0.0
3220,0.9000927854747738,0.0
3221,4.563619460413153,0.0
3222,7.118344491433533,0.0
3223,-0.5378607853553117,0.0
3224,-0.9063746185049297,0.0
3225,1.9047015849432472,0.0
3226,-0.2509471841648535,0.0
3227,0.7639015963696032,0.0
3228,0.4327929515416627,0.0
3229,0.41273820205710865,0.0
3230,0.36919423874446583,0.0
3231,0.42099347833612283,0.0
3232,0.5577660682381658,0.0
3233,0.410444226339553,0.0
3234,0.48190581745797406,0.0
3235,0.48583925293695324,0.0
3236,0.45217364345450145,0.0
3237,0.3991317362211114,0.0
3238,0.4619994092182693,0.0
3239,0.4714271769603914,0.0
3240,0.790686410691543,0.0
3241,4.702983899465761,0.0
3242,7.152208805258548,0.0
3243,-0.7262915421031351,0.0
3244,-0.9975393969972155,0.0
3245,1.8844154109778146,0.0
3246,-0.3021260879919062,0.0
3247,0.8222174186507395,0.0
3248,0.48690336578218263,0.0
3249,0.5011539796412519,0.0
3250,0.49275318067370677,0.0
3251,0.4960195321860834,0.0
3252,0.5281639666001471,0.0
3253,0.4569547325491598,0.0
3254,0.43588683582905213,0.0
3255,0.43009786871769257,0.0
3256,0.5272638761073335,0.0
3257,0.5031447349200435,0.0
3258,0.5551241920889814,0.0
3259,0.5858415765476072,0.0
3260,0.908940519112333,0.0
3261,4.601588827201393,0.0
3262,7.07941312334152,0.0
3263,-0.5382496314415046,0.0
3264,-1.0031537334757499,0.0
3265,1.9588572698777562,0.0
3266,-0.27875351847192875,0.0
3267,0.7424536493255914,0.0
3268,0.3693123112077875,0.0
3269,0.3924540827636219,0.0
3270,0.5528067410245692,0.0
3271,0.4667189833959558,0.0
3272,0.41059762517906,0.0
3273,0.4676903973209783,0.0
3274,0.4598806030611204,0.0
3275,0.4658919212674153,0.0
3276,0.4168226859809905,0.0
3277,0.5295891970716762,0.0
3278,0.534986200511816,0.0
3279,0.5094448844312088,0.0
3280,0.9026495520514106,0.0
3281,4.5313139052125635,0.0
3282,7.137415715586182,0.0
3283,-0.7219943072838979,0.0
3284,-0.9051237132162469,0.0
3285,1.928193009932246,0.0
3286,-0.3887339578089545,0.0
3287,0.7097558055351633,0.0
3288,0.4470851284105628,0.0
3289,0.46722991948277875,0.0
3290,0.461702129220678,0.0
3291,0.5625682762690101,0.0
3292,0.40630194696772487,0.0
3293,0.5426317542423291,0.0
3294,0.506183317869712,0.0
3295,0.48798821763066086,0.0
3296,0.5608468134132786,0.0
3297,0.49730797090863477,0.0
3298,0.4847074798475689,0.0
3299,0.5203010376081052,0.0
3300,0.7943266599316792,0.0
3301,4.503293258386182,0.0
3302,7.069314422591788,0.0
3303,-0.7154673448542752,0.0
3304,-1.0364978310507449,0.0
3305,1.8089714939716157,0.0
3306,-0.37246865977686333,0.0
3307,0.674343199441044,0.0
3308,0.47939010619475825,0.0
3309,0.45986161181369195,0.0
3310,0.542665558358977,0.0
3311,0.4896202798017118,0.0
3312,0.5127904635211019,0.0
3313,0.4390045286072966,0.0
3314,0.4609180756021021,0.0
3315,0.422873612065878,0.0
3316,0.4273063908441753,0.0
3317,0.4405038133540864,0.0
3318,0.34607915160267794,0.0
3319,0.38048517580304014,0.0
3320,0.8104985969022445,0.0
3321,4.543856279339333,0.0
3322,6.929378449458273,0.0
3323,-0.6499851414901664,0.0
3324,-1.208644262146067,0.0
3325,1.7452781322806328,0.0
3326,-0.4867693982101636,0.0
3327,0.5481347099567812,0.0
3328,0.41827191615655235,0.0
3329,0.44099194663781394,0.0
3330,0.38509265124009323,0.0
3331,0.3810064495194393,0.0
3332,0.5273064190431499,0.0
3333,0.4645653629737192,0.0
3334,0.39283335204339825,0.0
3335,0.34252599696775,0.0
3336,0.35916786008004736,0.0
3337,0.2523778690852468,0.0
3338,0.4796368452686485,0.0
3339,0.3203415242311,0.0
3340,0.7531014158113583,0.0
3341,4.412103886030703,0.0
3342,7.041393755811577,0.0
3343,-0.7444688913064396,0.0
3344,-1.0784382440666402,0.0
3345,1.781493698949775,0.0
3346,-0.3837372913850664,0.0
3347,0.6550524268036116,0.0
3348,0.4477787876362749,0.0
3349,0.3578470946616782,0.0
3350,0.43652508555138964,0.0
3351,0.41563289116799534,0.0
3352,0.3958217050101411,0.0
3353,0.36755874064321803,0.0
3354,0.41129688735985015,0.0
3355,0.45184907622000553,0.0
3356,0.4289865980014376,0.0
3357,0.4196592922080033,0.0
3358,0.43754701563364473,0.0
3359,0.3648848434883265,0.0
3360,0.7744871175562145,0.0
3361,4.497196816201328,0.0
3362,7.015445412899961,0.0
3363,-0.9128944001648548,0.0
3364,-1.0676569289392577,0.0
3365,1.7187339139334599,0.0
3366,-0.5142009108513261,0.0
3367,0.5200626439589404,0.0
3368,0.2940809727860569,0.0
3369,0.37141995605042244,0.0
3370,0.3274056678511124,0.0
3371,0.309938820955936,0.0
3372,0.3526192306869102,0.0
3373,0.2966017595870326,0.0
3374,0.2511399459019563,0.0
3375,0.350268586800389,0.0
3376,0.4039354558169495,0.0
3377,0.2972810912814927,0.0
3378,0.2280817976467081,0.0
3379,0.3618337153522597,0.0
3380,0.7286629614034574,0.0
3381,4.45872443585836,0.0
3382,6.8724228699329295,0.0
3383,-0.8164032280094924,0.0
3384,-1.1812610609300482,0.0
3385,1.6702395783159112,0.0
3386,-0.40301363769858517,0.0
3387,0.6601552473404415,0.0
3388,0.25889706346212554,0.0
3389,0.2940775670097929,0.0
3390,0.37498073805913795,0.0
3391,0.2920295945314526,0.0
3392,0.2645424487252752,0.0
3393,0.3327723482295789,0.0
3394,0.2517301878222232,0.0
3395,0.2584813757544555,0.0
3396,0.2281209505113562,0.0
3397,0.22534392882170318,0.0
3398,0.3062967269020538,0.0
3399,0.26690053549990395,0.0
3400,0.7668075966649965,0.0
3401,4.35543558739465,0.0
3402,6.987350384215359,0.0
3403,-0.8880111659789724,0.0
3404,-1.1765660914483367,0.0
3405,1.7117533366759194,0.0
3406,-0.5425151572702428,0.0
3407,0.47766528315695267,0.0
3408,0.22207347514176543,0.0
3409,0.08195311547481415,0.0
3410,0.28562830951591034,0.0
3411,0.16482757270022258,0.0
3412,0.23296722008818954,0.0
3413,0.23396778191651468,0.0
3414,0.19441715523982975,0.0
3415,0.3202760388898578,0.0
3416,0.3413550737353927,0.0
3417,0.2066800082835543,0.0
3418,0.3065569913531208,0.0
3419,0.18696714086904914,0.0
3420,0.6517461619640744,0.0
3421,4.307847577670113,0.0
3422,6.904924352908412,0.0
3423,-0.9044640326889849,0.0
3424,-1.0926594490533839,0.0
3425,1.6206573849653882,0.0
3426,-0.6231923634606791,0.0
3427,0.33402963126894736,0.0
3428,0.21240771562889665,0.0
3429,0.1208538656096379,0.0
3430,0.17038714312991105,0.0
3431,0.19904602512299369,0.0
3432,0.22591684556562816,0.0
3433,0.05323795073673243,0.0
3434,0.23114492114588983,0.0
3435,0.23486555693182332,0.0
3436,0.033679331015451175,0.0
3437,0.19455724413447328,0.0
3438,0.15160641014236523,0.0
3439,0.10694215713817334,0.0
3440,0.5194707966441119,0.0
3441,4.2351776881962415,0.0
3442,6.673669079002325,0.0
3443,-1.0366614965370913,0.0
3444,-1.1998972576886708,0.0
3445,1.5748697305223431,0.0
3446,-0.5877305703838716,0.0
3447,0.47037767081786597,0.0
3448,0.05413584774781341,0.0
3449,0.10829825969547803,0.0
3450,0.17245804243503335,0.0
3451,0.13758507852899493,0.0
3452,0.08526997956765897,0.0
3453,0.11682852600504176,0.0
3454,0.06823138888949686,0.0
3455,0.0675319540901484,0.0
3456,0.0674037357630983,0.0
3457,0.04828876667949765,0.0
3458,0.0847770463199139,0.0
3459,0.06994357663873588,0.0
3460,0.39435324581100684,0.0
3461,4.214000106120863,0.0
3462,6.579669521605437,0.0
3463,-1.1916010761225082,0.0
3464,-1.3191029548212707,0.0
3465,1.4297592930345386,0.0
3466,-0.6872676314001464,0.0
3467,0.28135072850553344,0.0
3468,-0.017934159749345244,0.0
3469,0.1882092037170444,0.0
3470,0.21514818888734352,0.0
3471,0.094752950893268,0.0
3472,0.03416096133480085,0.0
3473,0.1490549926596628,0.0
3474,0.04143409960862145,0.0
3475,0.05937856902995251,0.0
3476,0.12340944774965551,0.0
3477,0.0731070958799852,0.0
3478,0.0581252918844819,0.0
3479,0.008146687895520262,0.0
3480,0.47163232085192613,0.0
3481,4.165607499240577,0.0
3482,6.673022932674216,0.0
3483,-1.0585784381718057,0.0
3484,-1.3174717236362705,0.0
3485,1.5053908357448202,0.0
3486,-0.6618472604631778,0.0
3487,0.3026724220511129,0.0
3488,0.07942308201610043,0.0
3489,-0.015584766975702425,0.0
3490,0.021000488099790306,0.0
3491,0.005340664816825057,0.0
3492,0.05562158614119502,0.0
3493,-0.0018622670443077353,0.0
3494,-0.00725590099360819,0.0
3495,-0.10836597243795779,0.0
3496,0.0063144576742179825,0.0
3497,-0.011588773309702061,0.0
3498,0.05287547054828184,0.0
3499,-0.08459309068554151,0.0
3500,0.3988203977915778,0.0
3501,4.150413754773458,0.0
3502,6.422278958099188,0.0
3503,-1.1432194177670216,0.0
3504,-1.3130382383028956,0.0
3505,1.4236550518544884,0.0
3506,-0.8266057149696302,0.0
3507,0.22419228120969506,0.0
3508,-0.06719057189898688,0.0
3509,-0.16575322737342324,0.0
3510,-0.06271887274885767,0.0
3511,0.02220596019587618,0.0
3512,-0.09196736182986291,0.0
3513,-0.07220143516277262,0.0
3514,0.023162472378202636,0.0
3515,-0.025633716056663505,0.0
3516,0.03793848101789998,0.0
3517,-0.007614520314401397,0.0
3518,-0.029813099072806,0.0
3519,-0.07226196423497931,0.0
3520,0.41132439493083184,0.0
3521,4.189601910133101,0.0
3522,6.461400643914583,0.0
3523,-1.2955350540032038,0.0
3524,-1.474977567111986,0.0
3525,1.3864392574662625,0.0
3526,-0.8264342073682456,0.0
3527,0.17175252076983344,0.0
3528,-0.06703940325671473,0.0
3529,-0.1861402033311446,0.0
3530,-0.08901200939008475,0.0
3531,-0.09337293767638735,0.0
3532,-0.23962559747108414,0.0
3533,-0.11591393718625523,0.0
3534,-0.24886816178657015,0.0
3535,-0.21720132932599412,0.0
3536,-0.08726172315292582,0.0
3537,-0.059456465333303586,0.0
3538,-0.15492615367196863,0.0
3539,-0.16624113937067578,0.0
3540,0.17623240404330712,0.0
3541,3.9904763816908355,0.0
3542,6.403777212295594,0.0
3543,-1.2972870871019127,0.0
3544,-1.494833359460253,0.0
3545,1.1929950864070062,0.0
3546,-0.8686719579488547,0.0
3547,0.06172694292910971,0.0
3548,-0.1726190940214119,0.0
3549,-0.12471399168122625,0.0
3550,-0.08327268419133887,0.0
3551,-0.14084234000700424,0.0
3552,-0.16060086677120344,0.0
3553,-0.22536382613970474,0.0
3554,-0.21075743177750741,0.0
3555,-0.2083918890193502,0.0
3556,-0.15951497447607776,0.0
3557,-0.10665825059270419,0.0
3558,-0.05918133784925547,0.0
3559,-0.23958337401736468,0.0
3560,0.2916584611376266,0.0
3561,3.835801610447746,0.0
3562,6.365051574442793,0.0
3563,-1.3303339929927773,0.0
3564,-1.6008836609689927,0.0
3565,1.1464370706169458,0.0
3566,-0.9808699863545792,0.0
3567,0.1190553992054858,0.0
3568,-0.28750358528512426,0.0
3569,-0.2655321423585728,0.0
3570,-0.1634361113789934,0.0
3571,-0.3200922231514172,0.0
3572,-0.25313442683647447,0.0
3573,-0.258160264066737,0.0
3574,-0.12465106176765743,0.0
3575,-0.24857853357492765,0.0
3576,-0.2193852182016533,0.0
3577,-0.24113529908443448,0.0
3578,-0.1532928265530323,0.0
3579,-0.12193190973676582,0.0
3580,0.22165965497302229,0.0
3581,3.9936935260843525,0.0
3582,6.343462862104036,0.0
3583,-1.4703505150216896,0.0
3584,-1.6204460391372537,0.0
3585,1.0904729490903364,0.0
3586,-1.0818198797762157,0.0
3587,0.020274032058233443,0.0
3588,-0.2811688521265723,0.0
3589,-0.2389917178562602,0.0
3590,-0.343942355340368,0.0
3591,-0.22654422823518763,0.0
3592,-0.2117693402887011,0.0
3593,-0.2618405158023029,0.0
3594,-0.2166038625169293,0.0
3595,-0.32082024835182954,0.0
3596,-0.2907383379427531,0.0
3597,-0.3199165142348036,0.0
3598,-0.3641729566880116,0.0
3599,-0.27757907064476844,0.0
3600,0.05177196969837272,0.0
3601,3.9806307568250543,0.0
3602,6.362717558795782,0.0
3603,-1.4829912565317993,0.0
3604,-1.592284888493729,0.0
3605,1.1324717650603564,0.0
3606,-1.0640109490995968,0.0
3607,-0.08146811598465528,0.0
3608,-0.319192799746433,0.0
3609,-0.284490847045869,0.0
3610,-0.2529106017598197,0.0
3611,-0.4084897648781037,0.0
3612,-0.36564258937109617,0.0
3613,-0.2459166577214959,0.0
3614,-0.3159331799513282,0.0
3615,-0.22083844269858258,0.0
3616,-0.2317093173762462,0.0
3617,-0.30592914219241435,0.0
3618,-0.36799499450462575,0.0
3619,-0.3747445782777933,0.0
3620,0.15625855963866558,0.0
3621,3.7617979401006205,0.0
3622,6.213681475402967,0.0
3623,-1.580443786818838,0.0
3624,-1.7398402168922682,0.0
3625,1.0837862633183803,0.0
3626,-1.2084795208153043,0.0
3627,-0.22059627021563125,0.0
3628,-0.417770478255573,0.0
3629,-0.34419911810940834,0.0
3630,-0.33873179299833484,0.0
3631,-0.3575809087094806,0.0
3632,-0.44876980060423366,0.0
3633,-0.42253569512037065,0.0
3634,-0.3611543897064375,0.0
3635,-0.40167868753637964,0.0
3636,-0.3921852306363369,0.0
3637,-0.2723160558601142,0.0
3638,-0.33225759426232354,0.0
3639,-0.40787684310331684,0.0
3640,0.046178176976580054,0.0
3641,3.7659710190739992,0.0
3642,6.164203315363888,0.0
3643,-1.5776893110089807,0.0
3644,-1.779012934107497,0.0
3645,1.006961145435481,0.0
3646,-1.2305584612155036,0.0
3647,-0.1577024208205132,0.0
3648,-0.47248459020607725,0.0
3649,-0.46449759442033794,0.0
3650,-0.31858420705070245,0.0
3651,-0.3744100158804714,0.0
3652,-0.4527347205500577,0.0
3653,-0.44100446327239345,0.0
3654,-0.5176594556449552,0.0
3655,-0.41116122279785877,0.0
3656,-0.4303863684505271,0.0
3657,-0.36248821499330475,0.0
3658,-0.4652595392822679,0.0
3659,-0.3680533518827368,0.0
3660,0.11171636428781201,0.0
3661,3.726647487472014,0.0
3662,6.091333292226912,0.0
3663,-1.617889822944479,0.0
3664,-1.7483917505787057,0.0
3665,0.9555704500023893,0.0
3666,-1.2235134514257977,0.0
3667,-0.23786427674499974,0.0
3668,-0.5014095442253085,0.0
3669,-0.4413819614445328,0.0
3670,-0.35448763322520094,0.0
3671,-0.4917886058022974,0.0
3672,-0.4847578614034039,0.0
3673,-0.3580863197068376,0.0
3674,-0.4586737831268315,0.0
3675,-0.5468541185393835,0.0
3676,-0.42325796854528835,0.0
3677,-0.5020306028886308,0.0
3678,-0.4410157112745304,0.0
3679,-0.4492191191664556,0.0
3680,-0.028324177472256684,0.0
3681,3.77938710027063,0.0
3682,6.078664362925426,0.0
3683,-1.624735847041954,0.0
3684,-1.8581556716725665,0.0
3685,0.9284613514985902,0.0
3686,-1.1296720172245283,0.0
3687,-0.33130349853860225,0.0
3688,-0.5013792339634393,0.0
3689,-0.46865890866509907,0.0
3690,-0.4860855059018302,0.0
3691,-0.4564412095133688,0.0
3692,-0.4531567868383667,0.0
3693,-0.4879583796852282,0.0
3694,-0.5024783705627002,0.0
3695,-0.576794407454842,0.0
3696,-0.4906827035870804,0.0
3697,-0.45237519387651054,0.0
3698,-0.500105668325115,0.0
3699,-0.6476389125694818,0.0
3700,0.008678803575287108,0.0
3701,3.5664088176632767,0.0
3702,5.9830309555471075,0.0
3703,-1.8653479955750316,0.0
3704,-1.925748316325968,0.0
3705,0.841011809274661,0.0
3706,-1.289416129673031,0.0
3707,-0.20079848801757144,0.0
3708,-0.5193373383601582,0.0
3709,-0.4926803106921277,0.0
3710,-0.5422559452628487,0.0
3711,-0.48284810728795463,0.0
3712,-0.5055858327690357,0.0
3713,-0.5376240772611781,0.0
3714,-0.4730999545025446,0.0
3715,-0.44656129859086696,0.0
3716,-0.5514551373364305,0.0
3717,-0.4402300789731755,0.0
3718,-0.5189521721262738,0.0
3719,-0.48823321010435494,0.0
3720,0.03230687587186676,0.0
3721,3.7289450465982616,0.0
3722,6.104693116164419,0.0
3723,-1.7416443599760019,0.0
3724,-1.8015489057524219,0.0
3725,0.9460683573557593,0.0
3726,-1.4366295357561976,0.0
3727,-0.2754963460132381,0.0
3728,-0.4652709857195694,0.0
3729,-0.5063172377469907,0.0
3730,-0.46728144173767455,0.0
3731,-0.48732944378492304,0.0
3732,-0.6335552620105414,0.0
3733,-0.5289728726909491,0.0
3734,-0.48136262073658426,0.0
3735,-0.5728618262959171,0.0
3736,-0.4547598964988681,0.0
3737,-0.5324615671411979,0.0
3738,-0.5259293473269225,0.0
3739,-0.46134259462323846,0.0
3740,-0.09619090847421558,0.0
3741,3.6185109991131794,0.0
3742,6.030758205014643,0.0
3743,-1.6713938861024416,0.0
3744,-1.8004286664858111,0.0
3745,0.933866626719603,0.0
3746,-1.3400803082887665,0.0
3747,-0.14815667958151701,0.0
3748,-0.5573857900729593,0.0
3749,-0.5077549771248885,0.0
3750,-0.5782093535797329,0.0
3751,-0.5687047129250111,0.0
3752,-0.5518357907414899,0.0
3753,-0.5492426648202784,0.0
3754,-0.47795079281211306,0.0
3755,-0.5748984545026341,0.0
3756,-0.48162545979110183,0.0
3757,-0.5545821964770681,0.0
3758,-0.5500671535141546,0.0
3759,-0.565216339144453,0.0
3760,-0.13328376265218006,0.0
3761,3.5789844747219033,0.0
3762,6.073346684148456,0.0
3763,-1.7568474827873297,0.0
3764,-1.8379346233668459,0.0
3765,0.8993413652491971,0.0
3766,-1.278097681790292,0.0
3767,-0.12808656590764012,0.0
3768,-0.5080675192179466,0.0
3769,-0.45121804791096815,0.0
3770,-0.5537857102590223,0.0
3771,-0.4623314445331227,0.0
3772,-0.4814501302036462,0.0
3773,-0.5142272478243919,0.0
3774,-0.38192595602031865,0.0
3775,-0.3915317819482935,0.0
3776,-0.5006473638730679,0.0
3777,-0.5116938375033275,0.0
3778,-0.3477598033006477,0.0
3779,-0.5335893854439949,0.0
3780,-0.17999887562653016,0.0
3781,3.746717096669072,0.0
3782,5.9700338092350185,0.0
3783,-1.690333715467923,0.0
3784,-1.6910340428267832,0.0
3785,0.9386409301311077,0.0
3786,-1.2899788386462765,0.0
3787,-0.2895520303197494,0.0
3788,-0.5627677225938201,0.0
3789,-0.4699840968802571,0.0
3790,-0.5289421373303622,0.0
3791,-0.5338526990209624,0.0
3792,-0.5026621695678425,0.0
3793,-0.42139198962990415,0.0
3794,-0.5349009104218362,0.0
3795,-0.47404080977394447,0.0
3796,-0.36576178180932306,0.0
3797,-0.41880444343312495,0.0
3798,-0.47356550618928195,0.0
3799,-0.41817542026824267,0.0
3800,0.029757997490573895,0.0
3801,3.76528196174669,0.0
3802,6.200291921750069,0.0
3803,-1.7220498682585033,0.0
3804,-1.6486759774635669,0.0
3805,1.0336980991278475,0.0
3806,-1.2200766459026497,0.0
3807,-0.07884743017016921,0.0
3808,-0.5030723029104293,0.0
3809,-0.39386760903650325,0.0
3810,-0.39455454835728343,0.0
3811,-0.46262731471068147,0.0
3812,-0.3734010134206928,0.0
3813,-0.4327614994220143,0.0
3814,-0.5588613418503406,0.0
3815,-0.495413906869599,0.0
3816,-0.5076427544563892,0.0
3817,-0.4483848853028999,0.0
3818,-0.4132644753570423,0.0
3819,-0.4088035170698489,0.0
3820,-0.03657320394363556,0.0
3821,3.728242562487725,0.0
3822,6.124676894407715,0.0
3823,-1.6476631943200644,0.0
3824,-1.6762114900984824,0.0
3825,0.8931986834693368,0.0
3826,-1.2654727161948411,0.0
3827,-0.1434784657399537,0.0
3828,-0.42332777826413504,0.0
3829,-0.46486491141267805,0.0
3830,-0.3597259236647666,0.0
3831,-0.47675090742447684,0.0
3832,-0.519560690539433,0.0
3833,-0.406807123416599,0.0
3834,-0.39792056273927007,0.0
3835,-0.363416026802479,0.0
3836,-0.4154393357817266,0.0
3837,-0.45185995512104604,0.0
3838,-0.4201729960401741,0.0
3839,-0.34847747430872994,0.0
3840,0.014021266221187267,0.0
3841,3.876772329099138,0.0
3842,6.11337554433673,0.0
3843,-1.7035466943386317,0.0
3844,-1.6994378933615286,0.0
3845,1.027129967645775,0.0
3846,-1.121977364626829,0.0
3847,-0.1510633855960391,0.0
3848,-0.3337106061188418,0.0
3849,-0.41988022500782907,0.0
3850,-0.3734706664081801,0.0
3851,-0.4091464940321785,0.0
3852,-0.38899207263296187,0.0
3853,-0.38878213880893026,0.0
3854,-0.4069696357747752,0.0
3855,-0.45081358259242216,0.0
3856,-0.48819534014651667,0.0
3857,-0.3317539582323034,0.0
3858,-0.3566537424107182,0.0
3859,-0.2784467030340515,0.0
3860,0.013551711727306182,0.0
3861,3.881888137764845,0.0
3862,6.114867530119719,0.0
3863,-1.615901765131055,0.0
3864,-1.72546408708653,0.0
3865,1.0742478586121342,0.0
3866,-1.157606528629428,0.0
3867,-0.02129911752969954,0.0
3868,-0.3744422472673173,0.0
3869,-0.49107388142614966,0.0
3870,-0.23787877697505208,0.0
3871,-0.2475940708252702,0.0
3872,-0.3248467382935559,0.0
3873,-0.3517260653228763,0.0
3874,-0.2685244478465645,0.0
3875,-0.39031914504709947,0.0
3876,-0.36923920051950476,0.0
3877,-0.28905188270472504,0.0
3878,-0.3616885962459925,0.0
3879,-0.3687770731175429,0.0
3880,0.09407555299444548,0.0
3881,3.882241451088095,0.0
3882,6.173418675851972,0.0
3883,-1.717398761408317,0.0
3884,-1.7598695595443445,0.0
3885,0.9472591941369527,0.0
3886,-1.2672289952106583,0.0
3887,-0.27152395398522067,0.0
3888,-0.36820179495120486,0.0
3889,-0.34578422406269066,0.0
3890,-0.3725449698236237,0.0
3891,-0.3778136917969931,0.0
3892,-0.3597683236917882,0.0
3893,-0.29559022969902743,0.0
3894,-0.31362047089055517,0.0
3895,-0.3199733885538535,0.0
3896,-0.2013487091316181,0.0
3897,-0.2786894204722049,0.0
3898,-0.37908079582882537,0.0
3899,-0.35668483075853297,0.0
3900,0.106045990997778,0.0
3901,3.7953807132430035,0.0
3902,6.042673217934017,0.0
3903,-1.6348395732016971,0.0
3904,-1.575817755100639,0.0
3905,1.2155514801634042,0.0
3906,-1.3006853286375029,0.0
3907,-0.1456996114255869,0.0
3908,-0.3004241432572948,0.0
3909,-0.3639693498344765,0.0
3910,-0.33208303528964844,0.0
3911,-0.3087015059079614,0.0
3912,-0.18865158116950068,0.0
3913,-0.3173529045726848,0.0
3914,-0.25224564138155253,0.0
3915,-0.3408515643611047,0.0
3916,-0.30978945251579615,0.0
3917,-0.18179283307818594,0.0
3918,-0.2503149018110598,0.0
3919,-0.3995755124732204,0.0
3920,0.07842680832854737,0.0
3921,4.039301940691335,0.0
3922,6.245076121391641,0.0
3923,-1.4937333616566963,0.0
3924,-1.5545192289301786,0.0
3925,1.2159519690344216,0.0
3926,-0.9897017810796275,0.0
3927,-0.011504346661945358,0.0
3928,-0.2853833200624521,0.0
3929,-0.2474618794701749,0.0
3930,-0.13112247077710915,0.0
3931,-0.29941003912391473,0.0
3932,-0.21255895907654848,0.0
3933,-0.0795111941627091,0.0
3934,-0.1946902844208257,0.0
3935,-0.2676939201207738,0.0
3936,-0.19870638501091176,0.0
3937,-0.15648010782145633,0.0
3938,-0.17873036986654328,0.0
3939,-0.2086975043616686,0.0
3940,0.1739775452023728,0.0
3941,4.076415678419749,0.0
3942,6.302727632543878,0.0
3943,-1.5686844461770988,0.0
3944,-1.5857849032286944,0.0
3945,1.1241967851801353,0.0
3946,-1.0989277887264326,0.0
3947,0.07784770666764346,0.0
3948,-0.31336608556037815,0.0
3949,-0.34432366033670103,0.0
3950,-0.32295479282316053,0.0
3951,-0.24171947538815614,0.0
3952,-0.309930708718843,0.0
3953,-0.4036685566162258,0.0
3954,-0.28580239441064204,0.0
3955,-0.31567114507503496,0.0
3956,-0.24356064479002204,0.0
3957,-0.28245655347209864,0.0
3958,-0.21967341087515266,0.0
3959,-0.26623231351536675,0.0
3960,0.23833631117247644,0.0
3961,4.096762849415208,0.0
3962,6.407342561265619,0.0
3963,-1.4779298428876404,0.0
3964,-1.3423814321682614,0.0
3965,1.2995202982152352,0.0
3966,-0.9305804480061809,0.0
3967,0.08647836226802005,0.0
3968,-0.25563502043918235,0.0
3969,-0.22383581050251827,0.0
3970,-0.10825417932919,0.0
3971,-0.08605697675871929,0.0
3972,-0.10265766808194407,0.0
3973,-0.13789938435993238,0.0
3974,-0.13787270321795148,0.0
3975,-0.0830765993868729,0.0
3976,-0.1459848084793108,0.0
3977,-0.16723721676880893,0.0
3978,-0.11768257521906836,0.0
3979,-0.1325112118874528,0.0
3980,0.295931677053842,0.0
3981,4.078015115627272,0.0
3982,6.431426028029416,0.0
3983,-1.355354195688565,0.0
3984,-1.4641908419795977,0.0
3985,1.2271496398874195,0.0
3986,-0.9051345005304025,0.0
3987,0.20296887510222902,0.0
3988,-0.17911502788353595,0.0
3989,-0.03360562884499336,0.0
3990,0.028511650406985528,0.0
3991,-0.16008852302308893,0.0
3992,-0.01676866929459053,0.0
3993,-0.12330337926766426,0.0
3994,-0.02329442372928436,0.0
3995,-0.099948054982963,0.0
3996,-0.004198976132704875,0.0
3997,-0.0643700898487115,0.0
3998,0.03762178575284085,0.0
3999,-0.11311111650666453,0.0
4000,0.4106063942053359,0.0
4001,4.176442433630294,0.0
4002,6.469135449232096,0.0
4003,-1.3247776546577337,0.0
4004,-1.2485262960180807,0.0
4005,1.3305443114996984,0.0
4006,-0.9463145645134752,0.0
4007,0.27548210467612516,0.0
4008,-0.06969529009601441,0.0
4009,-0.018758938958414875,0.0
4010,0.04795939598936708,0.0
4011,-0.030111207754291568,0.0
4012,0.027475986984825188,0.0
4013,0.03421565041312388,0.0
4014,0.0020154482373035054,0.0
4015,0.08691474370332619,0.0
4016,0.015692657234930615,0.0
4017,0.12313560966691639,0.0
4018,0.09733475985240085,0.0
4019,0.16020766416970145,0.0
4020,0.5554063653229859,0.0
4021,4.316416254785049,0.0
4022,6.560693690898542,0.0
4023,-1.255746849477278,0.0
4024,-1.239405409823044,0.0
4025,1.440809373638181,0.0
4026,-0.6146062559341448,0.0
4027,0.25853859950214536,0.0
4028,0.08003632589456475,0.0
4029,0.1124864978314433,0.0
4030,0.14820489295984374,0.0
4031,0.12053697851744077,0.0
4032,0.10385905728061488,0.0
4033,0.03433558488920878,0.0
4034,0.0193820993242521,0.0
4035,0.03977680092961189,0.0
4036,0.08066791322381377,0.0
4037,0.15625788258179507,0.0
4038,0.17980612531715692,0.0
4039,0.12034597775051292,0.0
4040,0.5131434974901163,0.0
4041,4.217365895195262,0.0
4042,6.610897872817859,0.0
4043,-1.2543261323170845,0.0
4044,-1.1957153391729887,0.0
4045,1.4445359201932657,0.0
4046,-0.6528615826544655,0.0
4047,0.2768348969722382,0.0
4048,0.09041187238291794,0.0
4049,0.13414625553773024,0.0
4050,0.0941883526991168,0.0
4051,0.11052791048365501,0.0
4052,0.07207082406349061,0.0
4053,0.08688665605996629,0.0
4054,0.08598791885982864,0.0
4055,0.04881887353066314,0.0
4056,0.05488752987072953,0.0
4057,0.20347114709931605,0.0
4058,0.2176101702254698,0.0
4059,0.3253183780857387,0.0
4060,0.6428303892643086,0.0
4061,4.385669405302259,0.0
4062,6.608341668447751,0.0
4063,-0.9966598030629117,0.0
4064,-1.0264861378062808,0.0
4065,1.6654298208156455,0.0
4066,-0.5169453133200467,0.0
4067,0.41351404449303475,0.0
4068,0.16763599552047087,0.0
4069,0.23679084044265553,0.0
4070,0.2554455052379461,0.0
4071,0.08965354331141784,0.0
4072,0.2777863365337103,0.0
4073,0.11199375915239226,0.0
4074,0.2598146575133032,0.0
4075,0.1933284956794869,0.0
4076,0.2525914425310104,0.0
4077,0.27261795814184536,0.0
4078,0.18845206756749044,0.0
4079,0.3147047146682824,0.0
4080,0.6703300961723909,0.0
4081,4.381428765842811,0.0
4082,6.737817796601665,0.0
4083,-1.1094711613320205,0.0
4084,-0.9166310586437804,0.0
4085,1.786252285015978,0.0
4086,-0.5578665219949765,0.0
4087,0.5064778359678597,0.0
4088,0.28442793926739074,0.0
4089,0.1588317968520629,0.0
4090,0.3034111793235296,0.0
4091,0.23220905226123736,0.0
4092,0.29005194533271017,0.0
4093,0.35362485535710464,0.0
4094,0.29846120554679184,0.0
4095,0.2787371991961258,0.0
4096,0.2706591968985684,0.0
4097,0.2604878643666544,0.0
4098,0.3502922201068185,0.0
4099,0.37608624098850674,0.0
4100,0.7240694970998129,0.0
4101,4.5410624772748704,0.0
4102,6.8204887139023755,0.0
4103,-1.0488324449697246,0.0
4104,-0.9820644527463159,0.0
4105,1.6457839709571433,0.0
4106,-0.47660700032481285,0.0
4107,0.45678051030518385,0.0
4108,0.3241619906309175,0.0
4109,0.23761090844810495,0.0
4110,0.34423685132992354,0.0
4111,0.30645408011162567,0.0
4112,0.2963497373512403,0.0
4113,0.34916027597683286,0.0
4114,0.36457569597186956,0.0
4115,0.3245851680526496,0.0
4116,0.38707176210012806,0.0
4117,0.35295100709903293,0.0
4118,0.3976058908422149,0.0
4119,0.39333144637886597,0.0
4120,0.7763818249238962,0.0
4121,4.671324410727969,0.0
4122,6.811851386703789,0.0
4123,-1.0481233195070947,0.0
4124,-0.891395001277159,0.0
4125,1.665595517207351,0.0
4126,-0.4550271515311231,0.0
4127,0.7106928997857482,0.0
4128,0.3172324768027877,0.0
4129,0.44942611506185987,0.0
4130,0.3302952699010325,0.0
4131,0.37556628021664745,0.0
4132,0.38905303557309207,0.0
4133,0.40747444877190125,0.0
4134,0.5072915268905537,0.0
4135,0.5109999436263895,0.0
4136,0.5459174101597064,0.0
4137,0.43356152575960055,0.0
4138,0.4085715443944659,0.0
4139,0.41991936162181503,0.0
4140,0.8409768155400381,0.0
4141,4.614543225469949,0.0
4142,6.9003429766745,0.0
4143,-0.951393010652543,0.0
4144,-0.8322899812632384,0.0
4145,1.7685299719484961,0.0
4146,-0.362988232243764,0.0
4147,0.6422584284389384,0.0
4148,0.4008123002676344,0.0
4149,0.39788710690522466,0.0
4150,0.4476568242204723,0.0
4151,0.36953069138465106,0.0
4152,0.346715583452912,0.0
4153,0.4940989605309468,0.0
4154,0.3590328973979095,0.0
4155,0.41920766527153897,0.0
4156,0.3729719060414203,0.0
4157,0.39861214970222714,0.0
4158,0.39941354094319215,0.0
4159,0.4118878772425099,0.0
4160,0.8450857806423323,0.0
4161,4.686443734678153,0.0
4162,6.9061133380001705,0.0
4163,-0.8873158079086345,0.0
4164,-0.8337822703398203,0.0
4165,1.8776806692290509,0.0
4166,-0.3522078113200513,0.0
4167,0.714600602812612,0.0
4168,0.4653776929263134,0.0
4169,0.4029758202375194,0.0
4170,0.4020490471951977,0.0
4171,0.3828401052161607,0.0
4172,0.4263258218851579,0.0
4173,0.5226777509380952,0.0
4174,0.4287611345197858,0.0
4175,0.44331807191145994,0.0
4176,0.5583473778626211,0.0
4177,0.35774971722566035,0.0
4178,0.47179939062703735,0.0
4179,0.4414603246622622,0.0
4180,0.889845795930704,0.0
4181,4.866565298945739,0.0
4182,6.966248567207184,0.0
4183,-0.8032230783228838,0.0
4184,-0.7149086360885147,0.0
4185,1.8240559562241299,0.0
4186,-0.23669939322034017,0.0
4187,0.7962266417827589,0.0
4188,0.5707023912752824,0.0
4189,0.42108996736147447,0.0
4190,0.5791005619669723,0.0
4191,0.4989073192633841,0.0
4192,0.43023891127111474,0.0
4193,0.5279510247764077,0.0
4194,0.4360749302176555,0.0
4195,0.5534163799458043,0.0
4196,0.46107130274284863,0.0
4197,0.5699307376317416,0.0
4198,0.4472314810461572,0.0
4199,0.5310176012365886,0.0
4200,0.9083145376114381,0.0
4201,4.59467504175422,0.0
4202,6.831706978130448,0.0
4203,-0.8335747002003404,0.0
4204,-0.7544244287963731,0.0
4205,1.7736963390811988,0.0
4206,-0.37716412426225193,0.0
4207,0.7930536470998026,0.0
4208,0.47246631037179676,0.0
4209,0.4984026702348697,0.0
4210,0.46790594887617093,0.0
4211,0.4510648731841241,0.0
4212,0.4150512711001249,0.0
4213,0.4359852204200785,0.0
4214,0.3775241571814093,0.0
4215,0.4046514400127683,0.0
4216,0.4806020227414665,0.0
4217,0.5192814261739047,0.0
4218,0.45501671202612415,0.0
