timestamp,value-0,is_anomaly
0,-1.6989847445230664,0.0
1,1.3811527673153994,0.0
2,4.871416309865726,0.0
3,-2.403297000740672,0.0
4,-4.091394000449967,0.0
5,-0.49112218096572313,0.0
6,-2.710336650125619,0.0
7,-1.9177084643935487,0.0
8,-1.9597581100039307,0.0
9,-1.938480242996251,0.0
10,-1.9720287835948465,0.0
11,-2.018942267610192,0.0
12,-2.0591367272545265,0.0
13,-2.0375873496095047,0.0
14,-1.9490026110592729,0.0
15,-1.9557323123458834,0.0
16,-1.9846640571068,0.0
17,-1.931404754584455,0.0
18,-1.9089129868445227,0.0
19,-2.0078736736140286,0.0
20,-1.8416036904319284,0.0
21,1.458024093617086,0.0
22,4.865556553639661,0.0
23,-2.28774400349791,0.0
24,-3.922712826943111,0.0
25,-0.32354475019424633,0.0
26,-2.650288957418577,0.0
27,-1.8950344110973738,0.0
28,-2.0052608713371436,0.0
29,-1.9362585723318095,0.0
30,-2.0354803430091644,0.0
31,-2.109308843778778,0.0
32,-1.9987619704678805,0.0
33,-2.0110352835253362,0.0
34,-2.0274599969249203,0.0
35,-2.023195729476962,0.0
36,-1.9837151547958456,0.0
37,-2.139224217712376,0.0
38,-2.020698199653227,0.0
39,-1.8716642994600683,0.0
40,-1.7625589860072692,0.0
41,1.4499916009535534,0.0
42,4.85492643909136,0.0
43,-2.24802357353,0.0
44,-3.9370978121629623,0.0
45,-0.46143531544101424,0.0
46,-2.763835188316241,0.0
47,-1.8849056334203769,0.0
48,-1.810827081277954,0.0
49,-2.05963206795497,0.0
50,-1.906393211618785,0.0
51,-2.0662152404728515,0.0
52,-1.9557006358750602,0.0
53,-1.9735932229340258,0.0
54,-1.8709232891083,0.0
55,-1.9359618910049934,0.0
56,-1.9608633417217587,0.0
57,-1.8924687794597546,0.0
58,-1.9556711784491523,0.0
59,-1.977143534048988,0.0
60,-1.581159406956803,0.0
61,1.5433079406565609,0.0
62,4.955326083554686,0.0
63,-2.2310648529171524,0.0
64,-3.8841493401176965,0.0
65,-0.5115764880506759,0.0
66,-2.708493450193899,0.0
67,-1.8434839502706322,0.0
68,-1.9804741787891058,0.0
69,-2.1440846848949953,0.0
70,-2.065821161885136,0.0
71,-2.071982014139366,0.0
72,-2.0304616365252155,0.0
73,-1.9993558161426186,0.0
74,-1.9399992293386068,0.0
75,-1.9902722307085385,0.0
76,-2.198752460729349,0.0
77,-2.029869260917037,0.0
78,-1.992474485608804,0.0
79,-1.9512909562042775,0.0
80,-1.7477762265233925,0.0
81,1.5041857044884768,0.0
82,4.9134842267740995,0.0
83,-2.176509399522082,0.0
84,-3.925370319362522,0.0
85,-0.47001899411353776,0.0
86,-2.6180240435563595,0.0
87,-1.8689992211241262,0.0
88,-1.8099073753098374,0.0
89,-2.1525566830195495,0.0
90,-1.9743152097863523,0.0
91,-1.990446006734268,0.0
92,-2.0205787681779017,0.0
93,-2.0847615743520773,0.0
94,-1.9609956781531983,0.0
95,-2.0208877949855784,0.0
96,-1.9614980502999055,0.0
97,-1.944877633483051,0.0
98,-2.083485818468006,0.0
99,-1.88533521554677,0.0
100,-1.551311329300723,0.0
101,1.4786832086915735,0.0
102,5.0017311850403665,0.0
103,-2.2503984708132014,0.0
104,-3.8987363564013124,0.0
105,-0.5573305358589622,0.0
106,-2.637043059905825,0.0
107,-1.637061623549211,0.0
108,-1.9079645922040755,0.0
109,-2.0680265952197354,0.0
110,-1.8167009724633667,0.0
111,-1.867666844806858,0.0
112,-1.9197380780314797,0.0
113,-1.9941957069420615,0.0
114,-1.9886628789531713,0.0
115,-2.02099496853853,0.0
116,-1.9216445583172364,0.0
117,-2.028744382860517,0.0
118,-1.9438354641951017,0.0
119,-2.047968342967092,0.0
120,-1.8389245700077792,0.0
121,1.5622928898677533,0.0
122,4.862462563496715,0.0
123,-2.0826731166842083,0.0
124,-3.92319733016217,0.0
125,-0.4294694301395672,0.0
126,-2.649621774856496,0.0
127,-1.8078745669648337,0.0
128,-1.8968773554227107,0.0
129,-2.1002673801444267,0.0
130,-1.835783175471567,0.0
131,-1.884381787898806,0.0
132,-1.9783141159988538,0.0
133,-1.9386318012580694,0.0
134,-1.9742168207578614,0.0
135,-1.8230332361013888,0.0
136,-1.8434035778418123,0.0
137,-1.8538284662692335,0.0
138,-1.9835314337087382,0.0
139,-1.8673399443825025,0.0
140,-1.775582847608928,0.0
141,1.6846305903014849,0.0
142,4.897307259210605,0.0
143,-2.116192026264578,0.0
144,-3.8244882570555276,0.0
145,-0.23162778309370302,0.0
146,-2.6558260449754654,0.0
147,-1.892096581053079,0.0
148,-1.9444575257781775,0.0
149,-1.95886612324583,0.0
150,-2.0666743973496473,0.0
151,-1.9266683614234135,0.0
152,-2.0105101067077946,0.0
153,-1.9660033767346696,0.0
154,-1.9826440598684352,0.0
155,-2.0040155848077013,0.0
156,-2.0670562625638516,0.0
157,-1.9738887669089458,0.0
158,-1.9206555323782504,0.0
159,-1.8733262602229983,0.0
160,-1.7230671955715346,0.0
161,1.7035135955821488,0.0
162,5.041536035978926,0.0
163,-2.18516825738993,0.0
164,-3.9581281967387056,0.0
165,-0.35527992826021926,0.0
166,-2.560576947681958,0.0
167,-1.7945982642100338,0.0
168,-1.8571176374292082,0.0
169,-2.120012955788964,0.0
170,-1.934557199281398,0.0
171,-1.9246186948443322,0.0
172,-1.8925759632304218,0.0
173,-1.9739406665277242,0.0
174,-1.966300402194585,0.0
175,-1.8933628549830948,0.0
176,-1.9112779212247981,0.0
177,-2.071928169002946,0.0
178,-2.096442379508568,0.0
179,-1.9916762240658223,0.0
180,-1.569697899907383,0.0
181,1.5975477287417412,0.0
182,4.878187172802313,0.0
183,-2.294148491014716,0.0
184,-3.842119247413347,0.0
185,-0.32834668355017205,0.0
186,-2.654974530025136,0.0
187,-1.6808832066369255,0.0
188,-1.8172878702527484,0.0
189,-1.8733307265334265,0.0
190,-1.8109969825045222,0.0
191,-1.9165550701424052,0.0
192,-1.8780166375903977,0.0
193,-1.8417946451986758,0.0
194,-2.005885260976876,0.0
195,-2.0425905744665886,0.0
196,-1.9399014088702529,0.0
197,-1.875635436990837,0.0
198,-1.9276624011840449,0.0
199,-1.9979454854186607,0.0
200,-1.6752584002899502,0.0
201,1.688487343818432,0.0
202,4.934947128636299,0.0
203,-2.2627021880017226,0.0
204,-3.7080880884203546,0.0
205,-0.3810248012520636,0.0
206,-2.66362975075213,0.0
207,-1.775395643637644,0.0
208,-1.8696938935765481,0.0
209,-1.9362962903621472,0.0
210,-1.8065689499175905,0.0
211,-1.8328822707235513,0.0
212,-1.955111860497334,0.0
213,-1.9561121089794216,0.0
214,-1.8280836459364573,0.0
215,-1.9017281868292848,0.0
216,-1.888154214514251,0.0
217,-1.9345341705379295,0.0
218,-1.8566553099345247,0.0
219,-1.9414529014162896,0.0
220,-1.7287052627083455,0.0
221,1.49639174910517,0.0
222,4.867500517491482,0.0
223,-2.2192344293861104,0.0
224,-3.797447212834192,0.0
225,-0.3518699357678454,0.0
226,-2.616749166268808,0.0
227,-1.7329628497164036,0.0
228,-1.887076757492967,0.0
229,-1.992969845294252,0.0
230,-1.9967247000503492,0.0
231,-1.9018548120171501,0.0
232,-1.9185450161017552,0.0
233,-1.897819238254618,0.0
234,-1.9004462620639713,0.0
235,-1.9070070672425536,0.0
236,-1.7992197672478696,0.0
237,-1.8861002924750427,0.0
238,-1.9678247107892881,0.0
239,-1.8729949415246472,0.0
240,-1.6518987609832783,0.0
241,1.7106227966053305,0.0
242,5.016261830673201,0.0
243,-2.3090580048532656,0.0
244,-3.7627692032776623,0.0
245,-0.33980693766135506,0.0
246,-2.5581408369409875,0.0
247,-1.7483098738647165,0.0
248,-1.8421330034550678,0.0
249,-1.9822542411278583,0.0
250,-1.8308095964188436,0.0
251,-1.9427043356425708,0.0
252,-1.7567109529156877,0.0
253,-1.8410912036974043,0.0
254,-1.747941770845037,0.0
255,-1.873881681449857,0.0
256,-1.756569117616486,0.0
257,-1.779006645522842,0.0
258,-1.7295026017525037,0.0
259,-1.7986778681508504,0.0
260,-1.7082470402312055,0.0
261,1.7573627275358787,0.0
262,4.957370433887345,0.0
263,-2.000525094953741,0.0
264,-3.7863277358059433,0.0
265,-0.3219038656378137,0.0
266,-2.445105657110734,0.0
267,-1.7586495539643834,0.0
268,-1.889580261175966,0.0
269,-1.9928140651760722,0.0
270,-1.9945192044373719,0.0
271,-1.8993399707043477,0.0
272,-1.930678297535135,0.0
273,-1.9049118042515434,0.0
274,-1.867505683451834,0.0
275,-1.9104670410153022,0.0
276,-1.9106192567057088,0.0
277,-1.9935164649255261,0.0
278,-2.053645192244735,0.0
279,-1.8667709938634358,0.0
280,-1.6241895085290246,0.0
281,1.7047148803637033,0.0
282,4.961734641920679,0.0
283,-2.1417699892898727,0.0
284,-3.7672847980076494,0.0
285,-0.3249746029954088,0.0
286,-2.58013538919825,0.0
287,-1.650708663771921,0.0
288,-1.9733935606790451,0.0
289,-1.950648952386503,0.0
290,-1.8126462004206698,0.0
291,-1.7352721923613355,0.0
292,-1.8587540098183704,0.0
293,-1.9015812785612762,0.0
294,-1.8640667774812665,0.0
295,-1.927938853180467,0.0
296,-1.9188137224000241,0.0
297,-1.891902623062362,0.0
298,-1.9354912946397016,0.0
299,-1.8666712585875653,0.0
300,-1.8109689218348464,0.0
301,1.6936028437749262,0.0
302,4.998023428838502,0.0
303,-2.064358491585237,0.0
304,-3.7360978468917017,0.0
305,-0.3334550416568176,0.0
306,-2.665173779867386,0.0
307,-1.68182798353169,0.0
308,-1.9052398964908448,0.0
309,-1.9121050277865401,0.0
310,-1.9078002398835117,0.0
311,-1.938489965512501,0.0
312,-1.8913882257939558,0.0
313,-1.8836770338994535,0.0
314,-1.7778467930442974,0.0
315,-1.8318321379525597,0.0
316,-1.87104202814792,0.0
317,-1.9185936249943254,0.0
318,-1.8284570649168783,0.0
319,-1.8548571015693371,0.0
320,-1.620790102722963,0.0
321,1.707853806647834,0.0
322,5.110085045097822,0.0
323,-2.2159156177706754,0.0
324,-3.7983808608343326,0.0
325,-0.411481151547042,0.0
326,-2.5903894452100755,0.0
327,-1.9278353630175864,0.0
328,-1.8446477418012535,0.0
329,-1.9110738461694028,0.0
330,-1.8838697554584842,0.0
331,-1.9265563157004655,0.0
332,-1.9114449335434645,0.0
333,-1.8133276734135442,0.0
334,-1.7814208208184301,0.0
335,-1.9175869656647628,0.0
336,-1.7677409369745365,0.0
337,-1.928256296182927,0.0
338,-1.9222985807249722,0.0
339,-1.809981045438273,0.0
340,-1.6682659674410505,0.0
341,1.525696433480178,0.0
342,5.019294595823225,0.0
343,-2.202680765120924,0.0
344,-3.758252729221372,0.0
345,-0.3070252562765907,0.0
346,-2.524558047801359,0.0
347,-1.8836030845215792,0.0
348,-1.956510154426423,0.0
349,-1.9094824296183324,0.0
350,-1.926134340991391,0.0
351,-1.9574542303959874,0.0
352,-1.896712945018173,0.0
353,-1.919618755319595,0.0
354,-1.8298699944789563,0.0
355,-1.8505318356803722,0.0
356,-1.9078144009818654,0.0
357,-1.8373255077046038,0.0
358,-2.001038923940664,0.0
359,-1.92874398890228,0.0
360,-1.5576834781445656,0.0
361,1.6397567405194013,0.0
362,5.070518118959781,0.0
363,-2.1893725116922735,0.0
364,-3.8054637718568896,0.0
365,-0.2668616241111681,0.0
366,-2.55655748999297,0.0
367,-1.661738380010651,0.0
368,-1.9411487115770756,0.0
369,-2.0076568186189836,0.0
370,-1.9381604284462142,0.0
371,-1.781964289169532,0.0
372,-1.8087875202367016,0.0
373,-1.8066583569357635,0.0
374,-1.9172305949846125,0.0
375,-1.6937760999879226,0.0
376,-1.8589192337302174,0.0
377,-1.833157609174109,0.0
378,-1.8619028532207582,0.0
379,-1.8114027033211626,0.0
380,-1.45842098863012,0.0
381,1.7441793055461965,0.0
382,5.073049306287825,0.0
383,-2.169639692467601,0.0
384,-3.8410618725417107,0.0
385,-0.44622417621369537,0.0
386,-2.484423150978621,0.0
387,-1.6979962550025705,0.0
388,-1.8069096970948453,0.0
389,-1.995913645388363,0.0
390,-1.8927550602570105,0.0
391,-1.7590592355222523,0.0
392,-1.7610098250484922,0.0
393,-1.7913436508268337,0.0
394,-1.9820705388291058,0.0
395,-1.7767831154728584,0.0
396,-1.8369135348641836,0.0
397,-1.9088516618043292,0.0
398,-1.7683998781375272,0.0
399,-1.9416390578397453,0.0
400,-1.5893900860554715,0.0
401,1.6867688038376807,0.0
402,4.955255808246781,0.0
403,-2.1612623629473466,0.0
404,-3.643199484730811,0.0
405,-0.19153019157184237,0.0
406,-2.6356339937953877,0.0
407,-1.7747168117844905,0.0
408,-1.739804789105634,0.0
409,-1.7864604285475842,0.0
410,-1.9055250994124362,0.0
411,-1.7715660219562495,0.0
412,-1.7747871622720728,0.0
413,-1.8751709838662518,0.0
414,-1.8362214522030642,0.0
415,-1.904176969078754,0.0
416,-1.8012256334011465,0.0
417,-1.9168048052626914,0.0
418,-1.8450989194971987,0.0
419,-1.7029763657148949,0.0
420,-1.6051495354967737,0.0
421,1.761526578590922,0.0
422,5.071659139447645,0.0
423,-2.250186005414971,0.0
424,-3.783775637204535,0.0
425,-0.2667709222555348,0.0
426,-2.5856793518591497,0.0
427,-1.73646758416052,0.0
428,-1.813079746705696,0.0
429,-1.7916191982793706,0.0
430,-1.7427160026768944,0.0
431,-1.8197283820134862,0.0
432,-1.8305157645515944,0.0
433,-1.7651349758827939,0.0
434,-1.8481882371997789,0.0
435,-1.8382908330245435,0.0
436,-1.7864148986508621,0.0
437,-1.7980373784894774,0.0
438,-1.7784755816001916,0.0
439,-1.773643397335881,0.0
440,-1.631077711988989,0.0
441,1.696660932982839,0.0
442,5.050582433113852,0.0
443,-2.1550793474509295,0.0
444,-3.700640125026193,0.0
445,-0.1908182243408545,0.0
446,-2.603690407927969,0.0
447,-1.6599309540077865,0.0
448,-1.8849913508292666,0.0
449,-1.7266714278756017,0.0
450,-1.8123137606410298,0.0
451,-1.8047369735988532,0.0
452,-1.7456077880692042,0.0
453,-1.859094970863733,0.0
454,-1.8424502225627235,0.0
455,-1.8154846643458753,0.0
456,-1.9265414764291953,0.0
457,-1.9243200656956023,0.0
458,-1.9315408930930225,0.0
459,-1.9007653641735744,0.0
460,-1.4661044691004625,0.0
461,1.6174941684572424,0.0
462,4.881253123586254,0.0
463,-2.119952881619681,0.0
464,-3.745511919296024,0.0
465,-0.322253535016261,0.0
466,-2.492722859918344,0.0
467,-1.480909245518187,0.0
468,-1.7441880275248856,0.0
469,-1.9156414618087958,0.0
470,-1.8287906482760528,0.0
471,-1.8280987837503542,0.0
472,-1.688578670004825,0.0
473,-1.776667710875301,0.0
474,-1.8504710853900468,0.0
475,-1.8489230251461082,0.0
476,-1.8268148905580495,0.0
477,-1.7873849452982196,0.0
478,-1.9637291409312436,0.0
479,-1.8226071871779739,0.0
480,-1.5007078734560055,0.0
481,1.6894133660289476,0.0
482,5.037013045720026,0.0
483,-2.083592678963942,0.0
484,-3.7748194260378263,0.0
485,-0.4047231424614264,0.0
486,-2.5567797598356004,0.0
487,-1.5348668016266704,0.0
488,-1.77689530879288,0.0
489,-1.895510564622001,0.0
490,-1.6076538424015963,0.0
491,-1.7553247662482918,0.0
492,-1.7098901385719398,0.0
493,-1.8114465911889783,0.0
494,-1.9057236455767108,0.0
495,-1.8354285245301742,0.0
496,-1.7762454762068562,0.0
497,-1.9026668892162966,0.0
498,-1.7547407630556082,0.0
499,-1.9331713173787723,0.0
500,-1.7610275588643667,0.0
501,1.6663261356785712,0.0
502,4.898050023187723,0.0
503,-2.207509275854391,0.0
504,-3.710509796142147,0.0
505,-0.2918428378425344,0.0
506,-2.479300919771987,0.0
507,-1.7333462564422906,0.0
508,-1.823076135831432,0.0
509,-1.9014425125396006,0.0
510,-1.848842557364535,0.0
511,-1.7797280659990626,0.0
512,-1.7574024601918978,0.0
513,-1.7828550293567327,0.0
514,-1.82023245929728,0.0
515,-1.817270206106429,0.0
516,-1.8575901444779268,0.0
517,-1.8413681845877505,0.0
518,-1.7708715207213446,0.0
519,-1.8763339724570378,0.0
520,-1.5368365650278424,0.0
521,1.7722204376303725,0.0
522,5.041794485439872,0.0
523,-2.275604747115106,0.0
524,-3.7048023875180993,0.0
525,-0.20791952493607502,0.0
526,-2.614565561161887,0.0
527,-1.6529378285480258,0.0
528,-1.8354686036478447,0.0
529,-1.9547614596476361,0.0
530,-1.8843223721261666,0.0
531,-1.886052970374027,0.0
532,-1.9009427371023069,0.0
533,-1.7920524968929723,0.0
534,-1.87893793054014,0.0
535,-1.738210727822083,0.0
536,-1.7899065493408028,0.0
537,-1.7644560632094546,0.0
538,-1.650411283341125,0.0
539,-1.8528264104156524,0.0
540,-1.378388423932404,0.0
541,1.8109625067367692,0.0
542,4.964759329837428,0.0
543,-2.0451411493997274,0.0
544,-3.763046062061454,0.0
545,-0.2784332828452156,0.0
546,-2.4693482550449195,0.0
547,-1.632743742984574,0.0
548,-1.7781953589436723,0.0
549,-1.9023548278674,0.0
550,-1.840110834613181,0.0
551,-1.9711999950054568,0.0
552,-1.8131514608810944,0.0
553,-1.8978998455396596,0.0
554,-1.9123066564458922,0.0
555,-1.921580686428042,0.0
556,-1.8191420618298584,0.0
557,-1.8975770904340292,0.0
558,-1.8262029992266553,0.0
559,-1.8969823432808772,0.0
560,-1.505834558224494,0.0
561,1.716045791087945,0.0
562,5.007555743640612,0.0
563,-2.269512235651235,0.0
564,-3.71141482647884,0.0
565,-0.30855635238555346,0.0
566,-2.5644820075690022,0.0
567,-1.7183306796292843,0.0
568,-1.7695464686071547,0.0
569,-1.8867920063771264,0.0
570,-1.689723203042102,0.0
571,-1.8339557144163354,0.0
572,-1.8195885119261046,0.0
573,-1.7705855641432082,0.0
574,-1.8352307984494471,0.0
575,-1.9296432323971828,0.0
576,-1.7694862811151593,0.0
577,-1.8085693091831727,0.0
578,-1.856599193252911,0.0
579,-1.9938965033580573,0.0
580,-1.6137584550207675,0.0
581,1.6467998234283974,0.0
582,4.9082178252396815,0.0
583,-2.2765037987069245,0.0
584,-3.850233849452823,0.0
585,-0.3117824865521108,0.0
586,-2.5521285068254835,0.0
587,-1.6894443133748491,0.0
588,-1.7992514896216298,0.0
589,-1.7876920703906471,0.0
590,-1.6529737597676657,0.0
591,-1.8031440199339062,0.0
592,-1.7960084337812359,0.0
593,-1.8109862969165427,0.0
594,-1.7810151057985029,0.0
595,-1.785875534516411,0.0
596,-1.954379448027516,0.0
597,-1.9556726031177776,0.0
598,-1.8229896636078629,0.0
599,-1.8876304762460085,0.0
600,-1.5433416619661482,0.0
601,1.686742469848871,0.0
602,5.122226387977325,0.0
603,-2.2440388492856846,0.0
604,-3.8197319518987154,0.0
605,-0.32812554931186866,0.0
606,-2.441641225633673,0.0
607,-1.7353170334780386,0.0
608,-1.7092719546524904,0.0
609,-1.9017670401246725,0.0
610,-1.8143294112874107,0.0
611,-1.767151530579112,0.0
612,-1.8083138154297438,0.0
613,-1.7905240894744736,0.0
614,-1.7499224053577747,0.0
615,-1.8013014101612546,0.0
616,-1.9064355639686303,0.0
617,-1.7902699378215687,0.0
618,-1.7000357835171944,0.0
619,-1.736979409265657,0.0
620,-1.5186573018074982,0.0
621,1.8447337600189404,0.0
622,4.992567065352466,0.0
623,-2.2504246904840333,0.0
624,-3.777807342902087,0.0
625,-0.31508323473415345,0.0
626,-2.5439028364510134,0.0
627,-1.7003375419231737,0.0
628,-1.8892549212271805,0.0
629,-1.8980581162806829,0.0
630,-1.9066834687687884,0.0
631,-1.8842944216846684,0.0
632,-1.7480778743595615,0.0
633,-1.79762399232296,0.0
634,-1.8028525137561497,0.0
635,-1.6762545343740036,0.0
636,-1.763047293180432,0.0
637,-1.7730248427245756,0.0
638,-1.7125269043673153,0.0
639,-1.771349230490349,0.0
640,-1.4958798499349895,0.0
641,1.8743300781430277,0.0
642,5.213277316512355,0.0
643,-2.0631137691838273,0.0
644,-3.6935061725886427,0.0
645,-0.1390845521938482,0.0
646,-2.5531086197083552,0.0
647,-1.6725112528638908,0.0
648,-1.5522867953955355,0.0
649,-1.7757643822596902,0.0
650,-1.7420654384423393,0.0
651,-1.7370365841594468,0.0
652,-1.6820022314544356,0.0
653,-1.675418524954329,0.0
654,-1.7525112635033862,0.0
655,-1.7516178392949882,0.0
656,-1.6581066899736356,0.0
657,-1.764187006961447,0.0
658,-1.6696953111322093,0.0
659,-1.7529964564795046,0.0
660,-1.5002323464783691,0.0
661,1.8606666243184684,0.0
662,5.002788533908879,0.0
663,-2.20151660316812,0.0
664,-3.5591610983935458,0.0
665,-0.3413395703133524,0.0
666,-2.421951868061066,0.0
667,-1.5343665853055857,0.0
668,-1.6637794549174785,0.0
669,-1.8338725083470828,0.0
670,-1.7116016561435479,0.0
671,-1.6809298637771273,0.0
672,-1.8348822060369998,0.0
673,-1.607039807833219,0.0
674,-1.760532606292857,0.0
675,-1.6843122767234049,0.0
676,-1.6246719804095189,0.0
677,-1.6875521281047583,0.0
678,-1.8193503047201622,0.0
679,-1.6013102968454072,0.0
680,-1.4660061860459814,0.0
681,1.9769596140826686,0.0
682,5.0689767189485835,0.0
683,-2.15077807170384,0.0
684,-3.6583077525445358,0.0
685,-0.15617125573110613,0.0
686,-2.562693578593483,0.0
687,-1.5435916231550604,0.0
688,-1.4927098336670395,0.0
689,-1.7401529410212777,0.0
690,-1.5577813286419278,0.0
691,-1.614780845510986,0.0
692,-1.740864424453981,0.0
693,-1.8101129817701522,0.0
694,-1.7128246838768322,0.0
695,-1.612650725448123,0.0
696,-1.7337529001972836,0.0
697,-1.5474866005188361,0.0
698,-1.801203268225185,0.0
699,-1.5471081770691413,0.0
700,-1.3478737106777436,0.0
701,1.9754087911118925,0.0
702,5.187848081022301,0.0
703,-2.044622235785955,0.0
704,-3.5407070873070046,0.0
705,-0.12685640721845082,0.0
706,-2.3674967429711,0.0
707,-1.4267803475821972,0.0
708,-1.5487352416982403,0.0
709,-1.7638611665671722,0.0
710,-1.7062283547929562,0.0
711,-1.831612644125978,0.0
712,-1.6060640143762352,0.0
713,-1.6831368830978877,0.0
714,-1.617054114476313,0.0
715,-1.6346049420429154,0.0
716,-1.5998924683047433,0.0
717,-1.7473846557524975,0.0
718,-1.6388357520349714,0.0
719,-1.7487825411850177,0.0
720,-1.2336864212784546,0.0
721,1.9311262535677631,0.0
722,5.328393705306162,0.0
723,-2.022104389807838,0.0
724,-3.5035101823887462,0.0
725,-0.047056518447475604,0.0
726,-2.3978869267088267,0.0
727,-1.3643378322290671,0.0
728,-1.60591057596652,0.0
729,-1.6654121861118751,0.0
730,-1.6396203011647499,0.0
731,-1.7715545924948308,0.0
732,-1.7055320891166088,0.0
733,-1.6970938396276154,0.0
734,-1.7675612320394836,0.0
735,-1.5597082258778223,0.0
736,-1.5929018172575151,0.0
737,-1.5969620789915733,0.0
738,-1.7104572664534434,0.0
739,-1.7401399344296997,0.0
740,-1.2102272326048484,0.0
741,1.9611082988636466,0.0
742,5.128174507219957,0.0
743,-2.1395283443765662,0.0
744,-3.523971802253075,0.0
745,-0.12352096043017302,0.0
746,-2.5007348682459725,0.0
747,-1.5499537788184812,0.0
748,-1.7520888350960193,0.0
749,-1.6581828177199642,0.0
750,-1.702340456728517,0.0
751,-1.7460283762450508,0.0
752,-1.6604423812408637,0.0
753,-1.706527664721901,0.0
754,-1.6699828374890153,0.0
755,-1.723985547522069,0.0
756,-1.6155509561497075,0.0
757,-1.6557037262916527,0.0
758,-1.6442566876775668,0.0
759,-1.6482411549470943,0.0
760,-1.277375891298559,0.0
761,1.959849622461796,0.0
762,5.134045538737758,0.0
763,-2.154479727187055,0.0
764,-3.454193694735061,0.0
765,-0.17729932767086076,0.0
766,-2.4567367336051866,0.0
767,-1.5344495097438167,0.0
768,-1.577469244255781,0.0
769,-1.7044266338751062,0.0
770,-1.6868303890111995,0.0
771,-1.7879196811235234,0.0
772,-1.6197985742839465,0.0
773,-1.69510347187357,0.0
774,-1.7158776494756938,0.0
775,-1.5497526317251675,0.0
776,-1.751644957680931,0.0
777,-1.7374068080005498,0.0
778,-1.702180491417977,0.0
779,-1.668056061939495,0.0
780,-1.3640550856036346,0.0
781,2.1675336167028556,0.0
782,5.145102079933898,0.0
783,-2.0582719749540983,0.0
784,-3.6584059732867615,0.0
785,-0.10174811213418966,0.0
786,-2.3946179949789865,0.0
787,-1.575232440590968,0.0
788,-1.646242826670849,0.0
789,-1.8596289008479805,0.0
790,-1.5387996769529038,0.0
791,-1.6997952093185542,0.0
792,-1.668997965631628,0.0
793,-1.67808699260498,0.0
794,-1.7775641805119924,0.0
795,-1.6526026054766707,0.0
796,-1.5368045136887423,0.0
797,-1.6174966360546543,0.0
798,-1.6586046461919022,0.0
799,-1.6263165673767181,0.0
800,-1.3733830315237514,0.0
801,1.963127806613137,0.0
802,5.202897828834099,0.0
803,-2.2231109720997204,0.0
804,-3.4683728337488855,0.0
805,-0.22905738708528967,0.0
806,-2.3493302651407966,0.0
807,-1.5578008820176885,0.0
808,-1.7100982278353354,0.0
809,-1.689152553457677,0.0
810,-1.576941974600538,0.0
811,-1.7054397498362108,0.0
812,-1.6512068766911365,0.0
813,-1.6705625928259993,0.0
814,-1.586142082902494,0.0
815,-1.6856236487794973,0.0
816,-1.65454226258537,0.0
817,-1.8121432909023838,0.0
818,-1.6404884238048627,0.0
819,-1.683460059546212,0.0
820,-1.4470312191509447,0.0
821,2.1112647961005853,0.0
822,5.171194282370928,0.0
823,-2.1395236830904376,0.0
824,-3.4731993329736164,0.0
825,-0.13603013059194113,0.0
826,-2.5212931754063153,0.0
827,-1.4557949639941328,0.0
828,-1.706708208161799,0.0
829,-1.7501163898136594,0.0
830,-1.4962752871129956,0.0
831,-1.705747744977237,0.0
832,-1.7371287274366336,0.0
833,-1.6388360902903207,0.0
834,-1.6680436756829538,0.0
835,-1.7835680761174406,0.0
836,-1.6624233145699994,0.0
837,-1.747456114377136,0.0
838,-1.6306286889780464,0.0
839,-1.6783441969145627,0.0
840,-1.496395516965214,0.0
841,1.9259785387822976,0.0
842,5.12715417834086,0.0
843,-2.2836989789942606,0.0
844,-3.5975653312721176,0.0
845,-0.07636880114295086,0.0
846,-2.3494023056689293,0.0
847,-1.585018521609142,0.0
848,-1.6110263881966327,0.0
849,-1.745265781354197,0.0
850,-1.6663027923725968,0.0
851,-1.5702889668498614,0.0
852,-1.5724211240721404,0.0
853,-1.6917105861366384,0.0
854,-1.670691618748246,0.0
855,-1.716673403381304,0.0
856,-1.700134053519102,0.0
857,-1.6646408315565546,0.0
858,-1.4675201578057926,0.0
859,-1.6497577987390066,0.0
860,-1.332213622013887,0.0
861,2.0377988336826265,0.0
862,5.078255892390774,0.0
863,-2.092122094472746,0.0
864,-3.5211259358340765,0.0
865,-0.2278942804317745,0.0
866,-2.288698432245873,0.0
867,-1.6093998517227497,0.0
868,-1.5952512219958017,0.0
869,-1.7095613705732577,0.0
870,-1.690507001961031,0.0
871,-1.6393747548082396,0.0
872,-1.7592182665433604,0.0
873,-1.640089125692766,0.0
874,-1.6879652413623023,0.0
875,-1.7005602992347806,0.0
876,-1.6831944886396817,0.0
877,-1.5726700696825062,0.0
878,-1.627567589031495,0.0
879,-1.6137387245075734,0.0
880,-1.3978981196057998,0.0
881,2.0082058548269135,0.0
882,5.269436379288019,0.0
883,-2.0333929203374064,0.0
884,-3.4514520242867355,0.0
885,-0.24321919736493136,0.0
886,-2.406025057049153,0.0
887,-1.4524690762311019,0.0
888,-1.6798950609765921,0.0
889,-1.624252155998013,0.0
890,-1.636652870766586,0.0
891,-1.5796152896473266,0.0
892,-1.5704298471450346,0.0
893,-1.5880603982459907,0.0
894,-1.5998932085320934,0.0
895,-1.6368213609799278,0.0
896,-1.6257132687780107,0.0
897,-1.743472578248425,0.0
898,-1.6356095277133484,0.0
899,-1.624555014536565,0.0
900,-1.4423908463529425,0.0
901,2.07495183099102,0.0
902,5.137393335208689,0.0
903,-2.2000931637893397,0.0
904,-3.632157256730916,0.0
905,-0.0930692811019529,0.0
906,-2.424807539286113,0.0
907,-1.494341116821516,0.0
908,-1.5341453756732373,0.0
909,-1.711690741988066,0.0
910,-1.5322080245393108,0.0
911,-1.579304651408712,0.0
912,-1.5922161171939764,0.0
913,-1.520004241081354,0.0
914,-1.7681777274390527,0.0
915,-1.5086270004605955,0.0
916,-1.7292039702785427,0.0
917,-1.774970106732347,0.0
918,-1.6420669557098342,0.0
919,-1.7096813718435924,0.0
920,-1.430745999640707,0.0
921,2.0118115048819147,0.0
922,5.262800707238404,0.0
923,-2.228913078830342,0.0
924,-3.4557615926115104,0.0
925,-0.1543618443153567,0.0
926,-2.3613193872965312,0.0
927,-1.361190420962456,0.0
928,-1.6484261480008475,0.0
929,-1.6731528803387412,0.0
930,-1.626407378280164,0.0
931,-1.6647182993504668,0.0
932,-1.702855240296291,0.0
933,-1.6579010181362828,0.0
934,-1.4827622492088215,0.0
935,-1.6539626437343016,0.0
936,-1.627888561263812,0.0
937,-1.6617885118368558,0.0
938,-1.7242673404130995,0.0
939,-1.5102917179603879,0.0
940,-1.3424942646392748,0.0
941,2.0191522247335794,0.0
942,5.072465652244485,0.0
943,-2.1787943930226916,0.0
944,-3.4941794663232946,0.0
945,-0.24068647868377546,0.0
946,-2.4360295485263594,0.0
947,-1.4814199219357016,0.0
948,-1.5818316951626443,0.0
949,-1.633621905824985,0.0
950,-1.5094440186468345,0.0
951,-1.5900828042292583,0.0
952,-1.698358054974883,0.0
953,-1.5934797679257036,0.0
954,-1.6510186490553869,0.0
955,-1.5133727533562462,0.0
956,-1.5933544046214618,0.0
957,-1.6797954975608915,0.0
958,-1.5301863222926695,0.0
959,-1.574061866426827,0.0
960,-1.1788297160753087,0.0
961,1.9870587161412716,0.0
962,5.357206717508389,0.0
963,-2.1056999398097753,0.0
964,-3.349504832193433,0.0
965,0.004099695011355431,0.0
966,-2.4675508409159885,0.0
967,-1.5638678155216832,0.0
968,-1.6026248007140016,0.0
969,-1.664787365647076,0.0
970,-1.5871426948851812,0.0
971,-1.6706548458242763,0.0
972,-1.567667765032991,0.0
973,-1.684609771891822,0.0
974,-1.6978762672762526,0.0
975,-1.652218680848013,0.0
976,-1.7060414187090904,0.0
977,-1.5650432204650289,0.0
978,-1.5973603267186731,0.0
979,-1.6401644581964743,0.0
980,-1.277125138081195,0.0
981,2.2267773109738878,0.0
982,5.138847233893259,0.0
983,-2.1325611883007354,0.0
984,-3.309616135219251,0.0
985,0.13273169058477485,0.0
986,-2.2324844448792955,0.0
987,-1.3577185901451447,0.0
988,-1.5118479522574049,0.0
989,-1.557836790127279,0.0
990,-1.512567293735859,0.0
991,-1.5895007770418215,0.0
992,-1.580783230522825,0.0
993,-1.4760212395984769,0.0
994,-1.6258458702816942,0.0
995,-1.4706482232226634,0.0
996,-1.527022813748967,0.0
997,-1.4205946360128212,0.0
998,-1.5711004097345707,0.0
999,-1.6491806486830902,0.0
1000,-1.2891827300640464,0.0
1001,2.0672253334695263,0.0
1002,5.0804191171186055,0.0
1003,-2.258817654103174,0.0
1004,-3.512007919149883,0.0
1005,-0.11100627392409268,0.0
1006,-2.407783652156784,0.0
1007,-1.460281741595591,0.0
1008,-1.6317668511632506,0.0
1009,-1.6681472994204936,0.0
1010,-1.6488922016975487,0.0
1011,-1.693710406148495,0.0
1012,-1.6221443896328733,0.0
1013,-1.6132952907530234,0.0
1014,-1.6061055883670692,0.0
1015,-1.5995026108964314,0.0
1016,-1.6343866754069523,0.0
1017,-1.567046302113714,0.0
1018,-1.4360506256809895,0.0
1019,-1.6516613242784661,0.0
1020,-1.2251003149664372,0.0
1021,2.064243824481981,0.0
1022,5.218250734033056,0.0
1023,-2.1490133732060688,0.0
1024,-3.42903574809817,0.0
1025,-0.009812250616807239,0.0
1026,-2.3842703978247997,0.0
1027,-1.5169162020671543,0.0
1028,-1.5058434186897842,0.0
1029,-1.5482579513221666,0.0
1030,-1.571998721056253,0.0
1031,-1.7353062728046937,0.0
1032,-1.5157337889392486,0.0
1033,-1.6038169919505787,0.0
1034,-1.7448812164558924,0.0
1035,-1.5337385661949312,0.0
1036,-1.5176553854345378,0.0
1037,-1.690705849511102,0.0
1038,-1.575743885411761,0.0
1039,-1.7396653225970884,0.0
1040,-1.3013996233974512,0.0
1041,2.14016072031606,0.0
1042,5.161150411739564,0.0
1043,-2.128697550563049,0.0
1044,-3.411194474569876,0.0
1045,-0.06649072412121937,0.0
1046,-2.169743429627589,0.0
1047,-1.3957131595675105,0.0
1048,-1.5236993863378878,0.0
1049,-1.4542127119674684,0.0
1050,-1.4142293988807633,0.0
1051,-1.5125587117565722,0.0
1052,-1.6338377097238361,0.0
1053,-1.6768037502871445,0.0
1054,-1.561587433182557,0.0
1055,-1.4578549347671625,0.0
1056,-1.6432858488893,0.0
1057,-1.5604631298341511,0.0
1058,-1.6030825643674,0.0
1059,-1.6810051467246125,0.0
1060,-1.3901348767668633,0.0
1061,2.2166226931143296,0.0
1062,5.20932643907146,0.0
1063,-2.1414298275411587,0.0
1064,-3.4222022731496415,0.0
1065,-0.10776146108992712,0.0
1066,-2.39134562743862,0.0
1067,-1.4582476525809254,0.0
1068,-1.5781938369404718,0.0
1069,-1.634009780486959,0.0
1070,-1.576711111886393,0.0
1071,-1.6468131438400642,0.0
1072,-1.5149182143509496,0.0
1073,-1.5312560830694666,0.0
1074,-1.5528776231659858,0.0
1075,-1.688178588303,0.0
1076,-1.4100639794614782,0.0
1077,-1.495059779112718,0.0
1078,-1.4519899185691718,0.0
1079,-1.5538954246185972,0.0
1080,-1.1796813034776774,0.0
1081,2.1176027543898615,0.0
1082,5.277915906633114,0.0
1083,-2.1012687524408022,0.0
1084,-3.29970972338681,0.0
1085,-0.07311269601918036,0.0
1086,-2.1575204053325705,0.0
1087,-1.3371463851332783,0.0
1088,-1.4267942796796298,0.0
1089,-1.4725236758479718,0.0
1090,-1.4406773521969791,0.0
1091,-1.6129915601918763,0.0
1092,-1.510094867644395,0.0
1093,-1.6090635824454715,0.0
1094,-1.564354514721499,0.0
1095,-1.5138961510194155,0.0
1096,-1.5585185925694751,0.0
1097,-1.444400337177532,0.0
1098,-1.5424482350266042,0.0
1099,-1.4666975875976052,0.0
1100,-1.3556665388291576,0.0
1101,2.1970046519285487,0.0
1102,5.204954075868171,0.0
1103,-2.13624059269265,0.0
1104,-3.386142392128897,0.0
1105,0.0627835960391292,0.0
1106,-2.29917506095476,0.0
1107,-1.382330824069132,0.0
1108,-1.5358171710153734,0.0
1109,-1.6193507101306206,0.0
1110,-1.50624082614996,0.0
1111,-1.5139304872872843,0.0
1112,-1.631965886111657,0.0
1113,-1.6586345440073271,0.0
1114,-1.609270857587511,0.0
1115,-1.573096075481774,0.0
1116,-1.5214965037678465,0.0
1117,-1.5858069381434199,0.0
1118,-1.468252012728739,0.0
1119,-1.5264716697368208,0.0
1120,-1.1881394705871537,0.0
1121,2.1652307090169542,0.0
1122,5.286010293165832,0.0
1123,-2.025000763337248,0.0
1124,-3.2879870332841614,0.0
1125,-0.15061540424508868,0.0
1126,-2.2222430646401254,0.0
1127,-1.4402021272875,0.0
1128,-1.509418306889105,0.0
1129,-1.532274976792654,0.0
1130,-1.4100397578975477,0.0
1131,-1.5194529757954298,0.0
1132,-1.3852367535041086,0.0
1133,-1.4616441543047,0.0
1134,-1.448012926906652,0.0
1135,-1.4978487950222446,0.0
1136,-1.5470534966532112,0.0
1137,-1.4988045680824695,0.0
1138,-1.5183711100930608,0.0
1139,-1.6870812820419558,0.0
1140,-1.1809431554429262,0.0
1141,2.04921563631721,0.0
1142,5.325872594361651,0.0
1143,-2.1587207200690592,0.0
1144,-3.4115228211332114,0.0
1145,0.021491411941675143,0.0
1146,-2.301780869983662,0.0
1147,-1.253896693144397,0.0
1148,-1.4602659103744748,0.0
1149,-1.5888250510396595,0.0
1150,-1.5176035351841657,0.0
1151,-1.511861768039505,0.0
1152,-1.5676336506743378,0.0
1153,-1.6027686401514265,0.0
1154,-1.4116179187418265,0.0
1155,-1.554645211106547,0.0
1156,-1.4714840229801507,0.0
1157,-1.6066403171525012,0.0
1158,-1.7010317582514476,0.0
1159,-1.4749657104926202,0.0
1160,-1.2136807532910487,0.0
1161,2.1875878033851635,0.0
1162,5.273606784346941,0.0
1163,-1.9946933107803688,0.0
1164,-3.4068855787407366,0.0
1165,0.06567766052807578,0.0
1166,-2.255293931464863,0.0
1167,-1.2154272310128635,0.0
1168,-1.4687060728307544,0.0
1169,-1.5073460713728866,0.0
1170,-1.4481432261547258,0.0
1171,-1.4887900122350533,0.0
1172,-1.4764759729136072,0.0
1173,-1.4587242426113747,0.0
1174,-1.4639027728427927,0.0
1175,-1.4583762160767209,0.0
1176,-1.416769056026949,0.0
1177,-1.5436359006578046,0.0
1178,-1.5299716474138596,0.0
1179,-1.4102216025068632,0.0
1180,-1.0693850172456307,0.0
1181,2.2267173567526317,0.0
1182,5.300475267437977,0.0
1183,-2.0083872551576882,0.0
1184,-3.3000997247406776,0.0
1185,-0.025663958084074734,0.0
1186,-2.4405306632528583,0.0
1187,-1.3113405850775333,0.0
1188,-1.6084225906056082,0.0
1189,-1.5910832335286402,0.0
1190,-1.494520840861372,0.0
1191,-1.4827757187945478,0.0
1192,-1.4636746134217389,0.0
1193,-1.5516302437804785,0.0
1194,-1.5792185516623845,0.0
1195,-1.4874652698399022,0.0
1196,-1.4324751274570213,0.0
1197,-1.5581097018576215,0.0
1198,-1.5691852420786707,0.0
1199,-1.4479982299127556,0.0
1200,-1.1503399817362285,0.0
1201,2.2058399743122044,0.0
1202,5.3092571793537715,0.0
1203,-2.1189125020176798,0.0
1204,-3.3336854580367103,0.0
1205,0.010267927752495076,0.0
1206,-2.3315988266282854,0.0
1207,-1.2494746087966606,0.0
1208,-1.4860088358011903,0.0
1209,-1.4851291078843054,0.0
1210,-1.564249051539698,0.0
1211,-1.509588023884383,0.0
1212,-1.4909606287243173,0.0
1213,-1.564334405218741,0.0
1214,-1.455810543159707,0.0
1215,-1.4922153492268884,0.0
1216,-1.4970931559317415,0.0
1217,-1.547386604042596,0.0
1218,-1.5344186100194115,0.0
1219,-1.511191748607954,0.0
1220,-1.133471269337034,0.0
1221,2.2216791876645785,0.0
1222,5.315746071628532,0.0
1223,-2.0720665947733474,0.0
1224,-3.3237141617675885,0.0
1225,0.05843099682328878,0.0
1226,-2.3123773895269792,0.0
1227,-1.3359922916088505,0.0
1228,-1.330696647912181,0.0
1229,-1.3993647296718579,0.0
1230,-1.4657309498964461,0.0
1231,-1.5538759325532843,0.0
1232,-1.4291686827639487,0.0
1233,-1.5064935810170421,0.0
1234,-1.3964607563031426,0.0
1235,-1.5133832480611256,0.0
1236,-1.4415524440104344,0.0
1237,-1.499514955948842,0.0
1238,-1.443424219008618,0.0
1239,-1.5212039309236032,0.0
1240,-1.1889831967730025,0.0
1241,2.2430355431627294,0.0
1242,5.35489584776489,0.0
1243,-2.015468117590503,0.0
1244,-3.103951388269459,0.0
1245,0.10473646312698248,0.0
1246,-2.1666445395615503,0.0
1247,-1.2816519741771581,0.0
1248,-1.5921030190554541,0.0
1249,-1.4030406353940343,0.0
1250,-1.4173158161509163,0.0
1251,-1.5003185170535738,0.0
1252,-1.506220063553559,0.0
1253,-1.4144856933123942,0.0
1254,-1.401027315665187,0.0
1255,-1.4760646926209322,0.0
1256,-1.4363562583270448,0.0
1257,-1.557863537273329,0.0
1258,-1.2929118872581904,0.0
1259,-1.449128916058114,0.0
1260,-0.9950648020559378,0.0
1261,2.2857299394434696,0.0
1262,5.355604426061943,0.0
1263,-2.133202614884765,0.0
1264,-3.105214040033195,0.0
1265,0.14491140257369417,0.0
1266,-2.218114498912243,0.0
1267,-1.2680023783524201,0.0
1268,-1.3847454868332845,0.0
1269,-1.3830597128853355,0.0
1270,-1.4042911459256269,0.0
1271,-1.402355074483835,0.0
1272,-1.4693086660705053,0.0
1273,-1.4084102345342124,0.0
1274,-1.496216922851384,0.0
1275,-1.4378533366152113,0.0
1276,-1.4969001105334312,0.0
1277,-1.435618603184089,0.0
1278,-1.4650864534492987,0.0
1279,-1.4973575226754565,0.0
1280,-1.2092362129711458,0.0
1281,2.2124122427059882,0.0
1282,5.231196827493625,0.0
1283,-2.2411445304178264,0.0
1284,-3.3555058010615038,0.0
1285,-0.07039299483826844,0.0
1286,-2.367296677104676,0.0
1287,-1.4432151858338438,0.0
1288,-1.5377953339719233,0.0
1289,-1.5843114504878932,0.0
1290,-1.721805395615868,0.0
1291,-1.4454285264027342,0.0
1292,-1.5084383757122684,0.0
1293,-1.3959484566914269,0.0
1294,-1.558537291106337,0.0
1295,-1.6441407134435777,0.0
1296,-1.4598023871371706,0.0
1297,-1.456686709594461,0.0
1298,-1.4412466920471148,0.0
1299,-1.5282938478814032,0.0
1300,-1.2017510764515875,0.0
1301,2.217080142117976,0.0
1302,5.361182108720944,0.0
1303,-1.9393124892811862,0.0
1304,-3.2422514827811364,0.0
1305,0.07204671259455164,0.0
1306,-2.1302215257575763,0.0
1307,-1.2920068453348919,0.0
1308,-1.6553633130417678,0.0
1309,-1.5106306156893397,0.0
1310,-1.5457837494693492,0.0
1311,-1.6044178574807682,0.0
1312,-1.414492917718043,0.0
1313,-1.5037109386338334,0.0
1314,-1.5429284044738274,0.0
1315,-1.5054383235145408,0.0
1316,-1.5873667877070619,0.0
1317,-1.616745891762872,0.0
1318,-1.5438348804824216,0.0
1319,-1.5140434365976692,0.0
1320,-1.2455529346193495,0.0
1321,2.2994673040440805,0.0
1322,5.282098149187815,0.0
1323,-1.987928877991385,0.0
1324,-3.295984077104565,0.0
1325,0.14096838594507788,0.0
1326,-2.340281045690694,0.0
1327,-1.2408694247526988,0.0
1328,-1.514790343596678,0.0
1329,-1.5510298930385322,0.0
1330,-1.3942556491710711,0.0
1331,-1.4023584230717026,0.0
1332,-1.5645096455067666,0.0
1333,-1.499988962262563,0.0
1334,-1.4082658570011453,0.0
1335,-1.527490433844323,0.0
1336,-1.5268765952063563,0.0
1337,-1.5301159056233846,0.0
1338,-1.481061234287979,0.0
1339,-1.4722711468945917,0.0
1340,-1.2417679931051668,0.0
1341,2.2166598291113235,0.0
1342,5.325027010723466,0.0
1343,-2.1087903184350294,0.0
1344,-3.2107175546135407,0.0
1345,0.10372471097956315,0.0
1346,-2.2275504820406766,0.0
1347,-1.3414564111686478,0.0
1348,-1.5193285110046184,0.0
1349,-1.3935271462604402,0.0
1350,-1.6149187090404526,0.0
1351,-1.5280008492303876,0.0
1352,-1.4554043111507375,0.0
1353,-1.5701598951222473,0.0
1354,-1.4222746732989906,0.0
1355,-1.4640531223021573,0.0
1356,-1.5712691476201965,0.0
1357,-1.53977557771288,0.0
1358,-1.5622445066273827,0.0
1359,-1.5272743677112952,0.0
1360,-1.227212936467475,0.0
1361,2.154675960967639,0.0
1362,5.27957723767777,0.0
1363,-2.1612741162222835,0.0
1364,-3.40890089326948,0.0
1365,-0.05674228381158608,0.0
1366,-2.2461875692455626,0.0
1367,-1.27276035677313,0.0
1368,-1.503881516354116,0.0
1369,-1.449432025235953,0.0
1370,-1.472827919908646,0.0
1371,-1.5007327374491026,0.0
1372,-1.3789281512889304,0.0
1373,-1.4034999386208853,0.0
1374,-1.4340557050838654,0.0
1375,-1.4823946765325084,0.0
1376,-1.4962721130940433,0.0
1377,-1.5277487958577298,0.0
1378,-1.3739811647624012,0.0
1379,-1.555080589486646,0.0
1380,-1.1277383849608835,0.0
1381,2.3562143469240153,0.0
1382,5.33698593271297,0.0
1383,-2.140168083028789,0.0
1384,-3.278949290585189,0.0
1385,-0.06202830395605119,0.0
1386,-2.1818075221851503,0.0
1387,-1.3160750361581335,0.0
1388,-1.4437474216686237,0.0
1389,-1.4691675191231373,0.0
1390,-1.3681877144758154,0.0
1391,-1.4207884313333985,0.0
1392,-1.5330442596390037,0.0
1393,-1.5440716993047134,0.0
1394,-1.4536575317936014,0.0
1395,-1.4390145841177542,0.0
1396,-1.4452065190944952,0.0
1397,-1.3068684328436435,0.0
1398,-1.3401060734422254,0.0
1399,-1.4375422616257096,0.0
1400,-1.1115531175937594,0.0
1401,2.2703419526932977,0.0
1402,5.332294135141263,0.0
1403,-2.1107026939667586,0.0
1404,-3.1666759337008146,0.0
1405,-0.12185488363391062,0.0
1406,-2.2474648322144457,0.0
1407,-1.2719958320404143,0.0
1408,-1.6188079127839938,0.0
1409,-1.6478581057923665,0.0
1410,-1.4503619745529293,0.0
1411,-1.5591838979969614,0.0
1412,-1.5645054692672584,0.0
1413,-1.4032461658618731,0.0
1414,-1.4889461139058617,0.0
1415,-1.5545912214510538,0.0
1416,-1.3904681582577507,0.0
1417,-1.3833491752892888,0.0
1418,-1.4839496422096632,0.0
1419,-1.4726236630861291,0.0
1420,-1.2319401113316701,0.0
1421,2.1949666287277787,0.0
1422,5.434901809218656,0.0
1423,-2.1271482010473903,0.0
1424,-3.188973049680424,0.0
1425,0.043481377411335176,0.0
1426,-2.1298055781847607,0.0
1427,-1.160378328589455,0.0
1428,-1.4439899882260692,0.0
1429,-1.4905235440728308,0.0
1430,-1.4937785897563036,0.0
1431,-1.466344532082556,0.0
1432,-1.5390157215935059,0.0
1433,-1.4599094984003125,0.0
1434,-1.3990550031378555,0.0
1435,-1.555806839580272,0.0
1436,-1.4705618931749218,0.0
1437,-1.4435658741834398,0.0
1438,-1.4693676145100467,0.0
1439,-1.3612756234408072,0.0
1440,-1.0981697040953626,0.0
1441,2.31773175839465,0.0
1442,5.267603975576289,0.0
1443,-2.229833197709502,0.0
1444,-3.162649633443931,0.0
1445,0.1058440450456346,0.0
1446,-2.1446277906297366,0.0
1447,-1.2436601884432985,0.0
1448,-1.5557289192035848,0.0
1449,-1.4546147781834557,0.0
1450,-1.4795050247288135,0.0
1451,-1.4175625880030538,0.0
1452,-1.4283146994796532,0.0
1453,-1.4226186986568907,0.0
1454,-1.3680103504246484,0.0
1455,-1.4328520715991986,0.0
1456,-1.4381501048619707,0.0
1457,-1.3205091876117596,0.0
1458,-1.4364688880223357,0.0
1459,-1.5818273605709667,0.0
1460,-1.1698608706641038,0.0
1461,2.3436400340945776,0.0
1462,5.265407596452416,0.0
1463,-2.0085170282044547,0.0
1464,-3.238440552515808,0.0
1465,0.10787102824085815,0.0
1466,-2.244628936983572,0.0
1467,-1.3543128765062058,0.0
1468,-1.4173736539898334,0.0
1469,-1.4975793027222122,0.0
1470,-1.4100843777614402,0.0
1471,-1.402710261895853,0.0
1472,-1.5695426185909633,0.0
1473,-1.5899261029260172,0.0
1474,-1.438792469225037,0.0
1475,-1.372114749875641,0.0
1476,-1.4299986269440945,0.0
1477,-1.5082599814415192,0.0
1478,-1.4607459349611758,0.0
1479,-1.5143539835009823,0.0
1480,-1.0672630847085656,0.0
1481,2.3509093115802484,0.0
1482,5.238769343935401,0.0
1483,-2.072164783690335,0.0
1484,-3.1841607256406017,0.0
1485,0.08694348403284091,0.0
1486,-2.225001789466382,0.0
1487,-1.2618271800005787,0.0
1488,-1.4868622707553676,0.0
1489,-1.5252165892835274,0.0
1490,-1.3066597076190452,0.0
1491,-1.4685864721180384,0.0
1492,-1.489840362733399,0.0
1493,-1.4203894741492686,0.0
1494,-1.4952711827157357,0.0
1495,-1.5385822663379778,0.0
1496,-1.4002687221956103,0.0
1497,-1.3726091155884426,0.0
1498,-1.3310326182484717,0.0
1499,-1.3775396728268203,0.0
1500,-1.2001859246987228,0.0
1501,2.309696312483316,0.0
1502,5.265087780423432,0.0
1503,-2.2136867684430026,0.0
1504,-3.13375060684479,0.0
1505,-0.016514142598022863,0.0
1506,-2.232013558660751,0.0
1507,-1.262676810645962,0.0
1508,-1.438807180334151,0.0
1509,-1.4640968068460452,0.0
1510,-1.4874167492883097,0.0
1511,-1.3543130856196828,0.0
1512,-1.461689378725394,0.0
1513,-1.3500082814957846,0.0
1514,-1.357679214333978,0.0
1515,-1.5253586330342077,0.0
1516,-1.4774536872031572,0.0
1517,-1.469612738704569,0.0
1518,-1.4330358849178522,0.0
1519,-1.50411600764655,0.0
1520,-1.1789879709178854,0.0
1521,2.140019423221797,0.0
1522,5.3047435983435935,0.0
1523,-2.122700192320533,0.0
1524,-3.2214974295262677,0.0
1525,0.07726489626218469,0.0
1526,-2.1323610691362624,0.0
1527,-1.302280829966334,0.0
1528,-1.37739316513691,0.0
1529,-1.4446382585138031,0.0
1530,-1.4516788989657756,0.0
1531,-1.4362288106391632,0.0
1532,-1.3965496814040539,0.0
1533,-1.5047709774020686,0.0
1534,-1.3681116124535408,0.0
1535,-1.3132141841047291,0.0
1536,-1.4571617848784921,0.0
1537,-1.4774383299483291,0.0
1538,-1.4985148720265131,0.0
1539,-1.2898350455619447,0.0
1540,-1.1194146390278397,0.0
1541,2.3737724497413257,0.0
1542,5.412530821795327,0.0
1543,-2.149768450499055,0.0
1544,-3.2196022707516607,0.0
1545,0.04257594628568584,0.0
1546,-2.1649185919764347,0.0
1547,-1.2551548873285236,0.0
1548,-1.4268081943556368,0.0
1549,-1.5289215444943902,0.0
1550,-1.3484773113576607,0.0
1551,-1.2895100834605655,0.0
1552,-1.4035231078937367,0.0
1553,-1.4193252840802482,0.0
1554,-1.3648254401959572,0.0
1555,-1.4270344317739465,0.0
1556,-1.4851427330675793,0.0
1557,-1.286357478404495,0.0
1558,-1.426490857265318,0.0
1559,-1.2796149193385413,0.0
1560,-1.0493822346141797,0.0
1561,2.3568311886123,0.0
1562,5.412259230161576,0.0
1563,-2.0531641153015228,0.0
1564,-3.145078565798645,0.0
1565,0.17147078680842842,0.0
1566,-2.1345457491082094,0.0
1567,-1.18521114878398,0.0
1568,-1.5190896072392042,0.0
1569,-1.47286263946515,0.0
1570,-1.4616732349913812,0.0
1571,-1.4022194463324718,0.0
1572,-1.476893406806743,0.0
1573,-1.3603741510345058,0.0
1574,-1.4660377659329153,0.0
1575,-1.3614139003482404,0.0
1576,-1.5276747606299663,0.0
1577,-1.44167842332923,0.0
1578,-1.5227088839123273,0.0
1579,-1.5161678284088926,0.0
1580,-1.0557424010860181,0.0
1581,2.379273247708798,0.0
1582,5.26332524048783,0.0
1583,-2.093605519488309,0.0
1584,-3.018532616237814,0.0
1585,0.1347161611912353,0.0
1586,-2.2563129680622245,0.0
1587,-1.2009740857645796,0.0
1588,-1.4023277358501778,0.0
1589,-1.292463844505003,0.0
1590,-1.4024809278992876,0.0
1591,-1.3464394650923275,0.0
1592,-1.446701706659186,0.0
1593,-1.5598556437252673,0.0
1594,-1.4512549695459467,0.0
1595,-1.3171276425675928,0.0
1596,-1.37110646993635,0.0
1597,-1.5843234156864217,0.0
1598,-1.3363088888205013,0.0
1599,-1.3440706869727426,0.0
1600,-1.1122800438827922,0.0
1601,2.3712456148455066,0.0
1602,5.4078215286686895,0.0
1603,-2.1986946039600896,0.0
1604,-3.05108233287453,0.0
1605,0.1408372789010668,0.0
1606,-2.2221846867461608,0.0
1607,-1.1351095193761498,0.0
1608,-1.243214619677203,0.0
1609,-1.4715841527398597,0.0
1610,-1.3595187991033497,0.0
1611,-1.3657432422698188,0.0
1612,-1.2732474299577885,0.0
1613,-1.3530314638253702,0.0
1614,-1.457241898600981,0.0
1615,-1.319932076231592,0.0
1616,-1.3369286608745254,0.0
1617,-1.3418295649775844,0.0
1618,-1.4563191602035952,0.0
1619,-1.409105805460812,0.0
1620,-1.0961449203733369,0.0
1621,2.4561484715374453,0.0
1622,5.417096139323428,0.0
1623,-2.0632404131596798,0.0
1624,-3.0672249265646414,0.0
1625,0.12263569962681653,0.0
1626,-2.185658144120408,0.0
1627,-1.1059695610442193,0.0
1628,-1.4425474122843422,0.0
1629,-1.3346710584066768,0.0
1630,-1.234957388623251,0.0
1631,-1.262956074637041,0.0
1632,-1.193218147342057,0.0
1633,-1.3691168144996038,0.0
1634,-1.4189808594601045,0.0
1635,-1.4233467385641472,0.0
1636,-1.318376748890657,0.0
1637,-1.3484567351477001,0.0
1638,-1.418291345070588,0.0
1639,-1.3932052086117594,0.0
1640,-1.0661757706504127,0.0
1641,2.4346762137011773,0.0
1642,5.35068065398523,0.0
1643,-2.0855483437811526,0.0
1644,-3.1167459646832807,0.0
1645,-0.0370191158549551,0.0
1646,-2.0910363680520883,0.0
1647,-1.1613872258167637,0.0
1648,-1.2839687230043217,0.0
1649,-1.376622215441974,0.0
1650,-1.3236565910331417,0.0
1651,-1.3876177163237375,0.0
1652,-1.3669033926696303,0.0
1653,-1.2994946507287135,0.0
1654,-1.4008577159195472,0.0
1655,-1.4071753009814316,0.0
1656,-1.304054962497862,0.0
1657,-1.203204981051841,0.0
1658,-1.2695679642248108,0.0
1659,-1.429096833837633,0.0
1660,-1.067300538754768,0.0
1661,2.508565492122135,0.0
1662,5.361879978912133,0.0
1663,-2.0389743519447165,0.0
1664,-3.0409837766428955,0.0
1665,0.08879827857329015,0.0
1666,-2.152451745809797,0.0
1667,-1.1035580117847672,0.0
1668,-1.3118229876688525,0.0
1669,-1.3792435044721956,0.0
1670,-1.3716660453373761,0.0
1671,-1.3446806014839812,0.0
1672,-1.2038048654597284,0.0
1673,-1.3038638675502217,0.0
1674,-1.2373298096619774,0.0
1675,-1.3763057763266076,0.0
1676,-1.3975517791661212,0.0
1677,-1.3215811884442863,0.0
1678,-1.4480916792844636,0.0
1679,-1.3662846225466545,0.0
1680,-0.9972061981071288,0.0
1681,2.5697338195103585,0.0
1682,5.487006505117306,0.0
1683,-1.928392389227123,0.0
1684,-2.9795959138849533,0.0
1685,0.10358055366885566,0.0
1686,-1.9257733287486931,0.0
1687,-1.1813801589925985,0.0
1688,-1.1896392501352766,0.0
1689,-1.432426533807317,0.0
1690,-1.4178964211698086,0.0
1691,-1.4051197444621617,0.0
1692,-1.3502329718876827,0.0
1693,-1.1670394743616423,0.0
1694,-1.3394831424649036,0.0
1695,-1.2679641625815654,0.0
1696,-1.286016456421028,0.0
1697,-1.3697501798780056,0.0
1698,-1.4132346253990926,0.0
1699,-1.3092623934785546,0.0
1700,-1.0054536015451647,0.0
1701,2.487716670724791,0.0
1702,5.4279570786820726,0.0
1703,-2.0056472154853866,0.0
1704,-2.898999871839261,0.0
1705,0.2784684321719535,0.0
1706,-2.1707905190677224,0.0
1707,-1.1142592678200682,0.0
1708,-1.3610995488980375,0.0
1709,-1.453678762528994,0.0
1710,-1.1766243608161586,0.0
1711,-1.2514783794666604,0.0
1712,-1.3036422594569934,0.0
1713,-1.3906778905623276,0.0
1714,-1.3363699333564256,0.0
1715,-1.3463831831598543,0.0
1716,-1.2391142511511042,0.0
1717,-1.42387276632699,0.0
1718,-1.3093875920225118,0.0
1719,-1.208787474695845,0.0
1720,-0.942535973190665,0.0
1721,2.4531359794278167,0.0
1722,5.569294198402202,0.0
1723,-1.8765262355261842,0.0
1724,-2.9126197954421382,0.0
1725,0.17963602267841972,0.0
1726,-2.04579094254561,0.0
1727,-0.9873371325631016,0.0
1728,-1.203364840259572,0.0
1729,-1.3445322663157142,0.0
1730,-1.232447694065732,0.0
1731,-1.142459013505298,0.0
1732,-1.0872801920387032,0.0
1733,-1.2356217070245947,0.0
1734,-1.2125842129107578,0.0
1735,-1.1776455886313277,0.0
1736,-1.3046370505924039,0.0
1737,-1.2476986099742784,0.0
1738,-1.2244987068849733,0.0
1739,-1.2048098081729481,0.0
1740,-0.8433175932765246,0.0
1741,2.603605987380929,0.0
1742,5.454272749402274,0.0
1743,-1.9928177263386384,0.0
1744,-3.007611964569101,0.0
1745,0.26809885343513207,0.0
1746,-2.0057004596132733,0.0
1747,-1.1354349338145955,0.0
1748,-1.2839216270082943,0.0
1749,-1.2720811622413521,0.0
1750,-1.3003759309760432,0.0
1751,-1.2405811598517205,0.0
1752,-1.276306970152633,0.0
1753,-1.2482175965003888,0.0
1754,-1.204468636966181,0.0
1755,-1.1019224444040159,0.0
1756,-1.345468519794781,0.0
1757,-1.3198942788959653,0.0
1758,-1.16014104386358,0.0
1759,-1.2381090692407883,0.0
1760,-1.0354953850790536,0.0
1761,2.5906166921007374,0.0
1762,5.521309259375709,0.0
1763,-1.9711253883094677,0.0
1764,-2.8110715673534012,0.0
1765,0.19311547537849205,0.0
1766,-1.8739806420534584,0.0
1767,-1.0140385470810374,0.0
1768,-1.194007057264808,0.0
1769,-1.2724945929098936,0.0
1770,-1.1495767294722006,0.0
1771,-1.3249652424626235,0.0
1772,-1.1526324554451195,0.0
1773,-1.273216549638189,0.0
1774,-1.2451039121933796,0.0
1775,-1.1021381751185428,0.0
1776,-1.1292501050010453,0.0
1777,-1.2336586333934447,0.0
1778,-1.1542379684262507,0.0
1779,-1.1928329934014905,0.0
1780,-0.7866718938682816,0.0
1781,2.589880337979481,0.0
1782,5.612820824665491,0.0
1783,-2.039132488174918,0.0
1784,-2.756233704273081,0.0
1785,0.39505057024205126,0.0
1786,-1.927304272461949,0.0
1787,-1.1504848490175081,0.0
1788,-1.1957247074169888,0.0
1789,-1.3099100881679668,0.0
1790,-1.0727846203742197,0.0
1791,-1.2819086047471622,0.0
1792,-1.2477330110095863,0.0
1793,-1.1613169719909895,0.0
1794,-1.2840006840714302,0.0
1795,-1.2305850459107879,0.0
1796,-1.196899206645402,0.0
1797,-1.3369275290312783,0.0
1798,-1.1755095883726168,0.0
1799,-1.1704249978317276,0.0
1800,-0.7444066733469609,0.0
1801,2.6893921938006513,0.0
1802,5.445089559812152,0.0
1803,-1.8781505997569448,0.0
1804,-2.8279678165149407,0.0
1805,0.3386227158007822,0.0
1806,-1.846189825452004,0.0
1807,-1.0372955004657503,0.0
1808,-1.1452988793561143,0.0
1809,-1.2825563866941074,0.0
1810,-1.1679474401861227,0.0
1811,-0.9932598586726353,0.0
1812,-1.0892939191360833,0.0
1813,-1.18392603033802,0.0
1814,-1.119313974130987,0.0
1815,-1.1423861573656702,0.0
1816,-1.0599252344906065,0.0
1817,-1.1832963148055964,0.0
1818,-1.101642749083713,0.0
1819,-0.9246472045881936,0.0
1820,-0.8677879351073277,0.0
1821,2.661725891321689,0.0
1822,5.574735169891765,0.0
1823,-1.9280280349532783,0.0
1824,-2.807356426351401,0.0
1825,0.3760638394875355,0.0
1826,-1.9770542790306962,0.0
1827,-0.9622796223576344,0.0
1828,-1.0199554252057499,0.0
1829,-1.1727953381779075,0.0
1830,-1.053373872605091,0.0
1831,-1.24617425402216,0.0
1832,-1.0923022771428132,0.0
1833,-1.1400071120045616,0.0
1834,-1.11087696552165,0.0
1835,-1.1551698434948279,0.0
1836,-1.062712469113905,0.0
1837,-1.0867495864908865,0.0
1838,-1.2740167778971874,0.0
1839,-1.2032904854589341,0.0
1840,-0.8091131153134646,0.0
1841,2.775400379016242,0.0
1842,5.57376063427488,0.0
1843,-1.9340800447480504,0.0
1844,-2.7390572739626653,0.0
1845,0.30898885440687596,0.0
1846,-1.8351695801845525,0.0
1847,-0.9324181344917175,0.0
1848,-1.0797800821538832,0.0
1849,-1.3126854000485095,0.0
1850,-1.2608228410312425,0.0
1851,-1.1074957992475685,0.0
1852,-1.1652717967654544,0.0
1853,-1.1931008456992735,0.0
1854,-1.06622252182105,0.0
1855,-1.1328762150928828,0.0
1856,-1.1041948241563602,0.0
1857,-1.1382154679506251,0.0
1858,-1.1502370143745841,0.0
1859,-1.0550163511337283,0.0
1860,-0.7073170705271545,0.0
1861,2.7299508957812693,0.0
1862,5.412502803311631,0.0
1863,-1.969724775682397,0.0
1864,-2.8298741652522894,0.0
1865,0.3382721923567309,0.0
1866,-1.8283150912220323,0.0
1867,-0.8917670784221942,0.0
1868,-1.116747364582147,0.0
1869,-1.124369984154748,0.0
1870,-1.1575657098788612,0.0
1871,-1.0089860611478332,0.0
1872,-1.0900046241980645,0.0
1873,-1.139181635801811,0.0
1874,-1.183508215097803,0.0
1875,-1.0890620134351363,0.0
1876,-1.1323626023471225,0.0
1877,-1.0826504336393314,0.0
1878,-1.2101929668913451,0.0
1879,-1.193453931849312,0.0
1880,-0.8032264846416641,0.0
1881,2.7724160923288124,0.0
1882,5.658450097369001,0.0
1883,-1.9737464382227348,0.0
1884,-2.774253987816551,0.0
1885,0.36892779181345614,0.0
1886,-1.8849790218116924,0.0
1887,-1.0322602238928975,0.0
1888,-1.2817005907686907,0.0
1889,-1.2249774661021269,0.0
1890,-1.2573916020888172,0.0
1891,-1.2151454678679943,0.0
1892,-1.2408085466540117,0.0
1893,-1.2020423442418091,0.0
1894,-1.1401126146672083,0.0
1895,-1.2852006133984637,0.0
1896,-1.0776841317459442,0.0
1897,-0.9975768333649381,0.0
1898,-1.1477407422758037,0.0
1899,-1.1854518118057749,0.0
1900,-0.7661325613298868,0.0
1901,2.6664872801174067,0.0
1902,5.593483505542029,0.0
1903,-1.8998419428800695,0.0
1904,-2.8418632321658523,0.0
1905,0.30742054331033297,0.0
1906,-1.851929515736965,0.0
1907,-0.9587482070066384,0.0
1908,-1.2259225205200752,0.0
1909,-1.3694428960595582,0.0
1910,-1.1203663770234156,0.0
1911,-1.160926225900031,0.0
1912,-1.2563951972694976,0.0
1913,-1.1121735928214607,0.0
1914,-1.111763988569679,0.0
1915,-1.1168085568228965,0.0
1916,-1.0677035142523843,0.0
1917,-1.212639556775692,0.0
1918,-1.2894508297463085,0.0
1919,-1.2966589671553763,0.0
1920,-0.742241547840229,0.0
1921,2.586534077946404,0.0
1922,5.495451599305521,0.0
1923,-1.9876362164317363,0.0
1924,-2.9662671956006537,0.0
1925,0.3388546465364686,0.0
1926,-1.9409017728635363,0.0
1927,-1.053301079940995,0.0
1928,-1.1847954961961873,0.0
1929,-1.2564573563728407,0.0
1930,-1.1353506726051383,0.0
1931,-1.253731222260414,0.0
1932,-1.1477093194822372,0.0
1933,-1.2056267960927307,0.0
1934,-1.2688518947189238,0.0
1935,-1.2041626666083591,0.0
1936,-1.1972473976773543,0.0
1937,-1.2770918155289723,0.0
1938,-1.201552613069425,0.0
1939,-1.3352488567477552,0.0
1940,-0.6932952994462418,0.0
1941,2.4713738539300634,0.0
1942,5.485398452897382,0.0
1943,-1.9568255573493896,0.0
1944,-2.8246078412679543,0.0
1945,0.4070360234579433,0.0
1946,-1.8827177913414475,0.0
1947,-0.9632782192660256,0.0
1948,-1.0792783747767334,0.0
1949,-1.1786455314572275,0.0
1950,-1.1843095011180427,0.0
1951,-1.026898773999054,0.0
1952,-1.1022287682538408,0.0
1953,-1.3754063474705873,0.0
1954,-1.1385192956191494,0.0
1955,-1.1709747875603675,0.0
1956,-1.21868764510524,0.0
1957,-1.008437774888193,0.0
1958,-1.201338044445547,0.0
1959,-1.2341622795349523,0.0
1960,-0.8993887018965031,0.0
1961,2.6724638945717065,0.0
1962,5.409192753837674,0.0
1963,-1.9843964180747529,0.0
1964,-2.87753549092459,0.0
1965,0.4096600268424533,0.0
1966,-2.0010683369445497,0.0
1967,-1.0832449687744399,0.0
1968,-1.3375771131824126,0.0
1969,-1.2387799521699385,0.0
1970,-1.2995990930784138,0.0
1971,-1.4156444398786587,0.0
1972,-1.2220503746702553,0.0
1973,-1.3665432172793748,0.0
1974,-1.2074491625007737,0.0
1975,-1.3092768268076762,0.0
1976,-1.1770885642218003,0.0
1977,-1.3090894247501923,0.0
1978,-1.227503458673959,0.0
1979,-1.1899922951489454,0.0
1980,-0.7433679543858602,0.0
1981,2.666331849257541,0.0
1982,5.6346023434288455,0.0
1983,-1.9444321405044382,0.0
1984,-2.8340087331752866,0.0
1985,0.37854635560061856,0.0
1986,-2.055732365997139,0.0
1987,-0.9039838466190723,0.0
1988,-1.2498828109037918,0.0
1989,-1.1891286499267202,0.0
1990,-1.1576808167040598,0.0
1991,-1.1966372307448927,0.0
1992,-1.241892036539208,0.0
1993,-1.165787476352079,0.0
1994,-1.1985777393608508,0.0
1995,-1.1198791300591173,0.0
1996,-1.2528648960882693,0.0
1997,-1.1411172426443101,0.0
1998,-1.1041077747030072,0.0
1999,-1.2895304360025166,0.0
2000,-0.7938536544913067,0.0
2001,2.5715831107309954,0.0
2002,5.499683465694264,0.0
2003,-2.033121866332727,0.0
2004,-2.7663100698536414,0.0
2005,0.24361806418338938,0.0
2006,-2.056693436441485,0.0
2007,-1.0538781019103198,0.0
2008,-1.233470470306764,0.0
2009,-1.333511111541926,0.0
2010,-1.056992348506626,0.0
2011,-1.2537109377706446,0.0
2012,-1.3158634612576163,0.0
2013,-1.172371486257734,0.0
2014,-1.1600700626090101,0.0
2015,-1.1364056723659497,0.0
2016,-1.1922635728522772,0.0
2017,-1.2836233373407688,0.0
2018,-1.2237570814844416,0.0
2019,-1.2133079638735107,0.0
2020,-0.7508810916313045,0.0
2021,2.594035225045702,0.0
2022,5.568098762380435,0.0
2023,-2.0663427924206412,0.0
2024,-2.8656694986137956,0.0
2025,0.2381097092228821,0.0
2026,-2.0130722646960826,0.0
2027,-1.004532577354481,0.0
2028,-1.0955003849221943,0.0
2029,-1.1821044325668553,0.0
2030,-1.221328876194918,0.0
2031,-1.2339291242897013,0.0
2032,-1.2566652033765653,0.0
2033,-1.3073418044894427,0.0
2034,-1.2422052322247388,0.0
2035,-1.214888561280045,0.0
2036,-1.3239204654530727,0.0
2037,-1.2955502009190356,0.0
2038,-1.3041062313684113,0.0
2039,-1.1969565299261407,0.0
2040,-0.9209443435563138,0.0
2041,2.747495136580741,0.0
2042,5.612718629115356,0.0
2043,-2.064950208426358,0.0
2044,-2.961242812205608,0.0
2045,0.2693190104978507,0.0
2046,-1.9135099369137094,0.0
2047,-1.1174061599525802,0.0
2048,-1.1802452997561772,0.0
2049,-1.3044843172383767,0.0
2050,-1.1606709210912267,0.0
2051,-1.2065636052453723,0.0
2052,-1.281334637091014,0.0
2053,-1.1603005066078254,0.0
2054,-1.2691698098298967,0.0
2055,-1.2172966730107437,0.0
2056,-1.3342095800846718,0.0
2057,-1.2973702712400115,0.0
2058,-1.1425957620170657,0.0
2059,-1.2600276514970319,0.0
2060,-0.8304679159304985,0.0
2061,2.6565138212362873,0.0
2062,5.638389935901094,0.0
2063,-2.0982230321850777,0.0
2064,-2.727757027828968,0.0
2065,0.1907170240323457,0.0
2066,-2.0415627375965153,0.0
2067,-0.9774226976819098,0.0
2068,-1.1353008837957166,0.0
2069,-1.3938858310120708,0.0
2070,-1.2379611262329087,0.0
2071,-1.1363936131613877,0.0
2072,-1.2499490131318776,0.0
2073,-1.1474534742077946,0.0
2074,-1.0977791301128252,0.0
2075,-1.1374666538608498,0.0
2076,-1.2265332648358769,0.0
2077,-1.2327540030972484,0.0
2078,-1.138736616705034,0.0
2079,-1.221128309106421,0.0
2080,-0.9350437562782603,0.0
2081,2.7173276760658256,0.0
2082,5.444608577554245,0.0
2083,-2.0671001949930843,0.0
2084,-2.8464348402024684,0.0
2085,0.35048070845188906,0.0
2086,-1.9456903955133869,0.0
2087,-1.0224660365009282,0.0
2088,-1.2244349924067135,0.0
2089,-1.239859111037925,0.0
2090,-1.172856779369583,0.0
2091,-1.2061120439827728,0.0
2092,-1.1295217930479597,0.0
2093,-1.128309054531568,0.0
2094,-1.259307534760656,0.0
2095,-1.174094750604805,0.0
2096,-1.2452016124911873,0.0
2097,-1.3467881813623959,0.0
2098,-1.2815952011309841,0.0
2099,-1.262061655839917,0.0
2100,-0.8293705288793349,0.0
2101,2.647642235064173,0.0
2102,5.380557209954006,0.0
2103,-1.9624358805126743,0.0
2104,-2.7823635153765807,0.0
2105,0.38654865062224464,0.0
2106,-2.1190130956676647,0.0
2107,-1.2510746595544637,0.0
2108,-1.2909499399141966,0.0
2109,-1.1697303629396616,0.0
2110,-1.2870498823577186,0.0
2111,-1.2577537258103983,0.0
2112,-1.206041466696665,0.0
2113,-1.1733593096276296,0.0
2114,-1.2294434092217397,0.0
2115,-1.0651989009336806,0.0
2116,-1.276864502408031,0.0
2117,-1.241438974104453,0.0
2118,-1.241691506754061,0.0
2119,-1.2257310990860897,0.0
2120,-0.674212134545044,0.0
2121,2.7132981324914223,0.0
2122,5.603587973291409,0.0
2123,-2.096677019694164,0.0
2124,-2.7784412009231962,0.0
2125,0.2307009104429838,0.0
2126,-2.0167852283587266,0.0
2127,-0.9249444353308318,0.0
2128,-1.2332284253978656,0.0
2129,-1.1282705099158707,0.0
2130,-1.2147962676753046,0.0
2131,-1.2922321671570531,0.0
2132,-1.1408389631580163,0.0
2133,-1.217347588490454,0.0
2134,-1.262279978900853,0.0
2135,-1.3304269644075335,0.0
2136,-1.1856056245913902,0.0
2137,-1.2369618468622547,0.0
2138,-1.2278738131520937,0.0
2139,-1.253731659394963,0.0
2140,-0.8259941447004966,0.0
2141,2.6474567151503314,0.0
2142,5.69314081156353,0.0
2143,-1.8268032428040564,0.0
2144,-2.822382138372504,0.0
2145,0.39625851192004813,0.0
2146,-1.9723831641337535,0.0
2147,-0.8887105190169002,0.0
2148,-1.1159140254909365,0.0
2149,-1.2766073694714783,0.0
2150,-1.123543698562332,0.0
2151,-1.253483240753098,0.0
2152,-1.1265748888381832,0.0
2153,-1.1432172387159851,0.0
2154,-1.1156002285191495,0.0
2155,-1.1750867990352452,0.0
2156,-1.1297710420744882,0.0
2157,-1.079405553153197,0.0
2158,-1.1155856743015182,0.0
2159,-1.205722301420152,0.0
2160,-0.8374288837052014,0.0
2161,2.8895161557598392,0.0
2162,5.501467983869228,0.0
2163,-2.078690712126159,0.0
2164,-2.717239680657676,0.0
2165,0.41744627375058374,0.0
2166,-1.9906071920755255,0.0
2167,-0.9348727843977377,0.0
2168,-1.1389107496536302,0.0
2169,-1.3356618228870594,0.0
2170,-0.942785880265694,0.0
2171,-1.10820847840958,0.0
2172,-1.152555378025835,0.0
2173,-1.069481355395552,0.0
2174,-1.1197830399958781,0.0
2175,-1.0857043767213412,0.0
2176,-1.0410183354036175,0.0
2177,-1.2083717295965963,0.0
2178,-1.2739291201551628,0.0
2179,-1.1765309111111886,0.0
2180,-0.7204355553164404,0.0
2181,2.7470115565007944,0.0
2182,5.600137759750297,0.0
2183,-2.1065508992312143,0.0
2184,-2.8094419758108256,0.0
2185,0.15612488050730633,0.0
2186,-1.942256091994391,0.0
2187,-0.9987617025173969,0.0
2188,-1.1287047338353582,0.0
2189,-1.18213955490265,0.0
2190,-1.1366963795285658,0.0
2191,-1.1402527091352974,0.0
2192,-1.1164442231082452,0.0
2193,-1.234200722240122,0.0
2194,-1.1442447190221214,0.0
2195,-1.0928021346998305,0.0
2196,-1.1352899667798129,0.0
2197,-1.178264020535264,0.0
2198,-1.0595853687076455,0.0
2199,-1.13186944089819,0.0
2200,-0.799539060292549,0.0
2201,2.7429451872974826,0.0
2202,5.605759563484378,0.0
2203,-2.023888753184447,0.0
2204,-2.7955028795945362,0.0
2205,0.44640876533162355,0.0
2206,-2.057522369072914,0.0
2207,-0.8803980069931613,0.0
2208,-1.1693384741429367,0.0
2209,-1.1041557674073863,0.0
2210,-1.177842906109994,0.0
2211,-1.0711048340498774,0.0
2212,-1.224666582243265,0.0
2213,-1.1637968824216849,0.0
2214,-1.0635526650352873,0.0
2215,-1.0224368661140593,0.0
2216,-1.0275725046077964,0.0
2217,-1.0627446665945726,0.0
2218,-1.1913625979762026,0.0
2219,-1.1211065503924398,0.0
2220,-0.5769316678186893,0.0
2221,2.888005695542111,0.0
2222,5.653091080479235,0.0
2223,-1.9353090341379506,0.0
2224,-2.724801895241704,0.0
2225,0.4533063907129018,0.0
2226,-1.9143310703359488,0.0
2227,-0.8345784170344026,0.0
2228,-1.035788557959081,0.0
2229,-1.1161378639701143,0.0
2230,-1.0435837697818917,0.0
2231,-1.0176753989736118,0.0
2232,-1.0065380440688656,0.0
2233,-1.0604420763975475,0.0
2234,-1.0862786215634213,0.0
2235,-0.9824130942198688,0.0
2236,-1.1839255059150715,0.0
2237,-1.1048466626660105,0.0
2238,-1.0447307720625991,0.0
2239,-1.0867085283166533,0.0
2240,-0.6334829544816705,0.0
2241,2.7437719702285475,0.0
2242,5.626496563682678,0.0
2243,-1.9426876572434912,0.0
2244,-2.6184753479523963,0.0
2245,0.297545021735383,0.0
2246,-1.9696158285005705,0.0
2247,-0.8684445897819222,0.0
2248,-1.0708375547791793,0.0
2249,-1.0705486974017866,0.0
2250,-1.0751972738664133,0.0
2251,-1.0587846652477284,0.0
2252,-1.1362651100984682,0.0
2253,-0.959161432997603,0.0
2254,-0.9993561182952281,0.0
2255,-1.0059017756163728,0.0
2256,-1.0286348535934673,0.0
2257,-1.1168619439647978,0.0
2258,-1.1285060563248157,0.0
2259,-1.1777420778353582,0.0
2260,-0.6257334108580481,0.0
2261,2.8824522307643905,0.0
2262,5.65151868172098,0.0
2263,-1.9381563383371128,0.0
2264,-2.6758429190287494,0.0
2265,0.38573799229756256,0.0
2266,-1.8099373046442415,0.0
2267,-0.8230223791205982,0.0
2268,-1.064465544848978,0.0
2269,-1.152021212205667,0.0
2270,-1.0821539247325296,0.0
2271,-1.1024132210608586,0.0
2272,-1.111944835532255,0.0
2273,-1.1255229300516574,0.0
2274,-1.0791492239159466,0.0
2275,-1.0134043301873434,0.0
2276,-1.099235396751417,0.0
2277,-1.0565889388852838,0.0
2278,-1.055169054830541,0.0
2279,-1.175861647381815,0.0
2280,-0.7627292310620798,0.0
2281,2.9439360464024356,0.0
2282,5.582243520971042,0.0
2283,-2.0796116645479525,0.0
2284,-2.5546726656271934,0.0
2285,0.48306725958229224,0.0
2286,-1.6282152762016693,0.0
2287,-0.7324221201626742,0.0
2288,-1.0827203042026017,0.0
2289,-0.9426764392769003,0.0
2290,-0.9603667584784592,0.0
2291,-0.9863544316035187,0.0
2292,-0.9952486658547799,0.0
2293,-1.0379184002099888,0.0
2294,-1.0716706253025612,0.0
2295,-0.9776995903112127,0.0
2296,-1.079282462054994,0.0
2297,-0.976228086505665,0.0
2298,-1.0056307389723218,0.0
2299,-1.0129998499419808,0.0
2300,-0.6004628178741852,0.0
2301,3.0256921415683022,0.0
2302,5.616206150460802,0.0
2303,-1.9093482201038523,0.0
2304,-2.55404613890436,0.0
2305,0.4039318770232627,0.0
2306,-1.798676186391887,0.0
2307,-0.7778760599754141,0.0
2308,-1.013113566829493,0.0
2309,-1.0081168599728372,0.0
2310,-1.0370747345689548,0.0
2311,-0.8917177607356342,0.0
2312,-0.994662458421007,0.0
2313,-0.9171257964600713,0.0
2314,-0.9468818141360639,0.0
2315,-0.8914229615235348,0.0
2316,-0.9857792921883741,0.0
2317,-0.9670571577433368,0.0
2318,-0.9816988376645466,0.0
2319,-1.030427267718558,0.0
2320,-0.678379957472254,0.0
2321,2.9555062178434732,0.0
2322,5.616578116242189,0.0
2323,-1.9187962022574,0.0
2324,-2.6323582713378055,0.0
2325,0.40860130623480995,0.0
2326,-1.8242594761198783,0.0
2327,-0.8340964216523634,0.0
2328,-0.987158815959896,0.0
2329,-1.0816443559638256,0.0
2330,-1.0033620638948393,0.0
2331,-0.9858240762738772,0.0
2332,-1.093548973327554,0.0
2333,-1.1426688878843732,0.0
2334,-1.0324664314475567,0.0
2335,-0.9692259870030172,0.0
2336,-0.9993723546174859,0.0
2337,-0.9970403844294997,0.0
2338,-0.9605556744662945,0.0
2339,-1.0296862156951343,0.0
2340,-0.6182227399285158,0.0
2341,2.885090240414073,0.0
2342,5.784575763507648,0.0
2343,-2.0284494263518305,0.0
2344,-2.54460913624875,0.0
2345,0.451222213179995,0.0
2346,-1.7894578727477954,0.0
2347,-0.900883499095783,0.0
2348,-1.080049814531019,0.0
2349,-1.0391649331512922,0.0
2350,-1.06961549026828,0.0
2351,-1.0724771521338312,0.0
2352,-0.9840206248202411,0.0
2353,-0.9420757928387612,0.0
2354,-1.0692619107758023,0.0
2355,-0.8619334594361888,0.0
2356,-1.051782276548938,0.0
2357,-1.1710563550025725,0.0
2358,-0.9482135276829158,0.0
2359,-1.0339144614337714,0.0
2360,-0.6709889465959864,0.0
2361,2.8397302843817194,0.0
2362,5.617400371055438,0.0
2363,-1.8510228721830895,0.0
2364,-2.5661725645446807,0.0
2365,0.4655780375323977,0.0
2366,-1.7186911867160235,0.0
2367,-0.7383594331299529,0.0
2368,-0.889013629806329,0.0
2369,-0.9985069956863111,0.0
2370,-0.9831184477665381,0.0
2371,-1.0024360232796188,0.0
2372,-1.0129726632600276,0.0
2373,-1.0201475364379482,0.0
2374,-0.9422449719751036,0.0
2375,-1.1499078754049845,0.0
2376,-1.0919011089440098,0.0
2377,-1.0118877192456672,0.0
2378,-1.0729734236065223,0.0
2379,-1.0670302991202127,0.0
2380,-0.8494248865029664,0.0
2381,2.9871514652981945,0.0
2382,5.593447108619829,0.0
2383,-1.8428060563189768,0.0
2384,-2.6464957110785123,0.0
2385,0.4006142093467193,0.0
2386,-1.7869529706215899,0.0
2387,-0.8372491421982527,0.0
2388,-1.0090235424874412,0.0
2389,-1.0787707978715233,0.0
2390,-1.12917618299018,0.0
2391,-1.0884086390978835,0.0
2392,-1.136099767562349,0.0
2393,-1.0989544538813867,0.0
2394,-1.0458513346583271,0.0
2395,-1.0827873908978911,0.0
2396,-0.955230336900165,0.0
2397,-1.119782703984156,0.0
2398,-1.16676582560068,0.0
2399,-1.1237453778324646,0.0
2400,-0.7303049485865749,0.0
2401,2.9260606770372384,0.0
2402,5.7374981825317715,0.0
2403,-1.9979883297947567,0.0
2404,-2.6884932901868517,0.0
2405,0.39783345718215557,0.0
2406,-1.758866061592005,0.0
2407,-0.8954078322830104,0.0
2408,-1.05135132572502,0.0
2409,-1.0280782909097086,0.0
2410,-1.1706662317950933,0.0
2411,-1.0850167117522103,0.0
2412,-0.999464366705805,0.0
2413,-1.1507654066251418,0.0
2414,-1.0141853222663357,0.0
2415,-1.0141189732974565,0.0
2416,-1.0154276805361653,0.0
2417,-0.9306505149553781,0.0
2418,-0.9447741025062241,0.0
2419,-0.8518165587943979,0.0
2420,-0.584572837246585,0.0
2421,2.960124748316345,0.0
2422,5.7633782101099005,0.0
2423,-1.8827406118753192,0.0
2424,-2.5908126869328676,0.0
2425,0.4695482528641748,0.0
2426,-1.7093216975057521,0.0
2427,-0.738636575632652,0.0
2428,-0.9850656796952559,0.0
2429,-0.8610199506557135,0.0
2430,-1.0678138069787626,0.0
2431,-1.0294942058334708,0.0
2432,-1.0624919675330389,0.0
2433,-1.096640471392895,0.0
2434,-0.9355686900349571,0.0
2435,-1.0169663476473352,0.0
2436,-1.1207147630426921,0.0
2437,-0.8445588186057442,0.0
2438,-0.9896792399865705,0.0
2439,-1.0071197247478394,0.0
2440,-0.6942468810550372,0.0
2441,2.9149578169915653,0.0
2442,5.800810722286799,0.0
2443,-1.8739995832342142,0.0
2444,-2.582643878574755,0.0
2445,0.4578792533089555,0.0
2446,-1.695110613310398,0.0
2447,-0.7835991903117083,0.0
2448,-1.0209140074076868,0.0
2449,-0.9906068931955911,0.0
2450,-0.9186685068356099,0.0
2451,-1.0457575209920704,0.0
2452,-1.0215114266946546,0.0
2453,-0.9260921209891348,0.0
2454,-1.1031494688769126,0.0
2455,-1.0151185639658513,0.0
2456,-1.04260506971748,0.0
2457,-0.8506750898557179,0.0
2458,-0.8846720972346658,0.0
2459,-0.9112893668661542,0.0
2460,-0.770224828772202,0.0
2461,2.8825956667071875,0.0
2462,5.636485994812495,0.0
2463,-1.956057120995109,0.0
2464,-2.6509027769945357,0.0
2465,0.4673772650496786,0.0
2466,-1.7289718129905771,0.0
2467,-0.9256598167401002,0.0
2468,-1.0446414631423027,0.0
2469,-1.076604505062947,0.0
2470,-0.9439192884211646,0.0
2471,-1.0407144670984259,0.0
2472,-0.8689584718422313,0.0
2473,-0.9887998412164037,0.0
2474,-0.9130070489660065,0.0
2475,-0.9248358950290506,0.0
2476,-0.9951489693326628,0.0
2477,-1.0441183710707247,0.0
2478,-0.8755899278075298,0.0
2479,-0.8539407326479805,0.0
2480,-0.6225304017322568,0.0
2481,3.047042158047627,0.0
2482,5.726668904623604,0.0
2483,-1.8320102453911673,0.0
2484,-2.5885585078113436,0.0
2485,0.5517266156964473,0.0
2486,-1.758402968568924,0.0
2487,-0.6926168432323794,0.0
2488,-0.8884440371900453,0.0
2489,-1.1068414572220717,0.0
2490,-0.9682706354749915,0.0
2491,-0.9347827995610681,0.0
2492,-0.8099740099236833,0.0
2493,-0.9416917208632323,0.0
2494,-0.9131227860104913,0.0
2495,-1.0590774460667483,0.0
2496,-0.9815358461067425,0.0
2497,-0.8128362716096799,0.0
2498,-0.8512489307490021,0.0
2499,-0.8899040226140105,0.0
2500,-0.6607688868395201,0.0
2501,3.020054644485376,0.0
2502,5.779450703223717,0.0
2503,-1.9627918752226412,0.0
2504,-2.6271945887173223,0.0
2505,0.5171639655978562,0.0
2506,-1.7562890535312872,0.0
2507,-0.7912495687427605,0.0
2508,-0.9937469881822779,0.0
2509,-1.0724021042940206,0.0
2510,-0.9669243907792864,0.0
2511,-1.0103815431955296,0.0
2512,-0.8903628261562516,0.0
2513,-0.9125908573245171,0.0
2514,-1.013794808750599,0.0
2515,-1.0448859701207764,0.0
2516,-0.9991487220715035,0.0
2517,-0.9288716912265971,0.0
2518,-0.9812715951287211,0.0
2519,-0.8392042103649523,0.0
2520,-0.5291104561758941,0.0
2521,2.977780703630126,0.0
2522,5.779002197742346,0.0
2523,-1.9404569763134951,0.0
2524,-2.509948854306825,0.0
2525,0.5332370667995805,0.0
2526,-1.6471708803467666,0.0
2527,-0.7460556538950684,0.0
2528,-0.919752605139016,0.0
2529,-0.9162547219558719,0.0
2530,-0.8379348081240804,0.0
2531,-1.1019155856873406,0.0
2532,-0.9221872231872527,0.0
2533,-1.0066962098564385,0.0
2534,-0.9598079117098861,0.0
2535,-1.0457195561566845,0.0
2536,-1.0142189881350907,0.0
2537,-0.964680265672019,0.0
2538,-1.0170194761243798,0.0
2539,-1.0139139039782388,0.0
2540,-0.5819994193095055,0.0
2541,3.089696782338827,0.0
2542,5.679646550852595,0.0
2543,-1.8106507090634985,0.0
2544,-2.427527639472763,0.0
2545,0.5875961011974365,0.0
2546,-1.5978888257460262,0.0
2547,-0.7677371814043183,0.0
2548,-0.8628556406314405,0.0
2549,-0.9749622463751034,0.0
2550,-0.745553572195671,0.0
2551,-0.9391495744433065,0.0
2552,-0.8550913262934011,0.0
2553,-0.860153880016538,0.0
2554,-0.8091915388543112,0.0
2555,-0.8910620105815539,0.0
2556,-0.9469599306963107,0.0
2557,-0.9495073244678204,0.0
2558,-0.9193922801535804,0.0
2559,-0.8303185496819918,0.0
2560,-0.47405620868975695,0.0
2561,2.9030069404227135,0.0
2562,5.678709313322006,0.0
2563,-1.8880498599248783,0.0
2564,-2.451585358390359,0.0
2565,0.6333124838901069,0.0
2566,-1.6072531488791277,0.0
2567,-0.6493657389216309,0.0
2568,-0.745290639739057,0.0
2569,-0.9359986333099812,0.0
2570,-0.9169115603427973,0.0
2571,-0.8691170976836636,0.0
2572,-0.8915527751367721,0.0
2573,-0.8564461537175334,0.0
2574,-0.7467278670416844,0.0
2575,-0.8384812846209786,0.0
2576,-0.8274010803046918,0.0
2577,-0.8144091287305708,0.0
2578,-0.9089057042740188,0.0
2579,-0.9157327737900942,0.0
2580,-0.5071195855467079,0.0
2581,3.024129054556876,0.0
2582,5.731700856991864,0.0
2583,-1.8136735506318789,0.0
2584,-2.3551675109876626,0.0
2585,0.5556051415288393,0.0
2586,-1.7304822330511818,0.0
2587,-0.625492102141736,0.0
2588,-0.9429329203156088,0.0
2589,-0.9068962294190732,0.0
2590,-0.9818239495126025,0.0
2591,-0.8357130094803933,0.0
2592,-0.8121096112165174,0.0
2593,-0.9123526143885102,0.0
2594,-0.9050266893242435,0.0
2595,-0.9173444799699112,0.0
2596,-0.9067225758641958,0.0
2597,-0.9248852043364062,0.0
2598,-0.935368658195243,0.0
2599,-0.8810782110808869,0.0
2600,-0.6725049028875112,0.0
2601,3.0539781955747936,0.0
2602,5.802223362890572,0.0
2603,-1.774752120020164,0.0
2604,-2.4093277177237766,0.0
2605,0.42201193542358806,0.0
2606,-1.701767502030303,0.0
2607,-0.7488579884112541,0.0
2608,-0.9827910114745988,0.0
2609,-0.8878478605418123,0.0
2610,-0.928535809101708,0.0
2611,-0.9589893802525649,0.0
2612,-0.8372923364052294,0.0
2613,-0.9393269522715381,0.0
2614,-0.9146314502828136,0.0
2615,-0.8361384354426877,0.0
2616,-1.030947491206142,0.0
2617,-0.9566583048928434,0.0
2618,-0.9532074450417178,0.0
2619,-0.8756177314165994,0.0
2620,-0.6050840489877297,0.0
2621,2.9591552483650108,0.0
2622,5.722098885970216,0.0
2623,-1.9421930729953902,0.0
2624,-2.3478015184309093,0.0
2625,0.5996597129356606,0.0
2626,-1.7716419500966336,0.0
2627,-0.6013971063225764,0.0
2628,-0.8325412961877959,0.0
2629,-0.8570276686258913,0.0
2630,-0.9424166164331161,0.0
2631,-0.9059345332575696,0.0
2632,-0.9247753371589073,0.0
2633,-0.8812592460427239,0.0
2634,-0.8625498059005892,0.0
2635,-0.9324057728472965,0.0
2636,-1.047912418696681,0.0
2637,-0.9616775384551305,0.0
2638,-0.9077546875639976,0.0
2639,-0.9649468047639562,0.0
2640,-0.578324719235932,0.0
2641,3.0421462848345504,0.0
2642,5.6505747083898346,0.0
2643,-2.004245914393013,0.0
2644,-2.5976315340966147,0.0
2645,0.5727579934317697,0.0
2646,-1.6603125766232303,0.0
2647,-0.6609998674071427,0.0
2648,-0.8828456958542338,0.0
2649,-0.9531002991555895,0.0
2650,-0.9233887778383446,0.0
2651,-0.843499156617227,0.0
2652,-0.8474477191189991,0.0
2653,-0.8745858305905694,0.0
2654,-0.9739669543296836,0.0
2655,-0.9144289913975585,0.0
2656,-1.0837460872736857,0.0
2657,-0.917944600108863,0.0
2658,-1.1172019062438223,0.0
2659,-0.9895297485579723,0.0
2660,-0.7271532884952356,0.0
2661,2.9301347775204034,0.0
2662,5.612711791845658,0.0
2663,-1.9615578574946961,0.0
2664,-2.4545208166713333,0.0
2665,0.42243948359708194,0.0
2666,-1.709382451100044,0.0
2667,-0.836994368418283,0.0
2668,-0.8779027001715884,0.0
2669,-1.0492895596775784,0.0
2670,-0.8965367683009613,0.0
2671,-0.816507358026783,0.0
2672,-0.8412307595709205,0.0
2673,-0.8350266006975458,0.0
2674,-0.8947718944601499,0.0
2675,-0.850713177242056,0.0
2676,-0.8853129810131796,0.0
2677,-0.8971465551826453,0.0
2678,-0.897480160126505,0.0
2679,-0.9815036151321637,0.0
2680,-0.5042361583737345,0.0
2681,3.268624699172367,0.0
2682,5.79876864874381,0.0
2683,-1.8773736195572523,0.0
2684,-2.401566369083632,0.0
2685,0.6866305441231856,0.0
2686,-1.6887368659537993,0.0
2687,-0.7020936247926837,0.0
2688,-0.8320453561608235,0.0
2689,-0.9872292616393307,0.0
2690,-0.9839050711895061,0.0
2691,-1.0027557075756126,0.0
2692,-0.9087249759979138,0.0
2693,-0.8767484468704976,0.0
2694,-0.8726548468249394,0.0
2695,-0.9068630102142612,0.0
2696,-0.8797337249381243,0.0
2697,-0.8132065214680761,0.0
2698,-0.7131506219749777,0.0
2699,-0.8868454486451335,0.0
2700,-0.5122224770954602,0.0
2701,3.2306823598469614,0.0
2702,5.821929971543312,0.0
2703,-1.7790853981510826,0.0
2704,-2.413388494274889,0.0
2705,0.5541286185122448,0.0
2706,-1.655684682729197,0.0
2707,-0.575821350011652,0.0
2708,-0.8717932433814061,0.0
2709,-0.8788477502976506,0.0
2710,-0.7734286891924157,0.0
2711,-0.7479993946951686,0.0
2712,-0.8723538144078612,0.0
2713,-0.8946684702956085,0.0
2714,-0.9045032266098648,0.0
2715,-0.8971089715158217,0.0
2716,-0.8610284421799504,0.0
2717,-0.8949968611354356,0.0
2718,-0.8210988980646774,0.0
2719,-0.8367866562307544,0.0
2720,-0.46544022839537136,0.0
2721,3.0786963660109263,0.0
2722,5.831437654260836,0.0
2723,-1.8203397331982916,0.0
2724,-2.377598314389658,0.0
2725,0.5217336643020167,0.0
2726,-1.6296149585374002,0.0
2727,-0.6387922678365592,0.0
2728,-0.8929554799407463,0.0
2729,-0.9581765583857225,0.0
2730,-0.7877422480698327,0.0
2731,-0.8555216781212452,0.0
2732,-0.8955830087560734,0.0
2733,-0.8159738192307532,0.0
2734,-0.8278677237208414,0.0
2735,-0.8869736988336401,0.0
2736,-0.8299983014526051,0.0
2737,-0.8026341939496858,0.0
2738,-0.8774577928568503,0.0
2739,-0.8193813244577517,0.0
2740,-0.443248572186173,0.0
2741,3.2149299434218612,0.0
2742,5.811696541156215,0.0
2743,-1.9190605437659256,0.0
2744,-2.352113172723331,0.0
2745,0.5449382500639426,0.0
2746,-1.5864809837977247,0.0
2747,-0.7165027152326049,0.0
2748,-0.9904730883420523,0.0
2749,-0.8867641802133224,0.0
2750,-0.9975099794511244,0.0
2751,-0.921707750241,0.0
2752,-0.9669135008646117,0.0
2753,-0.8860408369772489,0.0
2754,-0.7737172688060573,0.0
2755,-0.9305338789971129,0.0
2756,-0.8026168945102904,0.0
2757,-0.8001377118422313,0.0
2758,-0.831013561069834,0.0
2759,-0.9271177463567449,0.0
2760,-0.5165659448734153,0.0
2761,3.123576278489629,0.0
2762,5.7644688509437065,0.0
2763,-1.9261632334513132,0.0
2764,-2.263711445645831,0.0
2765,0.6304577340249687,0.0
2766,-1.6401077501547427,0.0
2767,-0.7239001443313037,0.0
2768,-0.9749961036074057,0.0
2769,-0.8887688556644351,0.0
2770,-0.7863710670751449,0.0
2771,-0.918836600582433,0.0
2772,-0.9459776598358417,0.0
2773,-0.8126815421097094,0.0
2774,-0.8891901284713791,0.0
2775,-0.8890242296282426,0.0
2776,-0.9005110308984189,0.0
2777,-0.8582380948189563,0.0
2778,-0.867976250630258,0.0
2779,-0.8321492432841534,0.0
2780,-0.44016067531525543,0.0
2781,3.144143527894361,0.0
2782,5.8036794887914525,0.0
2783,-1.8220050918404471,0.0
2784,-2.3413472403128806,0.0
2785,0.46900515627325756,0.0
2786,-1.7261805375226822,0.0
2787,-0.672621205194041,0.0
2788,-0.804672835004171,0.0
2789,-0.7576699943675632,0.0
2790,-0.8261921117248634,0.0
2791,-0.9029925754688327,0.0
2792,-0.8594937225010247,0.0
2793,-0.98353471219154,0.0
2794,-0.965555223457423,0.0
2795,-0.9305986769284043,0.0
2796,-0.938539954686555,0.0
2797,-0.9365616096668612,0.0
2798,-0.8430405747341881,0.0
2799,-0.8558826838113743,0.0
2800,-0.5674302854237916,0.0
2801,3.0365297823488513,0.0
2802,5.756034244216935,0.0
2803,-1.981180545598209,0.0
2804,-2.538823824933257,0.0
2805,0.6435110956783832,0.0
2806,-1.5820679059873806,0.0
2807,-0.7344374961717123,0.0
2808,-0.8188179221119404,0.0
2809,-0.812427158601256,0.0
2810,-0.900533456362205,0.0
2811,-0.8177724061447278,0.0
2812,-0.9842072334103623,0.0
2813,-1.0071314524365182,0.0
2814,-0.8571396311354672,0.0
2815,-0.9544631914755461,0.0
2816,-0.847725639381385,0.0
2817,-0.8048768485311695,0.0
2818,-0.8384603474315379,0.0
2819,-0.8492207089927203,0.0
2820,-0.387199824445654,0.0
2821,3.1315646200384015,0.0
2822,5.852280319765766,0.0
2823,-1.796416074945699,0.0
2824,-2.4237910424936313,0.0
2825,0.5374677281239331,0.0
2826,-1.6928534043100254,0.0
2827,-0.7879350472398184,0.0
2828,-0.8883574579692886,0.0
2829,-0.8636787421125082,0.0
2830,-0.8600595746927445,0.0
2831,-0.821636512044165,0.0
2832,-1.0005380463165927,0.0
2833,-0.8155534793368363,0.0
2834,-0.8643861544442718,0.0
2835,-0.9298980890636972,0.0
2836,-0.9585785410170007,0.0
2837,-0.8121153083364298,0.0
2838,-0.8950339210475627,0.0
2839,-0.8941943878414012,0.0
2840,-0.4600989132927769,0.0
2841,3.0177754527977303,0.0
2842,5.626411945635295,0.0
2843,-1.963148884836845,0.0
2844,-2.3287071816407625,0.0
2845,0.5316113433245504,0.0
2846,-1.7472636127262748,0.0
2847,-0.5607571436399467,0.0
2848,-1.023736173285589,0.0
2849,-0.8671069131887479,0.0
2850,-0.8678791337520466,0.0
2851,-0.9352457050616887,0.0
2852,-0.9518037763171704,0.0
2853,-1.062936711023217,0.0
2854,-0.9233344107617837,0.0
2855,-0.9772988235515131,0.0
2856,-1.0308379229728204,0.0
2857,-0.8362212215147339,0.0
2858,-0.9408142593340229,0.0
2859,-0.9215861378821697,0.0
2860,-0.5900236889076671,0.0
2861,3.094034935162052,0.0
2862,5.802574670547658,0.0
2863,-1.9664967214284528,0.0
2864,-2.385095225361287,0.0
2865,0.6683582080868661,0.0
2866,-1.6155171795674486,0.0
2867,-0.6484488183644835,0.0
2868,-0.8224872938932655,0.0
2869,-0.9195518040100605,0.0
2870,-0.8896739660078258,0.0
2871,-0.9242875939543245,0.0
2872,-0.818231095329585,0.0
2873,-0.7507821244320894,0.0
2874,-0.804201147114265,0.0
2875,-0.8564231201819007,0.0
2876,-0.8134952133220364,0.0
2877,-0.8935189437304253,0.0
2878,-0.8146436875624027,0.0
2879,-0.6695405990726289,0.0
2880,-0.3990071030316532,0.0
2881,3.116260184790293,0.0
2882,5.733209007859116,0.0
2883,-1.9188656990356578,0.0
2884,-2.3967290115570217,0.0
2885,0.5928849058840463,0.0
2886,-1.6405273860318619,0.0
2887,-0.665398868918479,0.0
2888,-0.7555727684226567,0.0
2889,-0.7790394629700931,0.0
2890,-0.9263439828908125,0.0
2891,-0.71769028168131,0.0
2892,-0.8951078680262033,0.0
2893,-0.8855439185054451,0.0
2894,-0.8476955086530723,0.0
2895,-0.8906561198392976,0.0
2896,-0.8429353120296581,0.0
2897,-0.775672327582032,0.0
2898,-0.8507251716301675,0.0
2899,-0.8283491635548579,0.0
2900,-0.5095532707291065,0.0
2901,3.189656507582977,0.0
2902,5.878035446266188,0.0
2903,-1.8123170680063323,0.0
2904,-2.2919203020763654,0.0
2905,0.7326706596290528,0.0
2906,-1.6214452107335966,0.0
2907,-0.6413837338659555,0.0
2908,-0.7650808961970582,0.0
2909,-0.920435251168008,0.0
2910,-0.9184844651811022,0.0
2911,-0.8022639230570099,0.0
2912,-0.7725411517908237,0.0
2913,-0.8133016670805923,0.0
2914,-0.8009850355030932,0.0
2915,-0.9544317380750861,0.0
2916,-0.9779517182285431,0.0
2917,-0.8037124003000095,0.0
2918,-0.8152571047830423,0.0
2919,-0.9187740013122563,0.0
2920,-0.47265284390896023,0.0
2921,3.059898481995629,0.0
2922,5.6832917334622834,0.0
2923,-1.808831127135512,0.0
2924,-2.311805896282861,0.0
2925,0.5807170299788922,0.0
2926,-1.5846007877944928,0.0
2927,-0.6157463211360654,0.0
2928,-0.7272592920950076,0.0
2929,-0.9574788085537936,0.0
2930,-0.9051781064113253,0.0
2931,-0.8092357370472422,0.0
2932,-0.8204635088424019,0.0
2933,-0.6842827090417477,0.0
2934,-0.7019070556452099,0.0
2935,-0.7773585340148761,0.0
2936,-0.7346105538953412,0.0
2937,-0.7775855557331508,0.0
2938,-0.7846228347395948,0.0
2939,-0.6617663167536212,0.0
2940,-0.4923862917437163,0.0
2941,3.258548541171981,0.0
2942,5.810076463540465,0.0
2943,-1.8955758449328557,0.0
2944,-2.2944954913972975,0.0
2945,0.6245711578928866,0.0
2946,-1.7780390235026111,0.0
2947,-0.6766645400027885,0.0
2948,-0.8541757195008722,0.0
2949,-0.854784104147094,0.0
2950,-0.8752938842258352,0.0
2951,-0.920772136908865,0.0
2952,-0.914978929811007,0.0
2953,-0.8237797827365865,0.0
2954,-0.8856896698945576,0.0
2955,-0.8354406676775379,0.0
2956,-0.78364483947177,0.0
2957,-0.7393590507457231,0.0
2958,-0.8104950699312027,0.0
2959,-0.9431832892863679,0.0
2960,-0.6408111556204749,0.0
2961,3.079153568227879,0.0
2962,5.735936630150478,0.0
2963,-1.8752806447119372,0.0
2964,-2.3776117421369163,0.0
2965,0.6621219634445377,0.0
2966,-1.5676639203060405,0.0
2967,-0.5778525628230401,0.0
2968,-0.8340057044923734,0.0
2969,-0.7957184346529793,0.0
2970,-0.7752791007370001,0.0
2971,-0.6903752046284903,0.0
2972,-0.8013003355060361,0.0
2973,-0.9094554448002925,0.0
2974,-0.6791485505512875,0.0
2975,-0.8508460306238573,0.0
2976,-0.8188563447960276,0.0
2977,-0.789071182004903,0.0
2978,-0.8424185621431998,0.0
2979,-0.810268206286445,0.0
2980,-0.3938778122500676,0.0
2981,3.0400052793449643,0.0
2982,5.737822588793286,0.0
2983,-1.7316085613044052,0.0
2984,-2.3286919463442874,0.0
2985,0.5231605533106035,0.0
2986,-1.5989845831123146,0.0
2987,-0.7087040005945173,0.0
2988,-0.847978892861716,0.0
2989,-0.8242955315796753,0.0
2990,-0.7291754745091524,0.0
2991,-0.8351463671980544,0.0
2992,-0.779106774716171,0.0
2993,-0.9454200719424268,0.0
2994,-0.80746630632539,0.0
2995,-0.8327812732923958,0.0
2996,-0.9070377010562893,0.0
2997,-0.7582748035092186,0.0
2998,-0.7617159672356643,0.0
2999,-0.780775186512902,0.0
3000,-0.4244573475532083,0.0
3001,3.2199153765831334,0.0
3002,5.652783337579673,0.0
3003,-1.922859256521887,0.0
3004,-2.381478667658647,0.0
3005,0.47264108908011715,0.0
3006,-1.77028295852723,0.0
3007,-0.7867845828450452,0.0
3008,-0.8660686014474812,0.0
3009,-0.8860317296875906,0.0
3010,-0.8528495952173594,0.0
3011,-0.9013849437358862,0.0
3012,-0.8302772035652874,0.0
3013,-0.8104901835525267,0.0
3014,-0.9556870817428339,0.0
3015,-0.8377403999742219,0.0
3016,-0.7196850942533833,0.0
3017,-0.6845840436150186,0.0
3018,-0.8922908903371541,0.0
3019,-0.9192113666088342,0.0
3020,-0.4709711765535139,0.0
3021,3.2975166220300416,0.0
3022,5.775886394000504,0.0
3023,-1.852853573657069,0.0
3024,-2.3339504424861897,0.0
3025,0.697274742790008,0.0
3026,-1.6644865664168584,0.0
3027,-0.6703466749290135,0.0
3028,-0.8559711264898863,0.0
3029,-0.8906273315843962,0.0
3030,-0.8523450789366062,0.0
3031,-0.8404918402571818,0.0
3032,-0.7817501052966424,0.0
3033,-0.7234090634076192,0.0
3034,-0.7243922583204954,0.0
3035,-0.8000480567792021,0.0
3036,-0.740528912694492,0.0
3037,-0.7330786328953406,0.0
3038,-0.6773215171718409,0.0
3039,-0.836722690299528,0.0
3040,-0.3680626561999031,0.0
3041,3.275457886668512,0.0
3042,5.941299370421925,0.0
3043,-1.8425174786646847,0.0
3044,-2.148670599323532,0.0
3045,0.6051657886975208,0.0
3046,-1.5259061421368556,0.0
3047,-0.5297399096241631,0.0
3048,-0.7933448876010576,0.0
3049,-0.848931863938776,0.0
3050,-0.7764681572463735,0.0
3051,-0.7836567758447875,0.0
3052,-0.8480860669182102,0.0
3053,-0.7469230010328235,0.0
3054,-0.9170755869146888,0.0
3055,-0.7783189860832805,0.0
3056,-0.693186599446745,0.0
3057,-0.8832183366097456,0.0
3058,-0.863991138504086,0.0
3059,-0.7855883093430187,0.0
3060,-0.3420682663223951,0.0
3061,3.4387655517619136,0.0
3062,5.735966047015267,0.0
3063,-1.9039158633862177,0.0
3064,-2.1582823186904014,0.0
3065,0.6640566244916868,0.0
3066,-1.5984897844586734,0.0
3067,-0.6058998049048177,0.0
3068,-0.7479289104904487,0.0
3069,-0.8777148881746912,0.0
3070,-0.9190600868553538,0.0
3071,-0.8248726602308863,0.0
3072,-0.8120728263724781,0.0
3073,-0.7486155555964139,0.0
3074,-0.8100176114395207,0.0
3075,-0.8768533609975113,0.0
3076,-0.8152758361140529,0.0
3077,-0.8664669177280346,0.0
3078,-0.7761252261631326,0.0
3079,-0.8838858031858471,0.0
3080,-0.4341675680285579,0.0
3081,3.2742791761362335,0.0
3082,5.762383499845181,0.0
3083,-1.7921815005986732,0.0
3084,-2.3168086296199504,0.0
3085,0.5251333923724897,0.0
3086,-1.4986724889837584,0.0
3087,-0.6248895151603219,0.0
3088,-0.9442019010761282,0.0
3089,-0.6977312977029761,0.0
3090,-0.7839772063786096,0.0
3091,-0.7953258100169974,0.0
3092,-0.6691759731497398,0.0
3093,-0.8428396835173129,0.0
3094,-0.6694070330582967,0.0
3095,-0.8625043129529707,0.0
3096,-0.7854968043820912,0.0
3097,-0.813415080837481,0.0
3098,-0.7932040242009357,0.0
3099,-0.6940632330217821,0.0
3100,-0.4183643887087468,0.0
3101,3.3487161733546205,0.0
3102,5.805201311175925,0.0
3103,-1.9456512568365654,0.0
3104,-2.0453163812573916,0.0
3105,0.7688251225716076,0.0
3106,-1.573546813819378,0.0
3107,-0.5519204001919609,0.0
3108,-0.8902682216121868,0.0
3109,-0.8355186442416156,0.0
3110,-0.6779966514233856,0.0
3111,-0.8767311080989231,0.0
3112,-0.8717399643486152,0.0
3113,-0.8488946250479035,0.0
3114,-0.9297970620596947,0.0
3115,-0.8982838326979744,0.0
3116,-0.8590515977227142,0.0
3117,-0.81170239646714,0.0
3118,-0.8607766199650619,0.0
3119,-0.7375683503351724,0.0
3120,-0.3562874521236019,0.0
3121,3.1768157035347597,0.0
3122,5.75139272734177,0.0
3123,-1.9327901613860963,0.0
3124,-2.087298276141275,0.0
3125,0.5450268207421499,0.0
3126,-1.5857636401798998,0.0
3127,-0.544359943841222,0.0
3128,-0.7268876378575548,0.0
3129,-0.7615596512368167,0.0
3130,-0.7742008673234921,0.0
3131,-0.7713156770877719,0.0
3132,-0.6766530617549924,0.0
3133,-0.8886307119298403,0.0
3134,-0.8036437221693062,0.0
3135,-0.8457047185240024,0.0
3136,-0.903525364744776,0.0
3137,-0.7282433409496427,0.0
3138,-0.6512203678805917,0.0
3139,-0.7523599074032549,0.0
3140,-0.4565582112769958,0.0
3141,3.3097463130500686,0.0
3142,5.774340264262129,0.0
3143,-1.8409776007630372,0.0
3144,-2.1276189265384966,0.0
3145,0.594616505935867,0.0
3146,-1.6994393740542253,0.0
3147,-0.5715192625305564,0.0
3148,-0.7346434579285898,0.0
3149,-0.6792859631488554,0.0
3150,-0.6474990433600265,0.0
3151,-0.7414098180917452,0.0
3152,-0.8287371857110989,0.0
3153,-0.9049383807661989,0.0
3154,-0.6183613154344774,0.0
3155,-0.7567040024100417,0.0
3156,-0.8247303515134441,0.0
3157,-0.6869890031294227,0.0
3158,-0.7163024307357021,0.0
3159,-0.7607969275984852,0.0
3160,-0.30167610545838935,0.0
3161,3.243169047050676,0.0
3162,5.93388290420595,0.0
3163,-1.9136117119690308,0.0
3164,-2.2686423286843795,0.0
3165,0.5760242181138631,0.0
3166,-1.699559216484969,0.0
3167,-0.6464615093948933,0.0
3168,-0.7982272900124686,0.0
3169,-0.8285986345263114,0.0
3170,-0.5910490849807226,0.0
3171,-0.6926832350021164,0.0
3172,-0.8123480563753467,0.0
3173,-0.697558767704744,0.0
3174,-0.750007060826345,0.0
3175,-0.7155946192919064,0.0
3176,-0.8887775459923706,0.0
3177,-0.6129532531362889,0.0
3178,-0.7857486055488373,0.0
3179,-0.771344337461578,0.0
3180,-0.38022615993292674,0.0
3181,3.368658141257087,0.0
3182,5.859125386652813,0.0
3183,-1.7753324994101032,0.0
3184,-2.1783292734244597,0.0
3185,0.5896226695454997,0.0
3186,-1.449481344238008,0.0
3187,-0.5867534718013747,0.0
3188,-0.9130191453620047,0.0
3189,-0.8749113709461945,0.0
3190,-0.7762977864230657,0.0
3191,-0.7382624486112221,0.0
3192,-0.7086436889018217,0.0
3193,-0.791379947330818,0.0
3194,-0.6201857815245182,0.0
3195,-0.8797242945224375,0.0
3196,-0.6677119766920486,0.0
3197,-0.7916556436347633,0.0
3198,-0.6857309479661364,0.0
3199,-0.6901203470643539,0.0
3200,-0.47632584124805194,0.0
3201,3.3798505066956492,0.0
3202,5.892872433074779,0.0
3203,-1.9433191544455544,0.0
3204,-2.2193010643764133,0.0
3205,0.647581801191883,0.0
3206,-1.474851144374619,0.0
3207,-0.47192696985451954,0.0
3208,-0.6783019089122652,0.0
3209,-0.658490297466134,0.0
3210,-0.6714521884031357,0.0
3211,-0.8447194136025091,0.0
3212,-0.7388032300739403,0.0
3213,-0.6805904050691143,0.0
3214,-0.7621286688828061,0.0
3215,-0.7848793584548474,0.0
3216,-0.7593849902968236,0.0
3217,-0.6770585307507405,0.0
3218,-0.6606518589853795,0.0
3219,-0.7178568005827299,0.0
3220,-0.2219516150248571,0.0
3221,3.4192631836481326,0.0
3222,5.847780667980641,0.0
3223,-1.840301704284537,0.0
3224,-2.0088588395827527,0.0
3225,0.6966583969811225,0.0
3226,-1.492316367254484,0.0
3227,-0.41251470695785963,0.0
3228,-0.8085118142324125,0.0
3229,-0.5862864117009874,0.0
3230,-0.6353034969511772,0.0
3231,-0.7802685917903328,0.0
3232,-0.7059454706984541,0.0
3233,-0.7334713311525619,0.0
3234,-0.7477399221363089,0.0
3235,-0.7015874086588189,0.0
3236,-0.713797100447277,0.0
3237,-0.7515782472480711,0.0
3238,-0.7037436278494109,0.0
3239,-0.7695759065953929,0.0
3240,-0.43036653813999776,0.0
3241,3.2766008017924,0.0
3242,5.9571756569953935,0.0
3243,-1.7731683993336362,0.0
3244,-2.2793750663452643,0.0
3245,0.6812973810674638,0.0
3246,-1.5270807583973978,0.0
3247,-0.48889457902496425,0.0
3248,-0.8417075140656546,0.0
3249,-0.8525645963072646,0.0
3250,-0.7305703236049135,0.0
3251,-0.8115161219971877,0.0
3252,-0.6854828789455161,0.0
3253,-0.6810324553848233,0.0
3254,-0.7006920479775571,0.0
3255,-0.8785515892735078,0.0
3256,-0.6642802878102777,0.0
3257,-0.7220340252012054,0.0
3258,-0.6818097562502521,0.0
3259,-0.9511589592902956,0.0
3260,-0.3535498642073567,0.0
3261,3.33284207511892,0.0
3262,5.833453326636906,0.0
3263,-1.8337226398443092,0.0
3264,-2.107169983818249,0.0
3265,0.6967430694438242,0.0
3266,-1.4090768170731258,0.0
3267,-0.6447993044187031,0.0
3268,-0.7902040243143522,0.0
3269,-0.92205917145934,0.0
3270,-0.6092716026245163,0.0
3271,-0.7373967923491689,0.0
3272,-0.7536359259067401,0.0
3273,-0.6374550071925321,0.0
3274,-0.6400995907221096,0.0
3275,-0.6784602535700021,0.0
3276,-0.8605835050590676,0.0
3277,-0.7197883114343274,0.0
3278,-0.6169812937833598,0.0
3279,-0.7009713067720524,0.0
3280,-0.22877485839990813,0.0
3281,3.4935830478820464,0.0
3282,5.9229443255449254,0.0
3283,-1.8456869147244943,0.0
3284,-1.9952846328153355,0.0
3285,0.8365117417991765,0.0
3286,-1.537925710863396,0.0
3287,-0.5411914471102,0.0
3288,-0.6608791146438419,0.0
3289,-0.6778053498215318,0.0
3290,-0.7827630170770158,0.0
3291,-0.6934839454560563,0.0
3292,-0.8002830154670022,0.0
3293,-0.6598886995786536,0.0
3294,-0.739261439263537,0.0
3295,-0.717494523724186,0.0
3296,-0.711194960356912,0.0
3297,-0.6852181248406699,0.0
3298,-0.6745797945934479,0.0
3299,-0.718397528955983,0.0
3300,-0.21837029639315336,0.0
3301,3.371875588721924,0.0
3302,5.927655659050504,0.0
3303,-1.7287267240542077,0.0
3304,-2.097003593391392,0.0
3305,0.6711599679844,0.0
3306,-1.5060057056082763,0.0
3307,-0.43550811375220433,0.0
3308,-0.6443454421729318,0.0
3309,-0.6531701986569932,0.0
3310,-0.5600422285633679,0.0
3311,-0.6159149592987706,0.0
3312,-0.7576687935586718,0.0
3313,-0.5425984914702661,0.0
3314,-0.622182005618288,0.0
3315,-0.6668353451557341,0.0
3316,-0.7212371882994252,0.0
3317,-0.4636223371830877,0.0
3318,-0.6872924349449648,0.0
3319,-0.6130621493919609,0.0
3320,-0.19117684324076678,0.0
3321,3.493140391277273,0.0
3322,6.108951006718834,0.0
3323,-1.6926263565049522,0.0
3324,-2.126077260425727,0.0
3325,0.7159841384352448,0.0
3326,-1.5081354582670827,0.0
3327,-0.5135159439075578,0.0
3328,-0.7413548922060331,0.0
3329,-0.723849887512221,0.0
3330,-0.6848077488307653,0.0
3331,-0.6188859415103655,0.0
3332,-0.5462436970221618,0.0
3333,-0.6484167404776437,0.0
3334,-0.7891000903489409,0.0
3335,-0.6741234678883394,0.0
3336,-0.6434176922338959,0.0
3337,-0.6974051061137659,0.0
3338,-0.7635435720452018,0.0
3339,-0.6218278237099935,0.0
3340,-0.283256079760986,0.0
3341,3.3840563448173735,0.0
3342,5.699840939260572,0.0
3343,-1.9734139982596264,0.0
3344,-2.2245773644955955,0.0
3345,0.7670019943903355,0.0
3346,-1.419849073419797,0.0
3347,-0.3780328243007014,0.0
3348,-0.5290119063246013,0.0
3349,-0.7672857126833299,0.0
3350,-0.6638821299339096,0.0
3351,-0.6814164942182962,0.0
3352,-0.7025094482156329,0.0
3353,-0.6066985963274303,0.0
3354,-0.5700151656172341,0.0
3355,-0.6778288160305771,0.0
3356,-0.6506287545994959,0.0
3357,-0.8025038781668292,0.0
3358,-0.7191369586836903,0.0
3359,-0.5866247229138558,0.0
3360,-0.2807013748629417,0.0
3361,3.4792089783668443,0.0
3362,5.875258207709707,0.0
3363,-1.7089818763359625,0.0
3364,-2.0601843616420767,0.0
3365,0.8262367815643965,0.0
3366,-1.4873183011475772,0.0
3367,-0.38923748265332514,0.0
3368,-0.7657711078445414,0.0
3369,-0.6489241149048459,0.0
3370,-0.547862813173451,0.0
3371,-0.7638708543463951,0.0
3372,-0.7095476381593651,0.0
3373,-0.6260457423200754,0.0
3374,-0.6410221595842023,0.0
3375,-0.7204246186712906,0.0
3376,-0.6580809375690391,0.0
3377,-0.5779017395916418,0.0
3378,-0.6491123870062158,0.0
3379,-0.5486279412767315,0.0
3380,-0.14425467297250555,0.0
3381,3.4681387283708913,0.0
3382,5.77714445501953,0.0
3383,-1.8419604456399545,0.0
3384,-2.02789166659187,0.0
3385,0.7441332545703857,0.0
3386,-1.4938565806842514,0.0
3387,-0.36068628983795836,0.0
3388,-0.7950424348652421,0.0
3389,-0.5987919461771913,0.0
3390,-0.6062922491840372,0.0
3391,-0.5640295098005507,0.0
3392,-0.6675115715015565,0.0
3393,-0.6402714003517549,0.0
3394,-0.5418260825345351,0.0
3395,-0.5554038334390519,0.0
3396,-0.7224692532257845,0.0
3397,-0.6203347340766036,0.0
3398,-0.6081391883873295,0.0
3399,-0.6318708638532367,0.0
3400,-0.2817360091910049,0.0
3401,3.500878478923836,0.0
3402,5.906511033146756,0.0
3403,-1.7534393453996753,0.0
3404,-1.9632517076405398,0.0
3405,0.7964695897107553,0.0
3406,-1.3674149843525705,0.0
3407,-0.45703820376648724,0.0
3408,-0.5767560426233168,0.0
3409,-0.5766461110885003,0.0
3410,-0.7256528142509996,0.0
3411,-0.6550574730197418,0.0
3412,-0.5955739722584502,0.0
3413,-0.6341684233329768,0.0
3414,-0.6623099532946092,0.0
3415,-0.6421981846144712,0.0
3416,-0.6029886211226593,0.0
3417,-0.5996841470777381,0.0
3418,-0.5860568779846262,0.0
3419,-0.5676082316260039,0.0
3420,-0.2004541050362283,0.0
3421,3.542221761361625,0.0
3422,5.873168753452432,0.0
3423,-1.7768439019184172,0.0
3424,-1.9457356452612218,0.0
3425,0.7683252663261024,0.0
3426,-1.417323419661968,0.0
3427,-0.45624222378877866,0.0
3428,-0.7301685730200053,0.0
3429,-0.6694027340511238,0.0
3430,-0.6538187603077034,0.0
3431,-0.5741669856260366,0.0
3432,-0.7036003516259183,0.0
3433,-0.6871125985280996,0.0
3434,-0.5765712520387818,0.0
3435,-0.6894121561199285,0.0
3436,-0.678637334600914,0.0
3437,-0.7536844756666331,0.0
3438,-0.6123622259144127,0.0
3439,-0.6427698666441256,0.0
3440,-0.2658015371507804,0.0
3441,3.4398501353575974,0.0
3442,5.894863716463457,0.0
3443,-1.7466761770664752,0.0
3444,-1.9759754191904118,0.0
3445,0.8641202357278377,0.0
3446,-1.3028858164501935,0.0
3447,-0.29522593037724015,0.0
3448,-0.6290564008066444,0.0
3449,-0.6270199644001287,0.0
3450,-0.6038107797633708,0.0
3451,-0.5938805817162419,0.0
3452,-0.482559475593965,0.0
3453,-0.6544279006663936,0.0
3454,-0.651074020257053,0.0
3455,-0.4047160548524487,0.0
3456,-0.6333642338057597,0.0
3457,-0.6710757065468176,0.0
3458,-0.6372755324925936,0.0
3459,-0.6594076037293958,0.0
3460,-0.14587715310547938,0.0
3461,3.5617148139366166,0.0
3462,5.982150451290087,0.0
3463,-1.8078290527503138,0.0
3464,-2.0017516463761007,0.0
3465,0.84524146813658,0.0
3466,-1.4807351531727502,0.0
3467,-0.43247290005615796,0.0
3468,-0.6977002909174617,0.0
3469,-0.5276310448763312,0.0
3470,-0.6336864994510936,0.0
3471,-0.6204502403149342,0.0
3472,-0.6243580160402107,0.0
3473,-0.7114044406578387,0.0
3474,-0.5436151288799599,0.0
3475,-0.6309729761359162,0.0
3476,-0.5770735044463807,0.0
3477,-0.5785179239113554,0.0
3478,-0.6784292848698977,0.0
3479,-0.6463486606182526,0.0
3480,-0.27292732526762237,0.0
3481,3.4597035613257674,0.0
3482,5.934670901032773,0.0
3483,-1.7562278394068669,0.0
3484,-1.931042056067882,0.0
3485,0.7301073132484625,0.0
3486,-1.3085533331552721,0.0
3487,-0.34695495879183436,0.0
3488,-0.6766769710588388,0.0
3489,-0.6791250159809955,0.0
3490,-0.5883924946910423,0.0
3491,-0.5308536213751901,0.0
3492,-0.6555318502728498,0.0
3493,-0.5941448232278853,0.0
3494,-0.6300358721668866,0.0
3495,-0.5732028010982368,0.0
3496,-0.59642315361789,0.0
3497,-0.6312648685901153,0.0
3498,-0.7402790908498124,0.0
3499,-0.5716698424741371,0.0
3500,-0.12467706608269896,0.0
3501,3.6547113657303725,0.0
3502,5.995269530561188,0.0
3503,-1.7711298774844357,0.0
3504,-1.8855107489973362,0.0
3505,0.8012939521217215,0.0
3506,-1.512531584793197,0.0
3507,-0.2951683659503833,0.0
3508,-0.6007853545051651,0.0
3509,-0.6677609883423536,0.0
3510,-0.5107069983322938,0.0
3511,-0.5283294148630063,0.0
3512,-0.6338197920111589,0.0
3513,-0.744742463536049,0.0
3514,-0.49313523939631165,0.0
3515,-0.6051931819057552,0.0
3516,-0.5763756354640965,0.0
3517,-0.629024945944307,0.0
3518,-0.40536776069963215,0.0
3519,-0.5149090576100331,0.0
3520,-0.16790903445405786,0.0
3521,3.552591884201591,0.0
3522,5.977061005569252,0.0
3523,-1.722265752553632,0.0
3524,-2.0232689454589075,0.0
3525,0.7571651941994363,0.0
3526,-1.4000349287105505,0.0
3527,-0.4540132988194818,0.0
3528,-0.5871100573880003,0.0
3529,-0.6883525365274431,0.0
3530,-0.5339451748711154,0.0
3531,-0.6574337864912335,0.0
3532,-0.5969824236101278,0.0
3533,-0.6719905630123115,0.0
3534,-0.5757478387474617,0.0
3535,-0.6013126557082402,0.0
3536,-0.6752396014439925,0.0
3537,-0.5154111581271672,0.0
3538,-0.504237079213101,0.0
3539,-0.6665783590792037,0.0
3540,-0.21865302404780557,0.0
3541,3.4533029884444795,0.0
3542,6.0931882536498385,0.0
3543,-1.8182436859388929,0.0
3544,-1.947802946134022,0.0
3545,0.8733756774410909,0.0
3546,-1.303588460066378,0.0
3547,-0.3468939010377042,0.0
3548,-0.593696311898049,0.0
3549,-0.6021635260673315,0.0
3550,-0.6462646105868475,0.0
3551,-0.6828401457728612,0.0
3552,-0.6022271959051013,0.0
3553,-0.5602946808329106,0.0
3554,-0.6080268001151696,0.0
3555,-0.6613142828389311,0.0
3556,-0.483745788128135,0.0
3557,-0.7151467693775336,0.0
3558,-0.5137665872089993,0.0
3559,-0.5676528538843764,0.0
3560,-0.15791660913025501,0.0
3561,3.5254638557634803,0.0
3562,5.970677410449165,0.0
3563,-1.672849999861489,0.0
3564,-1.9161901213423453,0.0
3565,0.930847027509061,0.0
3566,-1.360881322434488,0.0
3567,-0.26077582877431515,0.0
3568,-0.585892085522395,0.0
3569,-0.607582834637131,0.0
3570,-0.5286973333747911,0.0
3571,-0.7050552194163882,0.0
3572,-0.7052324361023152,0.0
3573,-0.5911955395220581,0.0
3574,-0.5484354709623326,0.0
3575,-0.6455697197234626,0.0
3576,-0.5480412155017297,0.0
3577,-0.5265126946511492,0.0
3578,-0.6033495831794498,0.0
3579,-0.6532796574974111,0.0
3580,-0.13947647185505863,0.0
3581,3.5565658036929753,0.0
3582,5.957486010628013,0.0
3583,-1.811293966931939,0.0
3584,-1.9415805253323435,0.0
3585,0.837522812194492,0.0
3586,-1.3203547409977852,0.0
3587,-0.323737302751888,0.0
3588,-0.657780921820479,0.0
3589,-0.5842863913031928,0.0
3590,-0.5244995197055997,0.0
3591,-0.6194641022224519,0.0
3592,-0.7639152606068682,0.0
3593,-0.6166027099760043,0.0
3594,-0.6587195284763605,0.0
3595,-0.5652583579144307,0.0
3596,-0.5969499308383194,0.0
3597,-0.6991121989349044,0.0
3598,-0.707347196073115,0.0
3599,-0.6379607689290016,0.0
3600,-0.15763987755709913,0.0
3601,3.513670807193677,0.0
3602,5.897772246965592,0.0
3603,-1.8518534427276934,0.0
3604,-1.9713357393063635,0.0
3605,0.7593714006568014,0.0
3606,-1.39805661879989,0.0
3607,-0.33059208302631526,0.0
3608,-0.6497524616426302,0.0
3609,-0.6309302047294659,0.0
3610,-0.5956414739193788,0.0
3611,-0.5468237654944058,0.0
3612,-0.7069216031672395,0.0
3613,-0.5580895946367572,0.0
3614,-0.5854307108436222,0.0
3615,-0.5095020091058811,0.0
3616,-0.6877239933378695,0.0
3617,-0.5940261690295776,0.0
3618,-0.6794257707971142,0.0
3619,-0.6551498697357565,0.0
3620,-0.23613393235788493,0.0
3621,3.5513392990069987,0.0
3622,5.8993781033120145,0.0
3623,-1.7767412558820581,0.0
3624,-1.9046618250119571,0.0
3625,0.7539913759008925,0.0
3626,-1.3722123537457702,0.0
3627,-0.4270699990973589,0.0
3628,-0.6590750287837919,0.0
3629,-0.4886932080860986,0.0
3630,-0.6389631912495292,0.0
3631,-0.6545167223454479,0.0
3632,-0.5463874834138874,0.0
3633,-0.5581831060512227,0.0
3634,-0.6593036724629682,0.0
3635,-0.7537038314453713,0.0
3636,-0.43997129590582895,0.0
3637,-0.5624044913984558,0.0
3638,-0.4916942157749908,0.0
3639,-0.7035898389367492,0.0
3640,-0.2641847908601211,0.0
3641,3.5794633767810264,0.0
3642,5.972402822464531,0.0
3643,-1.9738873041859353,0.0
3644,-1.9621564975516486,0.0
3645,0.8506944100544578,0.0
3646,-1.4761253127119285,0.0
3647,-0.4088580257792423,0.0
3648,-0.6923829510949849,0.0
3649,-0.6118966273209598,0.0
3650,-0.6304685310889323,0.0
3651,-0.651525924552316,0.0
3652,-0.5939413926015279,0.0
3653,-0.6166161123576427,0.0
3654,-0.6364662675359536,0.0
3655,-0.7390433924733668,0.0
3656,-0.7178644632844359,0.0
3657,-0.6924625979985997,0.0
3658,-0.550632625142787,0.0
3659,-0.5799594201740012,0.0
3660,-0.13696119429647352,0.0
3661,3.5358864963898924,0.0
3662,5.897955703616662,0.0
3663,-1.723356986323593,0.0
3664,-2.0583343410103767,0.0
3665,0.8539541429698707,0.0
3666,-1.3426240948273758,0.0
3667,-0.42484065666950027,0.0
3668,-0.5993603933626539,0.0
3669,-0.6358783071538835,0.0
3670,-0.5862679134948413,0.0
3671,-0.6658626755714049,0.0
3672,-0.5904969838418973,0.0
3673,-0.5364755931288664,0.0
3674,-0.4667066507086295,0.0
3675,-0.6072395894510116,0.0
3676,-0.5968547292919939,0.0
3677,-0.6421113985885337,0.0
3678,-0.6013865790474495,0.0
3679,-0.536832969998364,0.0
3680,-0.24315088322240164,0.0
3681,3.5099891261494447,0.0
3682,5.858809289651153,0.0
3683,-1.7741745345234323,0.0
3684,-1.796930856267406,0.0
3685,0.8397392666019683,0.0
3686,-1.327703759141373,0.0
3687,-0.3391803620114346,0.0
3688,-0.6294811550781484,0.0
3689,-0.5967308402444296,0.0
3690,-0.48296446478179106,0.0
3691,-0.6659506697784374,0.0
3692,-0.6895331958440123,0.0
3693,-0.479365580665306,0.0
3694,-0.6722879762207584,0.0
3695,-0.5403564446707655,0.0
3696,-0.6536340157109705,0.0
3697,-0.5378398530508938,0.0
3698,-0.6970395449529456,0.0
3699,-0.6107264291892388,0.0
3700,-0.08982749623718211,0.0
3701,3.5812698018743583,0.0
3702,6.011585220026116,0.0
3703,-1.7441712731943029,0.0
3704,-1.8588343765413045,0.0
3705,1.018654315267965,0.0
3706,-1.1550791755887457,0.0
3707,-0.2657547581393231,0.0
3708,-0.4783514420264476,0.0
3709,-0.6284821393285728,0.0
3710,-0.5701049428731245,0.0
3711,-0.6446464068999981,0.0
3712,-0.6526209629130069,0.0
3713,-0.521913431966052,0.0
3714,-0.5519523595861912,0.0
3715,-0.5368699329399637,0.0
3716,-0.5105022024525534,0.0
3717,-0.5887541055043742,0.0
3718,-0.5318457453090268,0.0
3719,-0.6121073149442251,0.0
3720,-0.21896473626384055,0.0
3721,3.57165776596212,0.0
3722,5.967807069272331,0.0
3723,-1.7723966136200022,0.0
3724,-1.89645506377316,0.0
3725,0.742747530612234,0.0
3726,-1.2973212260896116,0.0
3727,-0.28851409836246067,0.0
3728,-0.40993734951347416,0.0
3729,-0.5129819326386681,0.0
3730,-0.5811519571335773,0.0
3731,-0.4223883219553975,0.0
3732,-0.4696483313982104,0.0
3733,-0.5070850711550062,0.0
3734,-0.46225090435212585,0.0
3735,-0.6016332880596345,0.0
3736,-0.48863084423863107,0.0
3737,-0.5043218281233185,0.0
3738,-0.49782226303296756,0.0
3739,-0.5181303743733491,0.0
3740,-0.20462826000588935,0.0
3741,3.5305832279620004,0.0
3742,6.195984090555306,0.0
3743,-1.8454906724233435,0.0
3744,-1.834526607092765,0.0
3745,0.854756688907782,0.0
3746,-1.2033018741349617,0.0
3747,-0.2909382004857337,0.0
3748,-0.6009607296920645,0.0
3749,-0.5140211374375778,0.0
3750,-0.5461070782083546,0.0
3751,-0.6599606233988694,0.0
3752,-0.6245590560797277,0.0
3753,-0.5409456235404246,0.0
3754,-0.6063421948166209,0.0
3755,-0.6031535645604711,0.0
3756,-0.6677382422531019,0.0
3757,-0.46945181933683783,0.0
3758,-0.6382695722849295,0.0
3759,-0.5467428671845561,0.0
3760,-0.1143296802119999,0.0
3761,3.6405316608797063,0.0
3762,6.064389262550366,0.0
3763,-1.6494719571469192,0.0
3764,-1.8629599588401091,0.0
3765,0.9539349944878138,0.0
3766,-1.2686345033914186,0.0
3767,-0.16104475233106247,0.0
3768,-0.4032111715260815,0.0
3769,-0.5457027848788367,0.0
3770,-0.40703510326739656,0.0
3771,-0.4969783676881789,0.0
3772,-0.4090030380154003,0.0
3773,-0.3302403623526626,0.0
3774,-0.4332383005930335,0.0
3775,-0.281597744109113,0.0
3776,-0.30475619390748376,0.0
3777,-0.4260958334728402,0.0
3778,-0.48412247126481844,0.0
3779,-0.462840717718763,0.0
3780,0.051652943543479934,0.0
3781,3.8961741273563857,0.0
3782,6.223051173772278,0.0
3783,-1.5517337544878165,0.0
3784,-1.7438446911327279,0.0
3785,0.7655891631291714,0.0
3786,-1.2768729113550863,0.0
3787,-0.13074079090174567,0.0
3788,-0.4811213308321417,0.0
3789,-0.4203861942077283,0.0
3790,-0.48243750870155566,0.0
3791,-0.6229931269260411,0.0
3792,-0.32114227128218076,0.0
3793,-0.3580300325534261,0.0
3794,-0.46640785994440226,0.0
3795,-0.3510770421119724,0.0
3796,-0.4101211766351854,0.0
3797,-0.4773291291245264,0.0
3798,-0.4952657064122791,0.0
3799,-0.4289244765568121,0.0
3800,-0.005950707157263757,0.0
3801,3.7193701202513574,0.0
3802,6.084282863263721,0.0
3803,-1.7723222677513957,0.0
3804,-1.5971058175724084,0.0
3805,0.939657288089272,0.0
3806,-1.1758471894768796,0.0
3807,-0.24577241179798548,0.0
3808,-0.31427984056045183,0.0
3809,-0.5039702313554046,0.0
3810,-0.1901099495073562,0.0
3811,-0.4399528031274645,0.0
3812,-0.510786138099347,0.0
3813,-0.36847296084368103,0.0
3814,-0.4089693838653064,0.0
3815,-0.2483674880094232,0.0
3816,-0.293255839971564,0.0
3817,-0.4773593106330235,0.0
3818,-0.298114881283657,0.0
3819,-0.47335570132257787,0.0
3820,0.07280869648096178,0.0
3821,3.920488876886239,0.0
3822,6.03147747525767,0.0
3823,-1.6706796120972136,0.0
3824,-1.6739021182724982,0.0
3825,0.849531534594597,0.0
3826,-1.151493216408153,0.0
3827,-0.1541327219795764,0.0
3828,-0.3691055835372826,0.0
3829,-0.44768636105891557,0.0
3830,-0.4037385742139941,0.0
3831,-0.3878110737874919,0.0
3832,-0.5076612755393087,0.0
3833,-0.40248868046743475,0.0
3834,-0.39599275071765033,0.0
3835,-0.40046723391314476,0.0
3836,-0.347552442603828,0.0
3837,-0.40759918489548413,0.0
3838,-0.47963356111671784,0.0
3839,-0.4093736758734917,0.0
3840,0.07540189140007325,0.0
3841,3.773942904867235,0.0
3842,5.999955560120426,0.0
3843,-1.609800511389253,0.0
3844,-1.6637740956489446,0.0
3845,1.0481749881221054,0.0
3846,-1.2524770840245145,0.0
3847,-0.25101242607968866,0.0
3848,-0.3919324443416101,0.0
3849,-0.4824820989975565,0.0
3850,-0.3953227955339454,0.0
3851,-0.5150721616293021,0.0
3852,-0.33999479227172313,0.0
3853,-0.38610225751601424,0.0
3854,-0.32947682182974836,0.0
3855,-0.44214974108685906,0.0
3856,-0.3478968288337173,0.0
3857,-0.5337160536055977,0.0
3858,-0.28011749788513524,0.0
3859,-0.3330772693864033,0.0
3860,0.08997368429418529,0.0
3861,3.84520479291588,0.0
3862,6.198422287331356,0.0
3863,-1.6350698927972809,0.0
3864,-1.6579467489431696,0.0
3865,0.9762430168747951,0.0
3866,-1.0924374819733722,0.0
3867,-0.06477798794285666,0.0
3868,-0.4695302244514864,0.0
3869,-0.4545384837977521,0.0
3870,-0.3408364785227048,0.0
3871,-0.41663791426902996,0.0
3872,-0.3851898161596772,0.0
3873,-0.351588213602871,0.0
3874,-0.37419979865024056,0.0
3875,-0.2673821147920649,0.0
3876,-0.23455391804227366,0.0
3877,-0.28522086020680265,0.0
3878,-0.23602614298223482,0.0
3879,-0.47046217899467957,0.0
3880,0.08206327762514326,0.0
3881,3.850889518883228,0.0
3882,6.158699620381534,0.0
3883,-1.6535123059734316,0.0
3884,-1.6414989058673843,0.0
3885,0.9540602395242859,0.0
3886,-1.2345185128756944,0.0
3887,-0.08512256776848626,0.0
3888,-0.36768155286185517,0.0
3889,-0.4121585170975747,0.0
3890,-0.3371945073538365,0.0
3891,-0.3162560982479715,0.0
3892,-0.42732896872852966,0.0
3893,-0.33222843078330777,0.0
3894,-0.34557722606187424,0.0
3895,-0.48898432444103274,0.0
3896,-0.4069189961398526,0.0
3897,-0.3709173798208065,0.0
3898,-0.33372086106370075,0.0
3899,-0.3304483074103615,0.0
3900,0.17403497475897567,0.0
3901,3.875042736890373,0.0
3902,6.1537217800965145,0.0
3903,-1.744210425840015,0.0
3904,-1.731942621759977,0.0
3905,1.0857972426606135,0.0
3906,-1.310472194875139,0.0
3907,-0.1823771786477953,0.0
3908,-0.3498784113351872,0.0
3909,-0.41904993550937575,0.0
3910,-0.3155522692447326,0.0
3911,-0.35177384547010154,0.0
3912,-0.3274331824483718,0.0
3913,-0.3343172684411603,0.0
3914,-0.3469861557772161,0.0
3915,-0.26305111774478884,0.0
3916,-0.3798529617427114,0.0
3917,-0.2717122100647098,0.0
3918,-0.43488504157613683,0.0
3919,-0.323912697957747,0.0
3920,0.17801496831554853,0.0
3921,3.9070881473651453,0.0
3922,6.073308307098611,0.0
3923,-1.6031035707181247,0.0
3924,-1.546749144477055,0.0
3925,0.9208890838138399,0.0
3926,-1.1305144124340505,0.0
3927,-0.02021485083231178,0.0
3928,-0.32949202991084026,0.0
3929,-0.41388687666854224,0.0
3930,-0.3615936854326409,0.0
3931,-0.40318003847857764,0.0
3932,-0.264490132521341,0.0
3933,-0.3406820674754536,0.0
3934,-0.37889221685945257,0.0
3935,-0.38532940517421277,0.0
3936,-0.33500808959330464,0.0
3937,-0.2292423710455015,0.0
3938,-0.3363475768030989,0.0
3939,-0.3853164176538231,0.0
3940,0.24269450110350593,0.0
3941,3.8339699801661533,0.0
3942,6.106383938056108,0.0
3943,-1.6797162070571072,0.0
3944,-1.5897571924714473,0.0
3945,0.8935299532176718,0.0
3946,-1.316993979591523,0.0
3947,-0.2110725457808203,0.0
3948,-0.3504572139938642,0.0
3949,-0.4327904251074888,0.0
3950,-0.2746094527492466,0.0
3951,-0.34430392379429753,0.0
3952,-0.3310136819375713,0.0
3953,-0.38397546226977264,0.0
3954,-0.30769798617291666,0.0
3955,-0.2965181232142513,0.0
3956,-0.4522020362119268,0.0
3957,-0.34624127446877195,0.0
3958,-0.2903748830262004,0.0
3959,-0.34091357522381655,0.0
3960,0.06772953618130678,0.0
3961,3.7870948061316896,0.0
3962,6.149202435837301,0.0
3963,-1.7262069314480493,0.0
3964,-1.7364015544141818,0.0
3965,1.0219650243388385,0.0
3966,-1.240733776618424,0.0
3967,-0.025147386551100714,0.0
3968,-0.4129427747816401,0.0
3969,-0.37647163468534595,0.0
3970,-0.2133836783219827,0.0
3971,-0.40553045728275106,0.0
3972,-0.37223213898826957,0.0
3973,-0.4023030599227335,0.0
3974,-0.1727631425018799,0.0
3975,-0.3461197280927216,0.0
3976,-0.35673722986686407,0.0
3977,-0.3802517140039493,0.0
3978,-0.38163249643574243,0.0
3979,-0.46440186633111435,0.0
3980,0.139364509722948,0.0
3981,3.7791554743427387,0.0
3982,6.1731712918708945,0.0
3983,-1.7459803851668234,0.0
3984,-1.5110521011490445,0.0
3985,1.0477530292794643,0.0
3986,-1.0164007874222798,0.0
3987,-0.15502250453614447,0.0
3988,-0.30073508444356295,0.0
3989,-0.34959869909213437,0.0
3990,-0.28619345330375556,0.0
3991,-0.34493064749087843,0.0
3992,-0.3629995492937766,0.0
3993,-0.45263321725126626,0.0
3994,-0.2783551119886233,0.0
3995,-0.2973009993417407,0.0
3996,-0.2753764213550595,0.0
3997,-0.3093521252826904,0.0
3998,-0.3843078003681062,0.0
3999,-0.225457499874653,0.0
4000,-0.032517992250065464,0.0
4001,3.9518358462744354,0.0
4002,6.281091598403219,0.0
4003,-1.7394425768474928,0.0
4004,-1.759405635102273,0.0
4005,1.0349253006685633,0.0
4006,-1.0859132068786366,0.0
4007,-0.12792853751839517,0.0
4008,-0.474235880338939,0.0
4009,-0.5259935292758278,0.0
4010,-0.3674772048565087,0.0
4011,-0.3827823425601726,0.0
4012,-0.4633842478929205,0.0
4013,-0.21560304264621893,0.0
4014,-0.3876299863201335,0.0
4015,-0.3522164820613572,0.0
4016,-0.3819308253476147,0.0
4017,-0.27359591071761447,0.0
4018,-0.3323476067678543,0.0
4019,-0.33750172731004324,0.0
4020,0.14862194488418518,0.0
4021,3.811464499215607,0.0
4022,6.251864038952482,0.0
4023,-1.6723361989424153,0.0
4024,-1.7160778162249808,0.0
4025,1.1204675858475055,0.0
4026,-1.1315902704687426,0.0
4027,-0.09713307775871732,0.0
4028,-0.47602481376720907,0.0
4029,-0.28403299304538343,0.0
4030,-0.2966517254999682,0.0
4031,-0.47520485734292517,0.0
4032,-0.28061446888679137,0.0
4033,-0.33076936381660854,0.0
4034,-0.3024488942634405,0.0
4035,-0.4484195004685463,0.0
4036,-0.30098450715964875,0.0
4037,-0.3439156455223207,0.0
4038,-0.3517344651531237,0.0
4039,-0.2360577394441428,0.0
4040,0.22229736369405428,0.0
4041,3.9903921370751334,0.0
4042,6.164705618526216,0.0
4043,-1.5215664995266711,0.0
4044,-1.6188414332408203,0.0
4045,0.9527049632803488,0.0
4046,-1.0520475398069613,0.0
4047,-0.045386243949045,0.0
4048,-0.24437402753456944,0.0
4049,-0.2637315022447715,0.0
4050,-0.27552704280084217,0.0
4051,-0.3237738255843605,0.0
4052,-0.35270608076825904,0.0
4053,-0.2778944047883129,0.0
4054,-0.334842159679238,0.0
4055,-0.34231961566581076,0.0
4056,-0.4109222090523367,0.0
4057,-0.24651430739638308,0.0
4058,-0.14830551235775494,0.0
4059,-0.3305281325405048,0.0
4060,0.125014242833278,0.0
4061,3.9122318436571395,0.0
4062,6.161321476215245,0.0
4063,-1.7519337505809809,0.0
4064,-1.535696396619601,0.0
4065,0.897456716523745,0.0
4066,-1.1163307961859013,0.0
4067,-0.12527367206718693,0.0
4068,-0.4510866032180715,0.0
4069,-0.3256698108901601,0.0
4070,-0.24830526615500623,0.0
4071,-0.29143483140125664,0.0
4072,-0.35532720598840084,0.0
4073,-0.3376349444984398,0.0
4074,-0.389292829833968,0.0
4075,-0.4003085717149537,0.0
4076,-0.34819049225739496,0.0
4077,-0.26231478230661454,0.0
4078,-0.434879427926176,0.0
4079,-0.2940883037376497,0.0
4080,0.19723210581407236,0.0
4081,3.918518843592948,0.0
4082,6.1654273676360996,0.0
4083,-1.6479397697475924,0.0
4084,-1.5538142056435367,0.0
4085,1.0137572065635145,0.0
4086,-1.0812397017955435,0.0
4087,-0.08239269703863217,0.0
4088,-0.4093245162139816,0.0
4089,-0.36588110397467016,0.0
4090,-0.314176238072113,0.0
4091,-0.404652888704788,0.0
4092,-0.2991918993449538,0.0
4093,-0.28527536718218394,0.0
4094,-0.3947003253499945,0.0
4095,-0.40306459486840596,0.0
4096,-0.26835999981831177,0.0
4097,-0.19741978119128328,0.0
4098,-0.3993213985403662,0.0
4099,-0.44184923921975144,0.0
4100,0.07630886679593746,0.0
4101,3.9512987435459004,0.0
4102,6.199473214468546,0.0
4103,-1.6757192163535684,0.0
4104,-1.5257990317239112,0.0
4105,1.0587862191443596,0.0
4106,-1.1857210370333937,0.0
4107,-0.16232147962941526,0.0
4108,-0.37570592397801633,0.0
4109,-0.41808410927734474,0.0
4110,-0.4029420427910552,0.0
4111,-0.33448608892991394,0.0
4112,-0.3053203821065415,0.0
4113,-0.25691194464209594,0.0
4114,-0.21868077600185365,0.0
4115,-0.26471447740240944,0.0
4116,-0.34975377295112353,0.0
4117,-0.3594844996706717,0.0
4118,-0.36696276187314564,0.0
4119,-0.3718264316195272,0.0
4120,-0.0063369137527745645,0.0
4121,3.848033501203282,0.0
4122,6.210148392378665,0.0
4123,-1.8123294527594833,0.0
4124,-1.7328189652390527,0.0
4125,0.9840868076985003,0.0
4126,-1.1834788174110553,0.0
4127,-0.1600625738441143,0.0
4128,-0.4459798579102408,0.0
4129,-0.4233746888070519,0.0
4130,-0.3302681711199441,0.0
4131,-0.30923485977522364,0.0
4132,-0.43522548390753135,0.0
4133,-0.38731470153611336,0.0
4134,-0.44169937056529884,0.0
4135,-0.30297641036499107,0.0
4136,-0.42075640245021645,0.0
4137,-0.3792531222765374,0.0
4138,-0.3406232826071359,0.0
4139,-0.33684433086128407,0.0
4140,0.11139535302780623,0.0
4141,3.8931351940894743,0.0
4142,6.279286436317705,0.0
4143,-1.7003965910800356,0.0
4144,-1.6223574026625154,0.0
4145,0.935848989913063,0.0
4146,-1.0717033900045374,0.0
4147,-0.031170925990721077,0.0
4148,-0.45944083828160387,0.0
4149,-0.37336446187992406,0.0
4150,-0.3954829240713081,0.0
4151,-0.3924411611234456,0.0
4152,-0.4887087341167015,0.0
4153,-0.26754570181160314,0.0
4154,-0.32305810131998103,0.0
4155,-0.40843302416076266,0.0
4156,-0.4023445337409521,0.0
4157,-0.33532693804370534,0.0
4158,-0.38333206086182403,0.0
4159,-0.2782916743652003,0.0
4160,0.06446906208062098,0.0
4161,3.9965965093863476,0.0
4162,6.192141810277101,0.0
4163,-1.7177838578520923,0.0
4164,-1.5951242519139155,0.0
4165,1.1142216746999392,0.0
4166,-1.148135812019524,0.0
4167,-0.02362117609369746,0.0
4168,-0.3014180741476307,0.0
4169,-0.26781199828905033,0.0
4170,-0.254731793021752,0.0
4171,-0.30606145336186175,0.0
4172,-0.34527451067573567,0.0
4173,-0.2835394517087216,0.0
4174,-0.41447166748900127,0.0
4175,-0.2862071501568372,0.0
4176,-0.38311455424590507,0.0
4177,-0.17146751747086858,0.0
4178,-0.42199164935170863,0.0
4179,-0.43390725270913766,0.0
4180,0.05703185017098661,0.0
4181,3.9087992778788,0.0
4182,6.071198103470908,0.0
4183,-1.7760332589146794,0.0
4184,-1.5376280468757237,0.0
4185,1.0195728486086348,0.0
4186,-1.2363628177548651,0.0
4187,-0.20578759652461664,0.0
4188,-0.38163104342201193,0.0
4189,-0.3684740444077797,0.0
4190,-0.40160282649355417,0.0
4191,-0.3908693044022353,0.0
4192,-0.4228507794682749,0.0
4193,-0.24153234451076702,0.0
4194,-0.4480038241252051,0.0
4195,-0.3618186631558454,0.0
4196,-0.42988842816750006,0.0
4197,-0.3663604390412643,0.0
4198,-0.2623726993054811,0.0
4199,-0.4274240960837716,0.0
4200,0.12030798743053583,0.0
4201,3.9549642788998836,0.0
4202,6.281522285745423,0.0
4203,-1.5874331455232338,0.0
4204,-1.536530722421129,0.0
4205,1.031669386256179,0.0
4206,-0.9704689456059259,0.0
4207,-0.08364274117915627,0.0
4208,-0.4621449189822703,0.0
4209,-0.3071621288559361,0.0
4210,-0.349171516979944,0.0
4211,-0.37887829753822155,0.0
4212,-0.3601129075634277,0.0
4213,-0.425289676571048,0.0
4214,-0.34690306294279,0.0
4215,-0.2905301604487779,0.0
4216,-0.37992392039129175,0.0
4217,-0.2574481812470508,0.0
4218,-0.39958688723927355,0.0
4219,-0.4442170618322521,0.0
4220,0.09770609207331965,0.0
4221,3.851180164493756,0.0
4222,6.111067378802161,0.0
4223,-1.7818054516590998,0.0
