timestamp,value-0,is_anomaly
0,-1.6639569034759005,0
1,1.5932388956054901,0
2,4.954527940237779,0
3,-2.0436557662123436,0
4,-3.8581345175007646,0
5,-0.47786146258134377,0
6,-2.62434597272282,0
7,-1.7832443617811862,0
8,-1.8265556943231132,0
9,-1.986381082157476,0
10,-2.020656075058358,0
11,-2.0668180466770267,0
12,-2.003994773158428,0
13,-1.952092393609879,0
14,-1.9218992970005713,0
15,-1.842178679467201,0
16,-2.047411029324348,0
17,-2.0159154225326295,0
18,-1.9529917764516855,0
19,-1.9965657685132716,0
20,-1.7156333550624239,0
21,1.4578867700869331,0
22,4.782875613264413,0
23,-2.0869569583571934,0
24,-3.8953492349851344,0
25,-0.3455392465704694,0
26,-2.7807041568370745,0
27,-1.8403821786462584,0
28,-1.8964903100907213,0
29,-2.0513608221760764,0
30,-2.0458912433633776,0
31,-1.957966611309459,0
32,-1.8868886780503513,0
33,-1.9886128338091695,0
34,-1.9852601160215764,0
35,-1.9522363839632961,0
36,-1.9666121969412962,0
37,-1.9066163100645508,0
38,-1.9897013099122347,0
39,-2.0176033686453536,0
40,-1.6545671881774522,0
41,1.5667066743570373,0
42,4.958057169518004,0
43,-2.2442590388262333,0
44,-3.8999686604868797,0
45,-0.4427299275179002,0
46,-2.549039346404243,0
47,-1.8819982108971613,0
48,-1.8461861754423083,0
49,-2.046583191272633,0
50,-1.8847567773257794,0
51,-1.7185657814010844,0
52,-1.8475567158726773,0
53,-1.9660021799471943,0
54,-1.8674895002487586,0
55,-1.8976275687950679,0
56,-2.037258908694875,0
57,-1.9769994400687836,0
58,-1.859345978904103,0
59,-1.985589897315017,0
60,-1.803356546873135,0
61,1.4527761310383385,0
62,4.938245109604882,0
63,-2.2687138938756664,0
64,-4.038665541784791,0
65,-0.4282000153668388,0
66,-2.6883190395656023,0
67,-1.9098883348411375,0
68,-1.9296472975353856,0
69,-2.0243509492311453,0
70,-2.000356226669807,0
71,-1.983671244182392,0
72,-2.011592255930472,0
73,-1.9930485155773114,0
74,-1.9952021681049201,0
75,-1.80315007538989,0
76,-2.007555989981315,0
77,-1.967660789133193,0
78,-2.080230911853006,0
79,-1.8954868034529668,0
80,-1.7629980910223413,0
81,1.3848139761975782,0
82,4.94270639949617,0
83,-2.2208858264458144,0
84,-3.9830320930559906,0
85,-0.4618092243308234,0
86,-2.6248647368028104,0
87,-1.6377965283198006,0
88,-2.027907970044301,0
89,-2.03021852452739,0
90,-2.057080889912318,0
91,-1.9407727489708237,0
92,-2.0283592636751973,0
93,-1.9639763994210369,0
94,-1.8786753413094683,0
95,-2.080426830364425,0
96,-2.0020810426664215,0
97,-2.0904653749287343,0
98,-1.9933324206069312,0
99,-1.9928949317030515,0
100,-1.7272509868664754,0
101,1.6036468575500127,0
102,4.852842401023822,0
103,-2.3171187002841815,0
104,-3.857909775787305,0
105,-0.468054280148408,0
106,-2.669694293538851,0
107,-1.8875970952838002,0
108,-2.042039166489572,0
109,-1.9870160361904459,0
110,-2.082027159194793,0
111,-2.0995713593587513,0
112,-1.9651647135074384,0
113,-1.9916035499045057,0
114,-1.9720632499136457,0
115,-1.92939001788136,0
116,-2.1276195152078423,0
117,-2.0166619297480284,0
118,-2.0031548792352174,0
119,-2.0432285321938664,0
120,-1.7482685384915766,0
121,1.565432300404552,0
122,4.8264921059089785,0
123,-2.301082695204767,0
124,-3.9011921138375447,0
125,-0.3959768710472824,0
126,-2.616390814144656,0
127,-1.8345028009019215,0
128,-1.9587135497237478,0
129,-1.8405857340207707,0
130,-1.942074681079678,0
131,-2.019973073977061,0
132,-1.8250837831776874,0
133,-1.9337476975291166,0
134,-1.853651440704967,0
135,-1.839548481879117,0
136,-1.830319168151303,0
137,-1.8851526216110124,0
138,-1.8909659760969295,0
139,-1.9003118472349834,0
140,-1.6172913852406452,0
141,1.624014191975122,0
142,4.93345986462459,0
143,-2.221182458763585,0
144,-3.986544244871693,0
145,-0.29814862956617283,0
146,-2.5417689189722203,0
147,-1.7936581400306204,0
148,-1.9272792807775587,0
149,-2.0043840141270275,0
150,-1.919137535576054,0
151,-1.8694982560674873,0
152,-1.982658316770925,0
153,-2.0151716633908006,0
154,-1.9207791658173243,0
155,-1.9571852257493967,0
156,-1.957833611070623,0
157,-1.9535243508655347,0
158,-1.8318857443832024,0
159,-1.833856689012155,0
160,-1.4976275526172274,0
161,1.5954129489942304,0
162,5.06666750469479,0
163,-2.1972118681410833,0
164,-3.842478095889242,0
165,-0.31529461474352805,0
166,-2.529709724935453,0
167,-1.6998528237072266,0
168,-1.8190590369260147,0
169,-2.103976938669923,0
170,-2.1391848261916673,0
171,-1.9544325062218433,0
172,-1.997267251266488,0
173,-1.9100043714125945,0
174,-1.9055466032063386,0
175,-1.9182529647769202,0
176,-1.9841185840815485,0
177,-1.8985193011412975,0
178,-1.8837955841896115,0
179,-2.0094969329474144,0
180,-1.5747380311507548,0
181,1.714506893821007,0
182,4.985756172000532,0
183,-2.032259852506558,0
184,-3.8952159245622395,0
185,-0.33023370832043053,0
186,-2.667672954941588,0
187,-1.7323363060804562,0
188,-1.9021067172327233,0
189,-2.02327309993051,0
190,-1.9232094932854173,0
191,-1.9170749533692952,0
192,-1.7767120747449643,0
193,-1.9368338916778807,0
194,-1.8758922103412996,0
195,-1.819217609843637,0
196,-1.9634589631647708,0
197,-1.914521649064243,0
198,-1.739340282316137,0
199,-1.9245390541728467,0
200,-1.5772385967710227,0
201,1.6449171924106851,0
202,4.973887593788493,0
203,-2.1363697838489277,0
204,-3.882820772903227,0
205,-0.278888959885911,0
206,-2.5898445528589806,0
207,-1.6740214114595307,0
208,-1.7699941605340879,0
209,-1.876494842210856,0
210,-1.9076470509395083,0
211,-1.8976292361075804,0
212,-1.8129757786610776,0
213,-1.7773128061081187,0
214,-1.9379775143737237,0
215,-1.8786238264906399,0
216,-1.8218630208029118,0
217,-1.8563824764344583,0
218,-1.8420270614464798,0
219,-1.8750931207882389,0
220,-1.6568901343297795,0
221,1.6019247853796996,0
222,5.063026743338085,0
223,-2.236898320634134,0
224,-3.6899205427109654,0
225,-0.2656107035556967,0
226,-2.629336365647795,0
227,-1.9090483682902941,0
228,-2.0058439318337284,0
229,-1.871855060157126,0
230,-1.8443324080448222,0
231,-1.8994517723874549,0
232,-1.770148754806555,0
233,-1.8375979973937138,0
234,-1.8947669812249754,0
235,-1.8685999611933006,0
236,-1.8292073782573568,0
237,-1.8198788562968773,0
238,-1.894362013066741,0
239,-1.9632655103293806,0
240,-1.7590043540566114,0
241,1.5748010442396128,0
242,4.976685238076521,0
243,-2.1628437136921734,0
244,-3.838189737710663,0
245,-0.3633055036188888,0
246,-2.5969504705136126,0
247,-1.6068457975634254,0
248,-1.8637971332844638,0
249,-1.9052805500778824,0
250,-1.8046538842301922,0
251,-1.8272062931667872,0
252,-1.8939097149888735,0
253,-1.7414540528468856,0
254,-1.7773116410911929,0
255,-1.8923662626075957,0
256,-1.9080372283671099,0
257,-1.8707937204590854,0
258,-1.9834163313379587,0
259,-1.952432413671275,0
260,-1.5255913376166486,0
261,1.6145923691584545,0
262,5.033591834980542,0
263,-2.184629161370512,0
264,-3.744237128833163,0
265,-0.4387536737713744,0
266,-2.6734944531122538,0
267,-1.7529252923839664,0
268,-1.876982960982759,0
269,-1.8974592445637704,0
270,-1.9253332364163347,0
271,-1.9608680169158885,0
272,-1.9250675668525516,0
273,-1.983277628675409,0
274,-1.837742080942486,0
275,-1.8113422157512467,0
276,-1.8849298319057237,0
277,-1.9397516061291251,0
278,-1.7489767163141519,0
279,-1.8000796580522296,0
280,-1.5685734278802252,0
281,1.7500923900812224,0
282,5.0357610673060655,0
283,-2.0956887017405306,0
284,-3.824280703475562,0
285,-0.2549215443937787,0
286,-2.554920792856416,0
287,-1.7388006376308307,0
288,-1.786189022582129,0
289,-1.9285834311901788,0
290,-1.8540416457608813,0
291,-1.8743574987848923,0
292,-1.9552203285818808,0
293,-1.9498538841405348,0
294,-1.7808642231412155,0
295,-1.9744856213408646,0
296,-1.888574928291759,0
297,-1.8500601130652112,0
298,-1.8179813065708348,0
299,-1.8737529308458853,0
300,-1.643989372791883,0
301,1.7655235130450577,0
302,4.976846466914673,0
303,-2.0822731219558706,0
304,-3.724427470877542,0
305,-0.303122426058825,0
306,-2.6243182022025078,0
307,-1.8182668302593445,0
308,-1.8797244576417749,0
309,-1.8291692343007064,0
310,-1.889657488034502,0
311,-1.8705897746504132,0
312,-1.866685367339495,0
313,-1.9455863927443084,0
314,-1.7754313794957877,0
315,-1.8611175910504152,0
316,-1.968933852309879,0
317,-1.864279562540135,0
318,-1.8665981061504378,0
319,-2.0248814893426355,0
320,-1.5851998830334746,0
321,1.6542431070728363,0
322,4.942334656528585,0
323,-2.171899124616586,0
324,-3.762465236483517,0
325,-0.44684792941419293,0
326,-2.661860942874733,0
327,-1.7101843126368592,0
328,-1.7877812462059006,0
329,-1.8431252959427662,0
330,-1.9211224893220973,0
331,-1.9296481879786542,0
332,-1.9746854317451428,0
333,-1.8199032463358675,0
334,-1.7184115280055696,0
335,-1.7995396103827608,0
336,-1.840082536398142,0
337,-1.8597542805758933,0
338,-1.968556579901666,0
339,-1.7016119987766722,0
340,-1.5120480031967451,0
341,1.690301963207862,0
342,4.97432666322005,0
343,-2.3238749940221415,0
344,-3.6622071576272965,0
345,-0.3210602312348054,0
346,-2.5756617367225387,0
347,-1.7805799243819145,0
348,-1.7915581929560558,0
349,-1.852248549628016,0
350,-1.78362516990089,0
351,-1.9142273384874855,0
352,-1.78581104952782,0
353,-1.9413788020366707,0
354,-1.8026659602919317,0
355,-2.0060891350626218,0
356,-1.6727147152823243,0
357,-1.82332743878938,0
358,-1.7904015350676639,0
359,-1.8498880285289176,0
360,-1.6072302978916788,0
361,1.7975718769010807,0
362,5.197153245969179,0
363,-2.266868242536958,0
364,-3.659238503737865,0
365,-0.17219875943755047,0
366,-2.4467207555485597,0
367,-1.782319268385617,0
368,-1.7794568707422553,0
369,-1.8142589211088285,0
370,-1.8115033760975485,0
371,-1.9933551914082106,0
372,-1.776121110398032,0
373,-1.726702583985113,0
374,-1.761491712235614,0
375,-1.9010397014147034,0
376,-1.8908791353061378,0
377,-1.8612395411818772,0
378,-1.9400405836152756,0
379,-1.8102690341247512,0
380,-1.57054306381554,0
381,1.7107110460195418,0
382,5.005911283047215,0
383,-2.1147913147992083,0
384,-3.7261409397138836,0
385,-0.23223178472340145,0
386,-2.6697937810354277,0
387,-1.7478382641140535,0
388,-1.8822707474414406,0
389,-1.8406448971881353,0
390,-1.8021823247889541,0
391,-1.7673279532152795,0
392,-1.9008093689781007,0
393,-1.8259816588198772,0
394,-1.8373098067117684,0
395,-1.7706868396025384,0
396,-1.7197112369225467,0
397,-1.672540028599504,0
398,-1.7063901906740386,0
399,-1.8448140637823192,0
400,-1.527557338989701,0
401,1.7196714785049256,0
402,4.945904370669795,0
403,-2.1533374814349138,0
404,-3.7198430613665163,0
405,-0.26016815512218905,0
406,-2.5617030372336416,0
407,-1.8865867709220383,0
408,-1.9108329681701144,0
409,-1.9281760642303898,0
410,-1.9419424325168122,0
411,-1.9525414447976086,0
412,-1.7374900054420317,0
413,-1.951089966611439,0
414,-1.744126135319937,0
415,-1.9138583646282241,0
416,-1.9580774892162647,0
417,-1.938630749455896,0
418,-1.8830530163949615,0
419,-1.720534761950396,0
420,-1.6062417850484647,0
421,1.669667281184258,0
422,4.984602401331265,0
423,-2.1568713180444967,0
424,-3.7432334823579994,0
425,-0.21517097656809425,0
426,-2.5365014757294704,0
427,-1.7525609257584855,0
428,-1.8147859836517557,0
429,-1.8064269694578872,0
430,-1.7730979434859815,0
431,-1.9033253004856714,0
432,-1.8749055080338846,0
433,-1.843406806420088,0
434,-1.769297245408336,0
435,-1.7669220899200246,0
436,-1.8074181421947966,0
437,-1.8235668159456493,0
438,-1.684533336257887,0
439,-1.8087104932430194,0
440,-1.5567347604643453,0
441,1.85014959073148,0
442,5.170375895329248,0
443,-2.07496177209357,0
444,-3.698148931804198,0
445,-0.27750379091684363,0
446,-2.503409331080895,0
447,-1.6796859551725334,0
448,-1.7614718764834578,0
449,-1.9383524610040226,0
450,-1.8200581241106677,0
451,-1.931321320753877,0
452,-1.8270796735101063,0
453,-1.8311421298245487,0
454,-1.8071602276417547,0
455,-1.8997438643983515,0
456,-1.7608976552273974,0
457,-1.7999495853736642,0
458,-1.9818837060615235,0
459,-1.889936102967192,0
460,-1.5450958670657633,0
461,1.7960978472971592,0
462,5.024798932311785,0
463,-2.3777811974295213,0
464,-3.797838633029479,0
465,-0.11368523977553147,0
466,-2.5183364916088067,0
467,-1.651163362052447,0
468,-1.8108895663889815,0
469,-1.6399238557377873,0
470,-1.7520982575379962,0
471,-1.8426205206386657,0
472,-1.740435172501717,0
473,-1.6994241747493257,0
474,-1.670484703826974,0
475,-1.6868717901086703,0
476,-1.726136303674728,0
477,-1.796088301731703,0
478,-1.7854861154969557,0
479,-1.809872872307309,0
480,-1.5613461122434744,0
481,1.9123387798461047,0
482,5.0741020952278895,0
483,-2.245258551312607,0
484,-3.7583576334656925,0
485,-0.21373629805294803,0
486,-2.5343849354980463,0
487,-1.7046300729024475,0
488,-1.7485185569330546,0
489,-1.8117964817744523,0
490,-1.6421986241774482,0
491,-1.7792583884196962,0
492,-1.8095716129483883,0
493,-1.719382646139932,0
494,-1.762394277595087,0
495,-1.8137129432911814,0
496,-1.7755395811999688,0
497,-1.7162336485971825,0
498,-1.6809758073717131,0
499,-1.6861347681937577,0
500,-1.425080827415552,0
501,1.8411216235713066,0
502,5.099326652061974,0
503,-2.1946425261686264,0
504,-3.785892717160298,0
505,-0.30352219135647673,0
506,-2.5763567727224466,0
507,-1.7216190429909128,0
508,-1.8325857894803599,0
509,-1.8986317377890456,0
510,-1.8196963045092036,0
511,-1.779432900629264,0
512,-1.751458657454119,0
513,-1.609574078816169,0
514,-1.9749891780029862,0
515,-1.7505866325617085,0
516,-1.701632425540859,0
517,-1.725306021728516,0
518,-1.8171995228577416,0
519,-1.773317938173402,0
520,-1.602907444010417,0
521,1.7401773959589624,0
522,4.978718580598927,0
523,-2.149750288067045,0
524,-3.5824994627937023,0
525,-0.31764222247341056,0
526,-2.457368483076812,0
527,-1.5832490338279874,0
528,-1.6354686208753066,0
529,-1.7902354838868968,0
530,-1.7916954405530927,0
531,-1.8903558862042948,0
532,-1.724696549069815,0
533,-1.7108327067310498,0
534,-1.6589286855758025,0
535,-1.7486355053772586,0
536,-1.8018758176639913,0
537,-1.7874466413593677,0
538,-1.8835712402548368,0
539,-1.9056280153517915,0
540,-1.4706557238306335,0
541,1.737108910084236,0
542,5.1446063881341395,0
543,-2.238210406202289,0
544,-3.744545154483366,0
545,-0.291562983198455,0
546,-2.533428169003434,0
547,-1.7013350281112218,0
548,-1.814027672628965,0
549,-1.8112314761304416,0
550,-1.9330554351883211,0
551,-1.8307807488999648,0
552,-1.770935492839733,0
553,-1.7451640205721197,0
554,-1.8348464142374723,0
555,-1.8102189442211392,0
556,-1.7668780985536094,0
557,-1.796768277807369,0
558,-1.7864772290529687,0
559,-1.8180298905657533,0
560,-1.4783158782526036,0
561,1.8335680503172092,0
562,5.063500637696029,0
563,-2.1271842096889673,0
564,-3.527673399810302,0
565,-0.15750932971969234,0
566,-2.4988093744027386,0
567,-1.5470803399338258,0
568,-1.607432612709372,0
569,-1.7776319225513728,0
570,-1.6850762939877502,0
571,-1.6657581973713895,0
572,-1.6833441357637597,0
573,-1.6769460144925714,0
574,-1.686652350967632,0
575,-1.6558617670196845,0
576,-1.8369446375089176,0
577,-1.7742178898026206,0
578,-1.8298956981198202,0
579,-1.9223030304609203,0
580,-1.4664023519605556,0
581,1.6983610647934715,0
582,4.978327150530619,0
583,-2.2368254701468624,0
584,-3.7571613557354966,0
585,-0.35758457735231697,0
586,-2.4172961345109547,0
587,-1.6487971155855434,0
588,-1.817673955715091,0
589,-1.8804584373970434,0
590,-1.8470478054617094,0
591,-1.5869667447999298,0
592,-1.8575702384043313,0
593,-1.81784643875487,0
594,-1.746733184518332,0
595,-1.6474961187915595,0
596,-1.762189489095983,0
597,-1.635328452538073,0
598,-1.748431994501801,0
599,-1.832302824832828,0
600,-1.4262511299905078,0
601,1.822252748263751,0
602,5.12421738030787,0
603,-2.2360497525138,0
604,-3.6479247816072844,0
605,-0.14054643964269364,0
606,-2.5788973723621917,0
607,-1.6825394442424035,0
608,-1.679257344473993,0
609,-1.8785402900342267,0
610,-1.7786258346001647,0
611,-1.8164289800455993,0
612,-1.7054925691841123,0
613,-1.7006331341292602,0
614,-1.7716161053828186,0
615,-1.6945012988540666,0
616,-1.7772001810298275,0
617,-1.8404943111975367,0
618,-1.8175605647644002,0
619,-1.6521457689650314,0
620,-1.557336414027355,0
621,1.8627861598795714,0
622,5.058866935035351,0
623,-2.1466112808044646,0
624,-3.5676721605560493,0
625,-0.14677612184427535,0
626,-2.401832959627624,0
627,-1.4533588290432469,0
628,-1.6266482461173308,0
629,-1.864147260467825,0
630,-1.7032386510415587,0
631,-1.76871797050466,0
632,-1.678192121241234,0
633,-1.6672793959074372,0
634,-1.6823135065418338,0
635,-1.7536260767131497,0
636,-1.6860105048490266,0
637,-1.7757296762805073,0
638,-1.7319499710476722,0
639,-1.7323252598045005,0
640,-1.548600619421209,0
641,1.9939224339259332,0
642,5.030779150474535,0
643,-2.12273636985321,0
644,-3.5029668271336876,0
645,-0.20486759569212398,0
646,-2.3599240346695973,0
647,-1.4326318381213086,0
648,-1.6111257549731077,0
649,-1.6943923884062375,0
650,-1.7042483046566226,0
651,-1.8077012014966158,0
652,-1.750616650687051,0
653,-1.6351653671713473,0
654,-1.6143716045581855,0
655,-1.7373481664778339,0
656,-1.7505652398235376,0
657,-1.6989739352469293,0
658,-1.5936909615107782,0
659,-1.7057933170923434,0
660,-1.390657438257247,0
661,2.104760041934952,0
662,5.0441872730991335,0
663,-2.1969944819142215,0
664,-3.5681730162396437,0
665,-0.1663085140006333,0
666,-2.4414383026794453,0
667,-1.5720029705121596,0
668,-1.6493948069633109,0
669,-1.445724573554127,0
670,-1.6818432046540828,0
671,-1.5808659517303034,0
672,-1.6724627371993104,0
673,-1.5548673840573766,0
674,-1.6236812576221968,0
675,-1.5683315794387447,0
676,-1.7589347713790695,0
677,-1.6362672047379905,0
678,-1.647676708829493,0
679,-1.5835913104807016,0
680,-1.2801959097024498,0
681,1.9419042501756552,0
682,5.166669963171986,0
683,-2.0633459972482546,0
684,-3.505507801308652,0
685,-0.14319914190964877,0
686,-2.3511629321193706,0
687,-1.40383571045531,0
688,-1.65322669452053,0
689,-1.7990698309763582,0
690,-1.6810824671569922,0
691,-1.6673178895718288,0
692,-1.5732638448892526,0
693,-1.6329516149231216,0
694,-1.7538505059304106,0
695,-1.7040498416383383,0
696,-1.6924084724693789,0
697,-1.6048189687807672,0
698,-1.667812695757937,0
699,-1.7078143864324271,0
700,-1.3764326322451388,0
701,1.8320153389958875,0
702,5.189629764549989,0
703,-2.062072970970753,0
704,-3.5330165927920856,0
705,-0.17614362310029552,0
706,-2.4154233902818776,0
707,-1.4839472893092918,0
708,-1.5803939302959182,0
709,-1.6473583589573768,0
710,-1.5643095752745988,0
711,-1.6106276608544523,0
712,-1.627408544956107,0
713,-1.5788894541697145,0
714,-1.5768960391417046,0
715,-1.6841887917279716,0
716,-1.628014799923902,0
717,-1.5677717233739559,0
718,-1.572025955500796,0
719,-1.605843834325876,0
720,-1.4486256384916185,0
721,1.9167510598698763,0
722,5.1260182234469855,0
723,-2.1184891778691846,0
724,-3.460086121289094,0
725,-0.06503564053444322,0
726,-2.5238614117821037,0
727,-1.4659867001493203,0
728,-1.7588522661717905,0
729,-1.7473813963377685,0
730,-1.6749104077281787,0
731,-1.657635428229305,0
732,-1.6766880966956965,0
733,-1.4284390755128296,0
734,-1.5897417051763703,0
735,-1.74192037201727,0
736,-1.5979505679472576,0
737,-1.7643300952409697,0
738,-1.6211327945957643,0
739,-1.70933271533119,0
740,-1.2141923276513955,0
741,1.8322149847181748,0
742,4.977419073203932,0
743,-2.1747542472789396,0
744,-3.6359166892443326,0
745,-0.11201354097729643,0
746,-2.344052885976132,0
747,-1.4809976482157032,0
748,-1.6990639075292675,0
749,-1.7949518537784375,0
750,-1.6699363128783142,0
751,-1.75621490407651,0
752,-1.6990248178921983,0
753,-1.4767115837457194,0
754,-1.7067748041082957,0
755,-1.7013982220777255,0
756,-1.6251630365031289,0
757,-1.6649064971507788,0
758,-1.4851342019546925,0
759,-1.7314377331886497,0
760,-1.3368496871282871,0
761,1.9478536849392882,0
762,5.271764236870086,0
763,-2.1143185374343063,0
764,-3.4629254691252473,0
765,-0.22229754255314726,0
766,-2.421507930683134,0
767,-1.430180456537867,0
768,-1.6661444686542055,0
769,-1.6311827270089039,0
770,-1.68892258760717,0
771,-1.7371927251208932,0
772,-1.670227993770122,0
773,-1.7642916526849977,0
774,-1.8641697803399557,0
775,-1.7432101136126101,0
776,-1.6694321961434828,0
777,-1.6849051212735313,0
778,-1.7266337084325754,0
779,-1.6258465622000575,0
780,-1.4597969150106247,0
781,1.9774063636425028,0
782,4.994901559503311,0
783,-2.187946272012565,0
784,-3.508745156212387,0
785,-0.22080333054965307,0
786,-2.5167364386449815,0
787,-1.6197058169430085,0
788,-1.6366735968347559,0
789,-1.674707005104275,0
790,-1.7018403598202707,0
791,-1.636569669265053,0
792,-1.6603229951888858,0
793,-1.5990016298341245,0
794,-1.7403096196896408,0
795,-1.800766408446406,0
796,-1.807470719940099,0
797,-1.8274062811764802,0
798,-1.7701827531053735,0
799,-1.7179652935155363,0
800,-1.481768830857827,0
801,1.9496795281126513,0
802,4.899607847094789,0
803,-2.1081842984432813,0
804,-3.447091094200229,0
805,-0.08252955671657936,0
806,-2.5466329746983907,0
807,-1.5267493963588248,0
808,-1.6480737795404345,0
809,-1.7166702427975327,0
810,-1.7446593689717762,0
811,-1.5713559029775745,0
812,-1.6695357343777555,0
813,-1.7642389622063352,0
814,-1.7222908182099526,0
815,-1.6959965680501248,0
816,-1.6605055366981414,0
817,-1.7458244178982114,0
818,-1.74448888528837,0
819,-1.6914615025011774,0
820,-1.5095736948360303,0
821,1.9638964962623555,0
822,5.159880217191426,0
823,-2.1644599278076466,0
824,-3.592832454503752,0
825,-0.16754285418394144,0
826,-2.403477205891217,0
827,-1.5201098635292303,0
828,-1.7608112548915194,0
829,-1.615571251396073,0
830,-1.5918651651147069,0
831,-1.5396518102408288,0
832,-1.5665067925172438,0
833,-1.7041623748759311,0
834,-1.6344219511956424,0
835,-1.63710818904977,0
836,-1.5602126492435446,0
837,-1.5624044725208712,0
838,-1.5399305097009173,0
839,-1.678620259707837,0
840,-1.4244384740775742,0
841,1.9428511346598085,0
842,5.22619907404716,0
843,-2.114951439578449,0
844,-3.583361649400899,0
845,-0.22531053674921653,0
846,-2.4627195057248183,0
847,-1.5977569024880998,0
848,-1.6965234778059468,0
849,-1.6987171677330117,0
850,-1.752213611465685,0
851,-1.7820479086783503,0
852,-1.5562611973164173,0
853,-1.6894194141596501,0
854,-1.4911672348652945,0
855,-1.6422234043064776,0
856,-1.726746783078109,0
857,-1.6853713133789,0
858,-1.780247988703469,0
859,-1.74134240856021,0
860,-1.3513642940699022,0
861,1.9438318920797972,0
862,5.1389579033381505,0
863,-2.388861061375156,0
864,-3.3929822692986438,0
865,-0.12231566785977477,0
866,-2.398886131864627,0
867,-1.5631239793182699,0
868,-1.638778537592935,0
869,-1.6093765693612,0
870,-1.6004034555254019,0
871,-1.6546780798690217,0
872,-1.7110982641378287,0
873,-1.7129894583820153,0
874,-1.6059746216786959,0
875,-1.7446271121238652,0
876,-1.700177102205646,0
877,-1.920206533718758,0
878,-1.583605484245025,0
879,-1.5443723531550475,0
880,-1.3987798147147625,0
881,1.9485924542285546,0
882,5.270072466396977,0
883,-2.0671039062284895,0
884,-3.5557544213983183,0
885,-0.07410472019658898,0
886,-2.476769685450141,0
887,-1.4989895396869481,0
888,-1.6527176658974487,0
889,-1.7625712899990655,0
890,-1.577529892997387,0
891,-1.5596240939194728,0
892,-1.6617896316769156,0
893,-1.7200789618816994,0
894,-1.6447207297902036,0
895,-1.6487058566689914,0
896,-1.6625242465308192,0
897,-1.7126048130148919,0
898,-1.602305921745952,0
899,-1.7628801598020893,0
900,-1.3491694536552832,0
901,1.8834901982020928,0
902,5.119982989452167,0
903,-2.2880088804151972,0
904,-3.389054192193334,0
905,-0.2729263052801807,0
906,-2.3475753005936113,0
907,-1.5244330083895883,0
908,-1.5616117825609086,0
909,-1.5569101919698793,0
910,-1.4713803878271143,0
911,-1.7923663371872336,0
912,-1.5743706774127915,0
913,-1.5463592447880463,0
914,-1.7002020703209828,0
915,-1.611472916693055,0
916,-1.631828961624595,0
917,-1.6867225715116945,0
918,-1.7467063741192226,0
919,-1.5507670106010265,0
920,-1.4534146507095973,0
921,2.0789511706447463,0
922,5.160287553511516,0
923,-2.3183215096380576,0
924,-3.389788875155554,0
925,-0.03224187888381569,0
926,-2.4160132514113375,0
927,-1.4616972506851484,0
928,-1.6204742504425846,0
929,-1.6335320234768642,0
930,-1.6519699015832914,0
931,-1.6021425534565996,0
932,-1.617225003162257,0
933,-1.6378505880182024,0
934,-1.702330452071064,0
935,-1.507907152988824,0
936,-1.5530419651097553,0
937,-1.6872442468383593,0
938,-1.6310849361235222,0
939,-1.6442480619834376,0
940,-1.3387652846035265,0
941,1.9864498234509138,0
942,5.221139432574545,0
943,-2.1011112480248815,0
944,-3.4813028096533447,0
945,-0.23047116300216586,0
946,-2.3464184809718414,0
947,-1.4432639101614055,0
948,-1.4201705481559401,0
949,-1.7597012441523123,0
950,-1.605050212516933,0
951,-1.623517838522823,0
952,-1.5278854236804649,0
953,-1.7045581839664918,0
954,-1.5097068887098526,0
955,-1.6235197415854437,0
956,-1.633548211916579,0
957,-1.5498865644876552,0
958,-1.5110281376902697,0
959,-1.7072766762588998,0
960,-1.2875167950752973,0
961,1.9565352385245147,0
962,5.135760535431553,0
963,-2.1078313062633587,0
964,-3.342568369986707,0
965,-0.05666264879763516,0
966,-2.3000248324599832,0
967,-1.3772091934197959,0
968,-1.5692122519702272,0
969,-1.54716201472138,0
970,-1.4870920226290774,0
971,-1.5498755946876737,0
972,-1.7197861721385228,0
973,-1.57373467762651,0
974,-1.6381561882090812,0
975,-1.5265677898001808,0
976,-1.644471499098458,0
977,-1.5246103211851798,0
978,-1.631740979395937,0
979,-1.7345130138768305,0
980,-1.2618712798845046,0
981,1.981040759256315,0
982,5.227475844311229,0
983,-2.121562425928462,0
984,-3.382245335769664,0
985,-0.14576169119331017,0
986,-2.4370872263836096,0
987,-1.444156023149832,0
988,-1.7638103146395312,0
989,-1.735000188565566,0
990,-1.6813827315616494,0
991,-1.6758072893352065,0
992,-1.7346228620609956,0
993,-1.667751824333409,0
994,-1.6062427005090698,0
995,-1.5088108118558015,0
996,-1.635576684540126,0
997,-1.6577978747775877,0
998,-1.5386396728067762,0
999,-1.7001135833687602,0
1000,-1.2536874703311214,0
1001,2.0698224132196046,0
1002,5.207844174797794,0
1003,-2.1297947014560465,0
1004,-3.362149958128329,0
1005,-0.1565086016702495,0
1006,-2.224521623382221,0
1007,-1.5317218475347003,0
1008,-1.6170879319708416,0
1009,-1.8252703298291997,0
1010,-1.5611591554177635,0
1011,-1.5916578923109257,0
1012,-1.5434310717792312,0
1013,-1.5475146482699196,0
1014,-1.50765215217313,0
1015,-1.6560608716716294,0
1016,-1.6111667743845173,0
1017,-1.6219345559942806,0
1018,-1.6577767096569893,0
1019,-1.6573471539931124,0
1020,-1.2726246685313594,0
1021,2.0577604880591958,0
1022,5.22363752421964,0
1023,-2.0811848128879866,0
1024,-3.3600938435895555,0
1025,-0.09378860162527336,0
1026,-2.3413530046877367,0
1027,-1.4388573362748731,0
1028,-1.5321126626692754,0
1029,-1.6109236996068987,0
1030,-1.4002712932416932,0
1031,-1.5657878287201354,0
1032,-1.543515724253677,0
1033,-1.5206988587662387,0
1034,-1.702751788596748,0
1035,-1.4573509448529425,0
1036,-1.6715727867945978,0
1037,-1.5283055637117562,0
1038,-1.6059895491691065,0
1039,-1.610255332279026,0
1040,-1.4522489290680365,0
1041,1.9840108382774895,0
1042,5.288723289079538,0
1043,-2.0709212729458186,0
1044,-3.4080199428974227,0
1045,-0.08635150144727044,0
1046,-2.325955277976744,0
1047,-1.3490686558839762,0
1048,-1.561707370627856,0
1049,-1.5073740896019594,0
1050,-1.5362371801467973,0
1051,-1.534373758759879,0
1052,-1.5849607244587207,0
1053,-1.571237288728389,0
1054,-1.5654540889932627,0
1055,-1.4863961876451612,0
1056,-1.3760372248355894,0
1057,-1.5750213755092308,0
1058,-1.5600734038812027,0
1059,-1.5057348853421757,0
1060,-1.2720587036734086,0
1061,2.186445661656297,0
1062,5.198358589164659,0
1063,-2.240805547413658,0
1064,-3.317697477467412,0
1065,-0.13195195694636652,0
1066,-2.394441547630456,0
1067,-1.4709598572614615,0
1068,-1.4787598093315668,0
1069,-1.5145830493058718,0
1070,-1.4935376936900462,0
1071,-1.6308583219891328,0
1072,-1.5367024518466423,0
1073,-1.5966673682954637,0
1074,-1.5558871006792159,0
1075,-1.529694443322384,0
1076,-1.7431700384281996,0
1077,-1.441773610355316,0
1078,-1.508384764440644,0
1079,-1.4905311991998336,0
1080,-1.1982276672823238,0
1081,2.050074632310037,0
1082,5.283994122641355,0
1083,-2.0283167184289113,0
1084,-3.2865239392088035,0
1085,0.06942349347699261,0
1086,-2.401245383716731,0
1087,-1.355645869036516,0
1088,-1.536915335489078,0
1089,-1.559095252057923,0
1090,-1.4393452798482749,0
1091,-1.5842698586688753,0
1092,-1.5809091876380543,0
1093,-1.6413981654300827,0
1094,-1.4683526399203592,0
1095,-1.5647291542859898,0
1096,-1.486491267913748,0
1097,-1.654436065885902,0
1098,-1.6051108318383125,0
1099,-1.4338622767678675,0
1100,-1.4151624111147274,0
1101,2.141522254209856,0
1102,5.329115102732963,0
1103,-2.030592646858197,0
1104,-3.3125425151068812,0
1105,-0.12959648286872616,0
1106,-2.423307492572802,0
1107,-1.3711422187957512,0
1108,-1.4441468381909452,0
1109,-1.703148398545862,0
1110,-1.4966571537370519,0
1111,-1.5695073555280157,0
1112,-1.5144907764770312,0
1113,-1.533516137341317,0
1114,-1.6745537790172207,0
1115,-1.5670405161945844,0
1116,-1.5626546109553732,0
1117,-1.5568162399758296,0
1118,-1.6999374116238946,0
1119,-1.5839802041865223,0
1120,-1.2774188727497624,0
1121,1.9999290797980152,0
1122,5.175146405806343,0
1123,-2.1948674210084724,0
1124,-3.3650900370687156,0
1125,-0.1736422019364956,0
1126,-2.385891477516441,0
1127,-1.4035019820243795,0
1128,-1.5922919140165956,0
1129,-1.4990313724557427,0
1130,-1.5880942966482512,0
1131,-1.5231732310291815,0
1132,-1.6299851534612388,0
1133,-1.6682796667877295,0
1134,-1.536042903423007,0
1135,-1.6191468886580385,0
1136,-1.5221336435537771,0
1137,-1.6084205390977515,0
1138,-1.590122796082858,0
1139,-1.5402723426256937,0
1140,-1.3025873688111547,0
1141,2.088834866108054,0
1142,5.372187330339638,0
1143,-2.1935065011748573,0
1144,-3.423694956934938,0
1145,0.013754653603874623,0
1146,-2.3182159540371674,0
1147,-1.286437767281714,0
1148,-1.5053884381317246,0
1149,-1.6442416771829609,0
1150,-1.5203408459021381,0
1151,-1.5702002948321379,0
1152,-1.6454974864156235,0
1153,-1.7236345096899803,0
1154,-1.4515012945601922,0
1155,-1.7251706557538258,0
1156,-1.7367592707455553,0
1157,-1.6408379078528268,0
1158,-1.5758318936205784,0
1159,-1.6754559599543677,0
1160,-1.2233844383827213,0
1161,2.132656076143882,0
1162,5.23704917134781,0
1163,-2.1006911600634037,0
1164,-3.2782545808947843,0
1165,0.002690271580855663,0
1166,-2.415161111975647,0
1167,-1.2830597547415439,0
1168,-1.4514535498773975,0
1169,-1.5159979882008368,0
1170,-1.4738212461269788,0
1171,-1.5661656293503503,0
1172,-1.4720634980393459,0
1173,-1.6092517188984985,0
1174,-1.6207079703815535,0
1175,-1.614423375462733,0
1176,-1.5833716116664158,0
1177,-1.5129148777543113,0
1178,-1.4581226445257318,0
1179,-1.6470377236556932,0
1180,-1.1620993901462584,0
1181,2.187150571560537,0
1182,5.188908051770138,0
1183,-2.182267233511821,0
1184,-3.319546825200364,0
1185,0.04016152647930782,0
1186,-2.295263071342821,0
1187,-1.2121612563204625,0
1188,-1.5316331446344245,0
1189,-1.5087645667163132,0
1190,-1.5879386340201442,0
1191,-1.4440015065651042,0
1192,-1.4720209060070315,0
1193,-1.5183329033868243,0
1194,-1.4522683185544067,0
1195,-1.5930279424416114,0
1196,-1.5420307053491207,0
1197,-1.536846946395406,0
1198,-1.6585237018476842,0
1199,-1.6625561073319808,0
1200,-1.3828691323768165,0
1201,2.0251062201461343,0
1202,5.078507564313236,0
1203,-2.1955133986937234,0
1204,-3.3576152947477036,0
1205,-0.07989212213799823,0
1206,-2.4152314118982847,0
1207,-1.386849549933342,0
1208,-1.4548452163587189,0
1209,-1.6498574555006882,0
1210,-1.4308524389774353,0
1211,-1.4800341629112228,0
1212,-1.5858230083909293,0
1213,-1.435794405525109,0
1214,-1.446894857442408,0
1215,-1.5525780533424898,0
1216,-1.525701901627798,0
1217,-1.4844699393704361,0
1218,-1.6032677949906495,0
1219,-1.6276050704158733,0
1220,-1.2224434305918792,0
1221,2.042523450489722,0
1222,5.255575226884624,0
1223,-2.128672343549354,0
1224,-3.25398195834714,0
1225,-0.07594462429183735,0
1226,-2.250616502231984,0
1227,-1.4340023101253971,0
1228,-1.5396639618266386,0
1229,-1.6558880097477762,0
1230,-1.6011907455648935,0
1231,-1.4887866209643474,0
1232,-1.564014692759755,0
1233,-1.5397643525084999,0
1234,-1.636214495885106,0
1235,-1.4606307192358672,0
1236,-1.516182704161304,0
1237,-1.6085742898295763,0
1238,-1.4059897829679524,0
1239,-1.4730963317995271,0
1240,-1.1486192745167434,0
1241,2.145816193006629,0
1242,5.171911854596491,0
1243,-2.110983108080962,0
1244,-3.1484652530350683,0
1245,0.042986560885172276,0
1246,-2.250712362169845,0
1247,-1.3851195920318518,0
1248,-1.5144300706377172,0
1249,-1.5160286503448408,0
1250,-1.538051133643669,0
1251,-1.5917612500165703,0
1252,-1.458115825603159,0
1253,-1.5211132773142657,0
1254,-1.47088217870789,0
1255,-1.557658960755146,0
1256,-1.5770878286168604,0
1257,-1.4992736528976662,0
1258,-1.5155228442348094,0
1259,-1.5292920391561946,0
1260,-1.2132663066429203,0
1261,2.234919098698148,0
1262,5.3476737513918575,0
1263,-2.0753624684319476,0
1264,-3.2267369480062156,0
1265,0.07431485423107587,0
1266,-2.27164549892618,0
1267,-1.3393491487890654,0
1268,-1.3267748959939034,0
1269,-1.4139150618962737,0
1270,-1.439965689729763,0
1271,-1.5948563116150898,0
1272,-1.4954632674357802,0
1273,-1.4172183242418415,0
1274,-1.4524764109735344,0
1275,-1.340829490830534,0
1276,-1.3639836800013776,0
1277,-1.4370079581258977,0
1278,-1.4801990760103925,0
1279,-1.4310304556383553,0
1280,-1.072832513863152,0
1281,2.2045152984800103,0
1282,5.321583525296349,0
1283,-2.1960293521847714,0
1284,-3.28786521870225,0
1285,0.012413539015306618,0
1286,-2.2840984661130945,0
1287,-1.3478533703451507,0
1288,-1.5182937207972063,0
1289,-1.5518578131828946,0
1290,-1.5012180529106132,0
1291,-1.4434597787623378,0
1292,-1.5210060242403713,0
1293,-1.424191678698049,0
1294,-1.5121147110755984,0
1295,-1.534392621632225,0
1296,-1.60336945138976,0
1297,-1.463177541025288,0
1298,-1.4585738043370933,0
1299,-1.3519252650733005,0
1300,-1.1936742620494638,0
1301,2.242667640614128,0
1302,5.294322597557096,0
1303,-2.0483828476649384,0
1304,-3.214093891511223,0
1305,0.09668597954458358,0
1306,-2.1767341527991713,0
1307,-1.3666808293637471,0
1308,-1.3510187737907093,0
1309,-1.4634892589313995,0
1310,-1.5581547544429633,0
1311,-1.4002142021539068,0
1312,-1.4554303216939373,0
1313,-1.3753483233218127,0
1314,-1.4940311187102295,0
1315,-1.5050673650659998,0
1316,-1.448203640599785,0
1317,-1.4031026034122007,0
1318,-1.4519587799369609,0
1319,-1.4220814275664564,0
1320,-1.028206130779002,0
1321,2.398592126323329,0
1322,5.302642684562402,0
1323,-2.0466251912188547,0
1324,-3.1141925007335587,0
1325,0.1694703227676504,0
1326,-2.2021601937052973,0
1327,-1.2758340963736297,0
1328,-1.4387515935566193,0
1329,-1.4666829278595228,0
1330,-1.4822348600130126,0
1331,-1.3588784256331907,0
1332,-1.2929353084070356,0
1333,-1.4757996952013253,0
1334,-1.5343795774343818,0
1335,-1.4220441781148843,0
1336,-1.5523053665641349,0
1337,-1.4019462171971884,0
1338,-1.3779172112411877,0
1339,-1.5046331913884154,0
1340,-1.1786301228882579,0
1341,2.3923166599817396,0
1342,5.329339451988547,0
1343,-2.0855050975501315,0
1344,-3.2052248437586384,0
1345,0.20140857879583418,0
1346,-2.241562179930985,0
1347,-1.1423600531074298,0
1348,-1.3098879021477572,0
1349,-1.4462915306647435,0
1350,-1.322336038235214,0
1351,-1.2151865359418126,0
1352,-1.3353505145889553,0
1353,-1.2484904679470028,0
1354,-1.3812632730693066,0
1355,-1.4575666726208518,0
1356,-1.2429205234535623,0
1357,-1.4821705503437235,0
1358,-1.3174628473399417,0
1359,-1.314973505313146,0
1360,-1.1077703826465828,0
1361,2.3437012746704977,0
1362,5.401894559253632,0
1363,-1.8460987315020692,0
1364,-3.215604843539606,0
1365,0.11838679118138606,0
1366,-2.1338783763380436,0
1367,-1.1990351345044976,0
1368,-1.3575887367461505,0
1369,-1.4815075245630798,0
1370,-1.4089641539570534,0
1371,-1.3580205223922168,0
1372,-1.2848988321469719,0
1373,-1.3785509055491307,0
1374,-1.394670719286681,0
1375,-1.3700444879573979,0
1376,-1.2955303745641755,0
1377,-1.4001179798105428,0
1378,-1.2874170775941767,0
1379,-1.376745963966256,0
1380,-1.0579460771239777,0
1381,2.331438188303868,0
1382,5.313863125328268,0
1383,-2.0425271454956673,0
1384,-3.222904168064155,0
1385,0.21808925782071142,0
1386,-2.064217558069302,0
1387,-1.1680608646752486,0
1388,-1.3345941150622125,0
1389,-1.4170591904242822,0
1390,-1.3580563865914206,0
1391,-1.3624367256069296,0
1392,-1.4395880295778158,0
1393,-1.3037965592049088,0
1394,-1.3624834046478367,0
1395,-1.4054829783529168,0
1396,-1.6071595801146523,0
1397,-1.3672446873831652,0
1398,-1.4829134006884634,0
1399,-1.2849881782542767,0
1400,-1.086301511649792,0
1401,2.4157750354710497,0
1402,5.263313315675347,0
1403,-1.9415455096241203,0
1404,-3.1417181675104064,0
1405,0.11628908757015566,0
1406,-2.14036172878559,0
1407,-1.1200836678906396,0
1408,-1.3729392668850533,0
1409,-1.4316146238449974,0
1410,-1.4570380105113643,0
1411,-1.374055015639868,0
1412,-1.3664086521882348,0
1413,-1.3941530374977382,0
1414,-1.4378876789084296,0
1415,-1.2985019974218233,0
1416,-1.4149225939509678,0
1417,-1.2684684792440324,0
1418,-1.3898574434992317,0
1419,-1.2978892097268564,0
1420,-1.1418289920106663,0
1421,2.3445508462774445,0
1422,5.3870225684851825,0
1423,-1.9953344792822283,0
1424,-3.043000985935967,0
1425,0.08567544795146653,0
1426,-2.1719145407813105,0
1427,-1.1886763436652468,0
1428,-1.30856837063222,0
1429,-1.3480509963330094,0
1430,-1.3515158128084335,0
1431,-1.320342862022467,0
1432,-1.3894770035600383,0
1433,-1.3914411151581307,0
1434,-1.2721866777692452,0
1435,-1.3196147739532063,0
1436,-1.3006764186077004,0
1437,-1.4801538543802923,0
1438,-1.387155834941764,0
1439,-1.286543180672693,0
1440,-0.9130639195842456,0
1441,2.4669284681259827,0
1442,5.355162163600996,0
1443,-2.0254635024937304,0
1444,-3.1511944460549532,0
1445,0.11520522927312782,0
1446,-2.121765085555429,0
1447,-1.34593716982923,0
1448,-1.4313074134876882,0
1449,-1.3876343495448298,0
1450,-1.3648158881551382,0
1451,-1.3593968956822373,0
1452,-1.4483379924485262,0
1453,-1.4252538297904944,0
1454,-1.3489641705995323,0
1455,-1.1993877399147055,0
1456,-1.3098096834586783,0
1457,-1.4540890758424376,0
1458,-1.421178485661441,0
1459,-1.3005679409855344,0
1460,-1.01545710623809,0
1461,2.5424576901725686,0
1462,5.527586594369621,0
1463,-2.0122894334539856,0
1464,-2.9017366216566813,0
1465,0.3190303353920161,0
1466,-2.1796883183180844,0
1467,-1.102269030734591,0
1468,-1.3287889466814138,0
1469,-1.2964098019289743,0
1470,-1.3082679864150686,0
1471,-1.3597873409395875,0
1472,-1.2830428839992118,0
1473,-1.3234124625769461,0
1474,-1.4684030393463627,0
1475,-1.3892472935471063,0
1476,-1.3576236923938574,0
1477,-1.4816498083590113,0
1478,-1.3172956447352178,0
1479,-1.4268230628398608,0
1480,-0.9550351793029892,0
1481,2.359867665395557,0
1482,5.483125435055454,0
1483,-2.0954270756620774,0
1484,-3.0653878612609606,0
1485,0.13035056717737326,0
1486,-2.1903420194636927,0
1487,-1.3096056809853078,0
1488,-1.3453253275301744,0
1489,-1.353151899423202,0
1490,-1.3563920906900457,0
1491,-1.4674945292638508,0
1492,-1.3948368248562593,0
1493,-1.2832589431872692,0
1494,-1.3008006715222793,0
1495,-1.3355042477994397,0
1496,-1.2631507838795453,0
1497,-1.4903862683307219,0
1498,-1.2956277697000156,0
1499,-1.5068661919745514,0
1500,-1.0165475799213728,0
1501,2.4593073745138008,0
1502,5.401300633658481,0
1503,-2.01498538606316,0
1504,-3.1552583053364414,0
1505,0.0835976474470248,0
1506,-2.1208333056624307,0
1507,-1.2837255087296016,0
1508,-1.3385489690656,0
1509,-1.582334518845339,0
1510,-1.408532334154516,0
1511,-1.35397430563947,0
1512,-1.4576230388046925,0
1513,-1.3965092432850061,0
1514,-1.4546231796398474,0
1515,-1.5116229604161702,0
1516,-1.3507737804590332,0
1517,-1.313065508800051,0
1518,-1.4221155806783898,0
1519,-1.4181027916752489,0
1520,-1.012744619466816,0
1521,2.445115591024763,0
1522,5.32461814274169,0
1523,-2.0555044416785715,0
1524,-3.0507799852181456,0
1525,0.3215648309543533,0
1526,-2.017830004837915,0
1527,-1.1451205331319976,0
1528,-1.2680755028439201,0
1529,-1.3998249556865632,0
1530,-1.4541801418791356,0
1531,-1.3212668956120328,0
1532,-1.3281753344082983,0
1533,-1.3738945139995613,0
1534,-1.3843614162871793,0
1535,-1.2573649033508048,0
1536,-1.283856899008789,0
1537,-1.3895647124551245,0
1538,-1.3442480055841273,0
1539,-1.355151825763558,0
1540,-0.9720879895190504,0
1541,2.263780860961232,0
1542,5.480264556876039,0
1543,-1.964281875677053,0
1544,-3.0545721173835316,0
1545,0.12468346854960366,0
1546,-2.0815516935991996,0
1547,-1.1780297988796795,0
1548,-1.3609719713795998,0
1549,-1.4462277149021305,0
1550,-1.364616683876532,0
1551,-1.351331044992848,0
1552,-1.2609372856805046,0
1553,-1.2489955266349764,0
1554,-1.2740569110494053,0
1555,-1.420922387268437,0
1556,-1.3248771030449067,0
1557,-1.2744964204306697,0
1558,-1.3433007528944698,0
1559,-1.3446433911275761,0
1560,-1.044592894191727,0
1561,2.4997174527880723,0
1562,5.464360129067234,0
1563,-1.9845819646987164,0
1564,-3.150609054826523,0
1565,0.07794324376518125,0
1566,-2.088728306764505,0
1567,-1.065498667510744,0
1568,-1.3275512925447457,0
1569,-1.3973546420228402,0
1570,-1.2814060680756734,0
1571,-1.3546598396956555,0
1572,-1.3518349158492236,0
1573,-1.3458631149576235,0
1574,-1.2968649448867127,0
1575,-1.2657201011477857,0
1576,-1.3116096515881592,0
1577,-1.3417288052265124,0
1578,-1.357029549646906,0
1579,-1.3384735661625315,0
1580,-0.9967735256499564,0
1581,2.412376000658968,0
1582,5.413044937028618,0
1583,-2.0424602172355946,0
1584,-3.0496196471907124,0
1585,0.2663729916364288,0
1586,-2.1232909708563796,0
1587,-1.199179626825351,0
1588,-1.2948446784330763,0
1589,-1.4870718180731162,0
1590,-1.2423508433797052,0
1591,-1.411438368150198,0
1592,-1.1676753418660795,0
1593,-1.3600165888588853,0
1594,-1.4534696384158785,0
1595,-1.3707513925658925,0
1596,-1.3527191886327095,0
1597,-1.2718557850205432,0
1598,-1.2926373980896155,0
1599,-1.2812125927508635,0
1600,-1.0147144336586607,0
1601,2.3523844035221764,0
1602,5.570463248480438,0
1603,-1.9763172062148504,0
1604,-2.983626800837735,0
1605,0.2035905386149055,0
1606,-2.1293663723867136,0
1607,-1.26832869575905,0
1608,-1.5171434961901478,0
1609,-1.3579453271739879,0
1610,-1.276206547798375,0
1611,-1.4454961310086476,0
1612,-1.2517768978339814,0
1613,-1.3869042984012907,0
1614,-1.2965486159154693,0
1615,-1.3966800737770235,0
1616,-1.4275710044727392,0
1617,-1.3101440056845834,0
1618,-1.356967538222383,0
1619,-1.2657958239883411,0
1620,-1.0002991938591441,0
1621,2.4746261147509436,0
1622,5.247669037469093,0
1623,-1.9424486856325978,0
1624,-3.059301545373707,0
1625,0.19573628920697628,0
1626,-2.0580645669811055,0
1627,-1.1638003643926929,0
1628,-1.368761587324328,0
1629,-1.3396827956887771,0
1630,-1.1873747062536866,0
1631,-1.3643748107741605,0
1632,-1.3695285556808632,0
1633,-1.2746340790708548,0
1634,-1.364543089748266,0
1635,-1.3733554673866761,0
1636,-1.2919016524628124,0
1637,-1.2934516741675957,0
1638,-1.3613797098001212,0
1639,-1.2878312935066947,0
1640,-1.0111303410159949,0
1641,2.5044168666986515,0
1642,5.436275879749576,0
1643,-1.9581627177618182,0
1644,-3.1077629770500677,0
1645,0.1134148797268244,0
1646,-2.0731559835881117,0
1647,-1.1522667691884265,0
1648,-1.3628370480016336,0
1649,-1.28226751641851,0
1650,-1.2525479945949765,0
1651,-1.332701713617625,0
1652,-1.1336217458082662,0
1653,-1.2915484904995445,0
1654,-1.2555830681022795,0
1655,-1.2941354730103758,0
1656,-1.3442650669762168,0
1657,-1.2632334170042037,0
1658,-1.3151875361576981,0
1659,-1.2839586473357176,0
1660,-0.9310780959648628,0
1661,2.3769853358685755,0
1662,5.5944236009046495,0
1663,-1.7979082851953099,0
1664,-2.8644622579813364,0
1665,0.16183290371353642,0
1666,-2.0811612376510933,0
1667,-1.0761342184680809,0
1668,-1.270243749632342,0
1669,-1.368185543723923,0
1670,-1.2549779225093753,0
1671,-1.2391165490587843,0
1672,-1.2682659662444902,0
1673,-1.1928790197407808,0
1674,-1.242441909536555,0
1675,-1.1214845304384997,0
1676,-1.3332437462970121,0
1677,-1.3352686515782557,0
1678,-1.2176224482677218,0
1679,-1.4427523831591416,0
1680,-1.0012236521677291,0
1681,2.387086216728501,0
1682,5.462938601985478,0
1683,-2.1164028507560477,0
1684,-3.0092014795220523,0
1685,0.24135324583301054,0
1686,-2.038149462675024,0
1687,-1.069001689542121,0
1688,-1.4748086755859584,0
1689,-1.2970136217509745,0
1690,-1.3762104196576446,0
1691,-1.3775794246411277,0
1692,-1.3976918945077799,0
1693,-1.160954165434899,0
1694,-1.3515827044183604,0
1695,-1.2065801067509856,0
1696,-1.2416678691168337,0
1697,-1.3274508139511891,0
1698,-1.493366494088066,0
1699,-1.3485575665537666,0
1700,-0.8171486893227137,0
1701,2.520541970756808,0
1702,5.481576893141471,0
1703,-2.0786873662063075,0
1704,-2.9988491410631166,0
1705,0.026028342908870572,0
1706,-2.140234810030678,0
1707,-1.1223365967682686,0
1708,-1.2581558749650037,0
1709,-1.2223045755032544,0
1710,-1.3152068138450637,0
1711,-1.3225969222048104,0
1712,-1.3102924675829781,0
1713,-1.453300491618115,0
1714,-1.3089725621811221,0
1715,-1.2953822599305373,0
1716,-1.3413177980209163,0
1717,-1.405842708970581,0
1718,-1.422058309793715,0
1719,-1.350273802944364,0
1720,-0.8564290430688786,0
1721,2.5143184283372855,0
1722,5.464145661877828,0
1723,-1.891449212598361,0
1724,-2.9433849195825514,0
1725,0.06566967287775083,0
1726,-2.033614117433441,0
1727,-1.2063283603033936,0
1728,-1.3745171720473954,0
1729,-1.3888156027845668,0
1730,-1.320961129098687,0
1731,-1.2280558761870128,0
1732,-1.270103421512246,0
1733,-1.2316685942739365,0
1734,-1.2297967177262157,0
1735,-1.2531280546057646,0
1736,-1.200040894120268,0
1737,-1.1656389118604182,0
1738,-1.3244145909569656,0
1739,-1.262757414839932,0
1740,-0.8652674719977469,0
1741,2.5308573993020413,0
1742,5.408956248637881,0
1743,-2.0406144921083187,0
1744,-2.888879722826732,0
1745,0.20436372196033137,0
1746,-2.0484104596531676,0
1747,-1.2143913752508992,0
1748,-1.284080458719836,0
1749,-1.3555527380087204,0
1750,-1.268202222634248,0
1751,-1.3028574022359336,0
1752,-1.2234421163699076,0
1753,-1.3025679403788046,0
1754,-1.3665657019383737,0
1755,-1.2571645129142177,0
1756,-1.3236880707893182,0
1757,-1.355595635050116,0
1758,-1.318038655644014,0
1759,-1.3520521045990828,0
1760,-1.031875450211759,0
1761,2.45315889250949,0
1762,5.457393724591959,0
1763,-2.0524695760065574,0
1764,-2.926225305733114,0
1765,0.14335571521825718,0
1766,-1.9537137676994483,0
1767,-1.0725371150463792,0
1768,-1.2694399071615337,0
1769,-1.3836317993715364,0
1770,-1.222302423850833,0
1771,-1.363842304256432,0
1772,-1.3044317607455316,0
1773,-1.177764513459357,0
1774,-1.262607677769962,0
1775,-1.3939349067300693,0
1776,-1.3491390778895174,0
1777,-1.2370140794429503,0
1778,-1.3608647902354103,0
1779,-1.3174755242806164,0
1780,-0.8434654858465205,0
1781,2.52348951603868,0
1782,5.504649730388754,0
1783,-2.0432159775120824,0
1784,-2.9993911447487545,0
1785,0.24953063038974066,0
1786,-2.0324643005067924,0
1787,-1.0289891572044867,0
1788,-1.253065674866824,0
1789,-1.4361649184376364,0
1790,-1.3638114966262158,0
1791,-1.4379669831660398,0
1792,-1.3426131070619687,0
1793,-1.3955883657290606,0
1794,-1.417936706497059,0
1795,-1.319037784716433,0
1796,-1.3850323625543755,0
1797,-1.4022389450323878,0
1798,-1.339884333510385,0
1799,-1.3756996295686876,0
1800,-0.9071418385127372,0
1801,2.5018358617676943,0
1802,5.545970428459457,0
1803,-1.9813848607770648,0
1804,-2.941554677846229,0
1805,0.17861211509558372,0
1806,-1.9867416832458151,0
1807,-1.1261025137431786,0
1808,-1.3306836182161783,0
1809,-1.2418592390171495,0
1810,-1.3283925893389126,0
1811,-1.2022206808522515,0
1812,-1.234132852266721,0
1813,-1.4493451172320257,0
1814,-1.3914578769121055,0
1815,-1.3521076059506627,0
1816,-1.4076695381256092,0
1817,-1.2306983958924322,0
1818,-1.2906833853666941,0
1819,-1.270478539050462,0
1820,-0.9348800754005491,0
1821,2.5787654405748497,0
1822,5.512803935586473,0
1823,-1.9788269579598718,0
1824,-2.9470750168740656,0
1825,0.27846040103565173,0
1826,-2.1582531253670068,0
1827,-1.1335321502094922,0
1828,-1.3248193643822346,0
1829,-1.2402387538712751,0
1830,-1.303390426647326,0
1831,-1.265202006844184,0
1832,-1.437997891667936,0
1833,-1.3899613880067352,0
1834,-1.1930497526287545,0
1835,-1.3449424999781048,0
1836,-1.2749090816009083,0
1837,-1.3117355680528826,0
1838,-1.256292493962199,0
1839,-1.3326718420475518,0
1840,-1.0868599121711116,0
1841,2.5510158933247977,0
1842,5.4551029624608205,0
1843,-2.1653654339809236,0
1844,-2.9112474807153323,0
1845,0.20277787389609236,0
1846,-2.100997969333502,0
1847,-1.0302158189216548,0
1848,-1.396736112606357,0
1849,-1.3796680359585884,0
1850,-1.346091278035434,0
1851,-1.4030829812122612,0
1852,-1.4130264614120918,0
1853,-1.321900918654587,0
1854,-1.0920351185692356,0
1855,-1.320080066814356,0
1856,-1.2128980461972387,0
1857,-1.3636081463157688,0
1858,-1.130272129897169,0
1859,-1.2641985618022555,0
1860,-0.9512877217073312,0
1861,2.4779778108894037,0
1862,5.547415668446316,0
1863,-1.9483931014690887,0
1864,-2.7592556020027263,0
1865,0.3343957275284344,0
1866,-1.9138918191608083,0
1867,-0.974038660574136,0
1868,-1.2063069068668484,0
1869,-1.2926979482505447,0
1870,-1.1092978135873102,0
1871,-1.2736408718870482,0
1872,-1.2307911461016499,0
1873,-1.183155495613785,0
1874,-1.322439971035032,0
1875,-1.2186221084618478,0
1876,-1.2787794785269608,0
1877,-1.2292224984208555,0
1878,-1.2405739482763813,0
1879,-1.2652049964176424,0
1880,-1.00067971015235,0
1881,2.498924772644772,0
1882,5.41145227547728,0
1883,-2.2748202795037744,0
1884,-3.0439914936066543,0
1885,0.11923789516096228,0
1886,-1.9630675510617124,0
1887,-0.9887820611320796,0
1888,-1.3292968291789071,0
1889,-1.3477119850483807,0
1890,-1.2845376511131268,0
1891,-1.3382424022303498,0
1892,-1.2581920001845908,0
1893,-1.2362255993714635,0
1894,-1.265402076124051,0
1895,-1.2593107719138024,0
1896,-1.2893152982846978,0
1897,-1.2698169515910869,0
1898,-1.314614191381604,0
1899,-1.2210283382608575,0
1900,-0.9451603073933192,0
1901,2.4784236632225185,0
1902,5.506417634895016,0
1903,-2.1092863845460927,0
1904,-2.942589287059128,0
1905,0.16785257532477682,0
1906,-2.0244092313498183,0
1907,-1.0977688728723396,0
1908,-1.1239973149296747,0
1909,-1.3699181042078181,0
1910,-1.2376190342598365,0
1911,-1.3215915672991179,0
1912,-1.1532092717094247,0
1913,-1.2126260806732214,0
1914,-1.2460851095559593,0
1915,-1.2880051247807203,0
1916,-1.1475133797662886,0
1917,-1.3133705106929654,0
1918,-1.2262231845623175,0
1919,-1.3212112006772005,0
1920,-0.8973981031282232,0
1921,2.404395856924797,0
1922,5.333648053281056,0
1923,-2.068776041518129,0
1924,-2.9536568781745762,0
1925,0.23927515253135812,0
1926,-1.9638208299207496,0
1927,-1.144713197736651,0
1928,-1.2813672072618274,0
1929,-1.3351818305064291,0
1930,-1.3143611832913495,0
1931,-1.15686864333225,0
1932,-1.145187965087544,0
1933,-1.2739241345660937,0
1934,-1.3369189692820684,0
1935,-1.2488109368353753,0
1936,-1.3340212682505797,0
1937,-1.0688428491505817,0
1938,-1.253867564302064,0
1939,-1.2076697287232538,0
1940,-0.9386368752246166,0
1941,2.657033229796724,0
1942,5.3654677627093985,0
1943,-2.0597072958363016,0
1944,-3.0105123953839557,0
1945,0.2939716911180259,0
1946,-2.089210357924165,0
1947,-1.0797849769876842,0
1948,-1.3848232111108811,0
1949,-1.2047452720637133,0
1950,-1.2778927953525054,0
1951,-1.3209647355177727,0
1952,-1.2392969298148298,0
1953,-1.2990111361217702,0
1954,-1.3990794156318105,0
1955,-1.2190706039274344,0
1956,-1.2531556677628142,0
1957,-1.4384782868006571,0
1958,-1.3021302463939595,0
1959,-1.2530476084669178,0
1960,-0.9081684785168272,0
1961,2.4902817425358057,0
1962,5.439352503369121,0
1963,-2.0284911816582993,0
1964,-2.9491261869404473,0
1965,0.031172731592250758,0
1966,-1.9527343165332995,0
1967,-1.020403776942816,0
1968,-1.297804135751174,0
1969,-1.353718075046221,0
1970,-1.2621588231629706,0
1971,-1.2326760030403467,0
1972,-1.2580087548098127,0
1973,-1.1120273198853812,0
1974,-1.2725048688150074,0
1975,-1.2335653145442933,0
1976,-1.308739138830658,0
1977,-1.3512154921828687,0
1978,-1.235327583375432,0
1979,-1.2470228035020476,0
1980,-0.9377695603007682,0
1981,2.617375643410054,0
1982,5.486243629901574,0
1983,-2.017079756990004,0
1984,-2.9992599300200142,0
1985,0.22427323901459628,0
1986,-2.0389444558404115,0
1987,-1.0018460487527987,0
1988,-1.150908939041502,0
1989,-1.2131661424280944,0
1990,-1.157013690070967,0
1991,-1.1944086049242386,0
1992,-1.1610979065703166,0
1993,-1.370018316977857,0
1994,-1.3351745079250201,0
1995,-1.2789448871720954,0
1996,-1.211478190521717,0
1997,-1.2373131265976915,0
1998,-1.2841814652087908,0
1999,-1.2588964072206479,0
2000,-0.8038641845174512,0
2001,2.5633423010386625,0
2002,5.5895140877989125,0
2003,-2.032363128337517,0
2004,-2.8495495941842357,0
2005,0.18486551342868007,0
2006,-1.927543773882286,0
2007,-1.0125324994961604,0
2008,-1.1816943090502512,0
2009,-1.4021240760678442,0
2010,-1.0990378062280293,0
2011,-1.0938012412195457,0
2012,-1.142755237513117,0
2013,-1.069713630738132,0
2014,-1.257092334842553,0
2015,-1.1971001647160238,0
2016,-1.2295660699639026,0
2017,-1.1694188852290197,0
2018,-1.2947017268059229,0
2019,-1.1827074289516935,0
2020,-0.9765495356773597,0
2021,2.583511432796031,0
2022,5.381701553176081,0
2023,-1.9003851659890456,0
2024,-2.846333943053394,0
2025,0.14522202067062984,0
2026,-2.0347173015754128,0
2027,-1.199620946744564,0
2028,-1.2532055712410575,0
2029,-1.2097565653649012,0
2030,-1.1666249787851186,0
2031,-1.2662260652720716,0
2032,-1.111868650021665,0
2033,-1.2198879908780549,0
2034,-1.2853587208693968,0
2035,-1.1057617322763929,0
2036,-1.1336747381572967,0
2037,-1.2768437650945368,0
2038,-1.183098592329114,0
2039,-1.2359766608366183,0
2040,-0.6744003273538519,0
2041,2.602536272979389,0
2042,5.488618473056896,0
2043,-2.0384153400461043,0
2044,-2.7706117160268295,0
2045,0.15279633131732084,0
2046,-1.959216733521699,0
2047,-1.0102675123480236,0
2048,-1.23175750085666,0
2049,-1.3199649453806375,0
2050,-1.2760119391688656,0
2051,-1.4392916622433467,0
2052,-1.172561403458178,0
2053,-1.2720019792507034,0
2054,-1.1755022590823465,0
2055,-1.3079183821139775,0
2056,-1.2484682534242477,0
2057,-1.2310059305483059,0
2058,-1.3588602275888173,0
2059,-1.3353825871525329,0
2060,-0.8902732985577395,0
2061,2.692846558994571,0
2062,5.558122701952635,0
2063,-1.9652353272290215,0
2064,-2.75254155524169,0
2065,0.266260663350371,0
2066,-2.0518860236384797,0
2067,-0.94398017549766,0
2068,-1.1716045597277631,0
2069,-1.187534997089943,0
2070,-1.0610637530008893,0
2071,-1.2225629626895893,0
2072,-1.2195275291185985,0
2073,-1.2252590951620024,0
2074,-1.2805143847924643,0
2075,-1.1993410197624819,0
2076,-1.2049985024609076,0
2077,-1.183593434229125,0
2078,-1.3411817468019116,0
2079,-1.2427571124713686,0
2080,-0.7788622580359037,0
2081,2.5812669275485787,0
2082,5.4429548564918555,0
2083,-1.9763779227118325,0
2084,-2.7508559330551288,0
2085,0.4393248808012449,0
2086,-1.8845267225045528,0
2087,-0.9653630132972357,0
2088,-1.1147480246018369,0
2089,-1.1197158606299233,0
2090,-1.104680112032355,0
2091,-1.2808310684580393,0
2092,-1.2277884431438686,0
2093,-1.090082379467564,0
2094,-1.1393293287408672,0
2095,-1.237948000291176,0
2096,-1.1130213828662339,0
2097,-1.190064951955154,0
2098,-1.0929427714186906,0
2099,-1.109667637564126,0
2100,-0.9154023823247069,0
2101,2.616240129126524,0
2102,5.505212145964998,0
2103,-1.9668137695833292,0
2104,-2.7993444373576017,0
2105,0.3184834667876213,0
2106,-1.9829984185986562,0
2107,-0.9333799628372084,0
2108,-1.1057636348882942,0
2109,-1.158433807600757,0
2110,-1.2251649355229104,0
2111,-1.1233175170218994,0
2112,-1.139611210020489,0
2113,-1.332072971501025,0
2114,-1.1460356537403285,0
2115,-1.2303346159208597,0
2116,-1.2357951592506053,0
2117,-1.1022611421858735,0
2118,-1.0917362905759027,0
2119,-1.0670241057458796,0
2120,-0.8723516894694907,0
2121,2.7515959259966367,0
2122,5.636826264765412,0
2123,-2.060582430858296,0
2124,-2.7115209207038324,0
2125,0.2547612100491401,0
2126,-1.8655788073390203,0
2127,-0.9024696567273163,0
2128,-1.143393629939347,0
2129,-1.2537964584793053,0
2130,-1.1482047616630473,0
2131,-1.2389101500766215,0
2132,-1.2144245830303444,0
2133,-1.3027560099695241,0
2134,-1.276827737932393,0
2135,-1.1835840347777309,0
2136,-1.1140084802594925,0
2137,-1.1979459236642354,0
2138,-1.289413416041444,0
2139,-1.1911443878727694,0
2140,-0.7181902040750531,0
2141,2.6554539401060113,0
2142,5.475285103162416,0
2143,-2.0411730730370423,0
2144,-2.7480539559772703,0
2145,0.29635184805477355,0
2146,-1.8213237025664386,0
2147,-0.9297046078520446,0
2148,-1.2344676096773537,0
2149,-1.1902677838262101,0
2150,-1.0862707669269789,0
2151,-1.2209539308131063,0
2152,-1.0705242674898152,0
2153,-1.1575760164471025,0
2154,-1.0781636942010262,0
2155,-1.1505531394708959,0
2156,-1.2051679111212608,0
2157,-1.0859684992820269,0
2158,-1.0558549721063706,0
2159,-1.1140214360710003,0
2160,-1.0016063170633782,0
2161,2.694321846593863,0
2162,5.574274884896823,0
2163,-2.0565985857131723,0
2164,-2.7888698946754946,0
2165,0.4585212043387703,0
2166,-1.7808999351062673,0
2167,-0.924408019009328,0
2168,-1.1591684265801354,0
2169,-1.1489162647008935,0
2170,-1.0925911110480875,0
2171,-1.2232875306071582,0
2172,-1.1580862127308729,0
2173,-1.0691955270770863,0
2174,-1.0720069188319308,0
2175,-1.1437829205079038,0
2176,-1.1295575397648192,0
2177,-1.2609419047855397,0
2178,-1.073490594598963,0
2179,-1.160088432967167,0
2180,-0.712353820524944,0
2181,2.7331674642695942,0
2182,5.6577585960512815,0
2183,-2.0160920980603683,0
2184,-2.6862057021078782,0
2185,0.44487040811103973,0
2186,-2.003002174559994,0
2187,-0.8943196307004658,0
2188,-1.1881387356725521,0
2189,-1.150117659615789,0
2190,-1.160848578409653,0
2191,-1.1599451363426967,0
2192,-1.0595809660546085,0
2193,-1.182320394664357,0
2194,-1.1949136403408442,0
2195,-1.1171599545169077,0
2196,-1.122556048049702,0
2197,-1.222738542668749,0
2198,-1.2173021480884338,0
2199,-1.0717795015069256,0
2200,-0.8909393569234496,0
2201,2.8037716569089888,0
2202,5.5627368782681375,0
2203,-1.9061014150117543,0
2204,-2.7202909688044015,0
2205,0.3731340501602203,0
2206,-1.926128213018349,0
2207,-0.8621902940345224,0
2208,-1.070657027456915,0
2209,-1.0734855294601648,0
2210,-0.9210459666698576,0
2211,-1.135357542794741,0
2212,-1.154170753844865,0
2213,-1.1317547874623812,0
2214,-1.1123307837761458,0
2215,-1.0589923777761883,0
2216,-1.064190339201038,0
2217,-1.155793012321341,0
2218,-0.9783118198047954,0
2219,-1.0715494587869776,0
2220,-0.7557582733090102,0
2221,2.7489407754507735,0
2222,5.690309853259977,0
2223,-1.9775652937519794,0
2224,-2.6033278643521283,0
2225,0.4070499320163017,0
2226,-1.9192228447313844,0
2227,-0.9046901740232077,0
2228,-1.1741787295220376,0
2229,-1.0562716651535762,0
2230,-1.0134994522205405,0
2231,-1.0063605481517455,0
2232,-1.1413175263662212,0
2233,-1.165074012909742,0
2234,-1.0900851561855667,0
2235,-1.167140947854996,0
2236,-1.085217384135548,0
2237,-1.0539528703968348,0
2238,-1.1062982944054107,0
2239,-0.9800898146474588,0
2240,-0.5901291589398133,0
2241,2.921590940231841,0
2242,5.610806231156369,0
2243,-1.9167155804696607,0
2244,-2.700096140824896,0
2245,0.33363947770317126,0
2246,-1.7979665134350218,0
2247,-0.7832379457714946,0
2248,-1.0845131684698477,0
2249,-1.044654362995981,0
2250,-1.038264361579607,0
2251,-1.0545153370780054,0
2252,-1.011612810114002,0
2253,-1.123306680120387,0
2254,-1.0271605235325176,0
2255,-1.067719498970267,0
2256,-1.1191037947132416,0
2257,-1.0723115246584924,0
2258,-1.0863228433387098,0
2259,-1.1645255624237854,0
2260,-0.7168405529539323,0
2261,2.795469838672109,0
2262,5.559038586778142,0
2263,-1.9855291814337566,0
2264,-2.8466949647523982,0
2265,0.24189418759124304,0
2266,-1.8878924206227061,0
2267,-1.0510504907630225,0
2268,-1.1587455594353018,0
2269,-1.1071391245076032,0
2270,-0.9879977190302386,0
2271,-0.976432311342604,0
2272,-1.1847362613764436,0
2273,-1.0783587251693276,0
2274,-1.105850112845624,0
2275,-1.0689529757252396,0
2276,-1.0249654882218957,0
2277,-1.0362677712428063,0
2278,-1.078670726272592,0
2279,-1.1348932974054347,0
2280,-0.7219161148716633,0
2281,2.734267043367027,0
2282,5.7104472037173295,0
2283,-1.9531225927826372,0
2284,-2.704982566329008,0
2285,0.3242297008643351,0
2286,-1.914400241357741,0
2287,-0.87142602960848,0
2288,-1.03245746103415,0
2289,-1.1319814624369045,0
2290,-0.9777677781477351,0
2291,-1.0752874506323038,0
2292,-1.1082676733504508,0
2293,-1.085463800791988,0
2294,-1.049838679916676,0
2295,-1.0770325583511835,0
2296,-1.0786927337510108,0
2297,-0.9666018760901031,0
2298,-1.1128788992450733,0
2299,-0.9931567642588214,0
2300,-0.6745638744336002,0
2301,2.8492118162894404,0
2302,5.745891877364221,0
2303,-1.9324040381733738,0
2304,-2.5652367535410403,0
2305,0.5402474660040977,0
2306,-1.782227986269576,0
2307,-0.8905503451113259,0
2308,-1.0221806540598162,0
2309,-1.116004228301028,0
2310,-1.034289135740899,0
2311,-1.0639487827887268,0
2312,-1.1035379944327302,0
2313,-1.0091808849611854,0
2314,-1.1030242554185665,0
2315,-1.060861755200452,0
2316,-0.9939771602592842,0
2317,-1.049948125367607,0
2318,-0.9967257597892915,0
2319,-1.1428508837009799,0
2320,-0.6803608525610606,0
2321,2.856282352797586,0
2322,5.737356053347301,0
2323,-1.9832761428755636,0
2324,-2.645434158582491,0
2325,0.451943510283326,0
2326,-1.7796826284747351,0
2327,-0.9044858926418271,0
2328,-1.0573534641343127,0
2329,-1.1142662308020053,0
2330,-0.9916215916093456,0
2331,-1.06387665250376,0
2332,-1.0312060812719352,0
2333,-0.9773457144743298,0
2334,-1.0274328272733932,0
2335,-0.9684703331613361,0
2336,-1.1502862636517825,0
2337,-0.9854899653889756,0
2338,-1.0641814968146175,0
2339,-1.094379566968979,0
2340,-0.6529248744405786,0
2341,2.85586851848747,0
2342,5.581661809771263,0
2343,-1.9083298805905153,0
2344,-2.525115855052652,0
2345,0.3746987044290111,0
2346,-1.9394262958113981,0
2347,-0.835176118104941,0
2348,-1.111964955603864,0
2349,-1.0270462696566123,0
2350,-0.9250597603038062,0
2351,-1.0036166389845524,0
2352,-1.029278894353463,0
2353,-1.0939492250978957,0
2354,-1.0204556135190177,0
2355,-1.0101672389734662,0
2356,-1.0550702516219612,0
2357,-1.0202051217244457,0
2358,-1.0243241321143206,0
2359,-1.151640901929416,0
2360,-0.786227640008888,0
2361,2.841554960391298,0
2362,5.776719096217782,0
2363,-1.9012590511772092,0
2364,-2.5481417434372062,0
2365,0.3672245698997947,0
2366,-1.7678409117696008,0
2367,-0.815985222797466,0
2368,-1.1448076200931665,0
2369,-1.0841934295419793,0
2370,-0.9175758778293569,0
2371,-1.087230041739016,0
2372,-1.0677174514694792,0
2373,-1.0845874445606514,0
2374,-1.1323477981035235,0
2375,-1.0223190917008542,0
2376,-0.9769487992186784,0
2377,-1.0819467157733336,0
2378,-1.0787721108327426,0
2379,-1.0211291380316105,0
2380,-0.6900580200905997,0
2381,2.9578308094850625,0
2382,5.670733599743302,0
2383,-2.016808116098301,0
2384,-2.6079125770862315,0
2385,0.4759739788098145,0
2386,-1.8711041481369493,0
2387,-0.8812237803946252,0
2388,-1.1873633519444455,0
2389,-1.0510882765966363,0
2390,-1.0101595788188649,0
2391,-1.0993512218977193,0
2392,-0.995807846417494,0
2393,-1.0438524815063097,0
2394,-1.0502105876091032,0
2395,-0.9920593620270076,0
2396,-1.0339806814935917,0
2397,-0.9934958771513642,0
2398,-0.9066872323462946,0
2399,-1.0185174490131255,0
2400,-0.6085202381372775,0
2401,2.81960885068857,0
2402,5.756996276803972,0
2403,-1.9983923127070944,0
2404,-2.5884671372038204,0
2405,0.48184516093069707,0
2406,-1.7295326460634532,0
2407,-0.9033924328209316,0
2408,-1.1282575959986825,0
2409,-1.1200761973537234,0
2410,-0.9127036219846155,0
2411,-0.9980950477066016,0
2412,-1.0969293688679636,0
2413,-1.1476122456843956,0
2414,-1.0249171274299158,0
2415,-0.9167135971659777,0
2416,-1.0257852730424275,0
2417,-0.9765239611610766,0
2418,-1.0437430508803551,0
2419,-1.0344889986262051,0
2420,-0.6674667678033019,0
2421,2.977800385902859,0
2422,5.675267417857917,0
2423,-1.945013313960823,0
2424,-2.644992695357589,0
2425,0.5635921357030449,0
2426,-1.8216085532213224,0
2427,-0.7678717926281498,0
2428,-1.0694459785690726,0
2429,-1.0689031400159925,0
2430,-0.9585424399718956,0
2431,-1.1359942299378287,0
2432,-0.9777138727002955,0
2433,-1.0214871100118181,0
2434,-0.9930719492893431,0
2435,-1.0413474823844502,0
2436,-0.9034900081673215,0
2437,-1.0001034550330017,0
2438,-1.0728543680755684,0
2439,-1.0075865291582315,0
2440,-0.5821345205564001,0
2441,2.892027416970602,0
2442,5.531171033803196,0
2443,-2.0411929984740467,0
2444,-2.6079303732907606,0
2445,0.37641304869925096,0
2446,-1.8368606742224942,0
2447,-0.7118264004069859,0
2448,-1.1069636282307307,0
2449,-1.103285872679113,0
2450,-1.0758273040953101,0
2451,-1.0506819734469273,0
2452,-1.0207402358311473,0
2453,-1.0985910368264185,0
2454,-1.1029069072174715,0
2455,-1.0672939256681078,0
2456,-1.0328209175591505,0
2457,-1.0577674470869536,0
2458,-0.9399093273081051,0
2459,-1.0295544230231395,0
2460,-0.5203324629267172,0
2461,2.8351651772072177,0
2462,5.716281832684211,0
2463,-1.9774135118338578,0
2464,-2.5635133487005426,0
2465,0.39302157730035203,0
2466,-1.902022567705264,0
2467,-0.7651516273202844,0
2468,-1.0260532559556683,0
2469,-1.0768640783914094,0
2470,-0.9841406977936976,0
2471,-0.955738996991909,0
2472,-1.0128333587113523,0
2473,-0.9380636017566685,0
2474,-0.9088363672885698,0
2475,-1.035912582883571,0
2476,-1.0060407696642224,0
2477,-0.9172408433887055,0
2478,-0.9556241839964914,0
2479,-1.1172659545124917,0
2480,-0.6489468409250293,0
2481,2.92202450367417,0
2482,5.503549050649813,0
2483,-1.9393529193461267,0
2484,-2.44913534823172,0
2485,0.42004491504514974,0
2486,-1.6746703929028923,0
2487,-0.9301654039629024,0
2488,-0.9204910777771017,0
2489,-0.9832548554880884,0
2490,-0.9912906397133809,0
2491,-0.9706755694895816,0
2492,-1.1683952224583636,0
2493,-1.1188601186488347,0
2494,-0.9674089770406762,0
2495,-1.0166812966119068,0
2496,-1.0692999891355772,0
2497,-1.0836076609267657,0
2498,-0.8793432709575184,0
2499,-1.07473806568347,0
2500,-0.6884884294034985,0
2501,2.8476852073121126,0
2502,5.64859813952043,0
2503,-2.0025641667603855,0
2504,-2.498090319550453,0
2505,0.4482595069565738,0
2506,-1.8328568411286925,0
2507,-0.8394144027260061,0
2508,-1.0347123480047338,0
2509,-1.0621932845067892,0
2510,-0.9376427506921338,0
2511,-1.2039583885966618,0
2512,-1.0134687644940223,0
2513,-0.9966346903787212,0
2514,-1.0457640754449977,0
2515,-1.071279423337447,0
2516,-0.9299748663349451,0
2517,-1.044641106674908,0
2518,-1.0905577526039345,0
2519,-0.9886050716874748,0
2520,-0.5441747393631029,0
2521,2.871730324244469,0
2522,5.672260115137818,0
2523,-1.9502810503083912,0
2524,-2.596073764459973,0
2525,0.4511788477107326,0
2526,-1.8224446288915437,0
2527,-0.8453614857147458,0
2528,-0.9511378861878611,0
2529,-1.0157995451586597,0
2530,-1.0535149047541756,0
2531,-0.8950592992805632,0
2532,-1.0290088290564416,0
2533,-1.0644723689992401,0
2534,-1.0443433719800121,0
2535,-0.851493646378989,0
2536,-0.9881883649776373,0
2537,-1.053104471514918,0
2538,-0.9401379096449021,0
2539,-0.9873262292264023,0
2540,-0.5897212158920964,0
2541,2.9938576970996604,0
2542,5.670782574839503,0
2543,-2.0133550934821787,0
2544,-2.517765997933936,0
2545,0.4979151325705006,0
2546,-1.8103830923573585,0
2547,-0.6415781855447154,0
2548,-0.9935624068737399,0
2549,-0.9494724448000885,0
2550,-1.00917903531907,0
2551,-0.8809710656144325,0
2552,-1.1781398660333593,0
2553,-0.9829293650480428,0
2554,-1.0357754167427249,0
2555,-1.0084380995114515,0
2556,-0.9606623548958321,0
2557,-1.0312715174643856,0
2558,-1.008765771944725,0
2559,-0.9942457139491171,0
2560,-0.6704337811195781,0
2561,3.074069365902173,0
2562,5.701417653573342,0
2563,-1.9150434538091876,0
2564,-2.4880138619017513,0
2565,0.4960187500078068,0
2566,-1.7975178505409923,0
2567,-0.7524272968458311,0
2568,-0.9934345999217279,0
2569,-0.99221275427517,0
2570,-0.9507278283022468,0
2571,-0.9268272850560901,0
2572,-0.852394751622352,0
2573,-0.9116922020538705,0
2574,-1.0676025668118705,0
2575,-1.0126412808478298,0
2576,-0.9702593486192151,0
2577,-0.929127646502447,0
2578,-0.9557037714623078,0
2579,-0.9261179556329511,0
2580,-0.6856568619103862,0
2581,3.0186802016008256,0
2582,5.6986051544776135,0
2583,-1.7996244499234963,0
2584,-2.513127639802628,0
2585,0.5189929444467556,0
2586,-1.6599724632534525,0
2587,-0.7471696753306369,0
2588,-1.0935295563067222,0
2589,-1.073408636861962,0
2590,-0.878542537945467,0
2591,-0.9056404129916598,0
2592,-0.9826375740152152,0
2593,-0.9268041317381693,0
2594,-1.0136414895791328,0
2595,-0.9992963668141185,0
2596,-0.9644083555919588,0
2597,-1.0640591962223398,0
2598,-0.9742915227402542,0
2599,-0.9503821824053059,0
2600,-0.5938518988387894,0
2601,3.0131373472723544,0
2602,5.671908789475185,0
2603,-2.0314706694122093,0
2604,-2.4175593679212444,0
2605,0.4784847418331575,0
2606,-1.6167886323735423,0
2607,-0.6772829130432771,0
2608,-0.8720147002993157,0
2609,-1.1229081275230866,0
2610,-0.7942818736730276,0
2611,-0.9660563736526886,0
2612,-0.9765393837122991,0
2613,-0.8095608560882903,0
2614,-0.9127525558393179,0
2615,-0.9370633414582834,0
2616,-0.8862067328526033,0
2617,-1.0151106466084339,0
2618,-0.9789976435503482,0
2619,-0.8299725175282666,0
2620,-0.5013430915115846,0
2621,3.04312856494489,0
2622,5.635289566952101,0
2623,-1.8909417328091016,0
2624,-2.499295267177516,0
2625,0.5565984137524284,0
2626,-1.6895549404448533,0
2627,-0.9004174352192919,0
2628,-0.9990228052203497,0
2629,-0.9713830967649281,0
2630,-0.932021456462893,0
2631,-0.9328557450187337,0
2632,-0.9381431167940403,0
2633,-0.9543408207250931,0
2634,-0.9002395856796177,0
2635,-0.9192915537585679,0
2636,-0.8647634055704012,0
2637,-0.8021732959632623,0
2638,-1.0800557469735346,0
2639,-0.99918162104317,0
2640,-0.5206925343980982,0
2641,2.995412937166388,0
2642,5.619595971689309,0
2643,-1.984268123032661,0
2644,-2.445899157787286,0
2645,0.5362964744382781,0
2646,-1.5541936192851318,0
2647,-0.7158329681518594,0
2648,-0.9645082172434659,0
2649,-0.9249432421532855,0
2650,-0.9315531572373461,0
2651,-0.9128133702817628,0
2652,-0.8670336129311367,0
2653,-0.9610833354354018,0
2654,-0.8787774345596737,0
2655,-0.9132407805406294,0
2656,-1.0141655955123754,0
2657,-0.808796591051914,0
2658,-0.800219314228875,0
2659,-0.9593654309131423,0
2660,-0.5481732732215472,0
2661,2.9412459355568545,0
2662,5.647282064795397,0
2663,-1.9247065283304614,0
2664,-2.4233674777201077,0
2665,0.5921182713158625,0
2666,-1.6732556053783003,0
2667,-0.6399778059569539,0
2668,-1.002037095981928,0
2669,-0.8983355448947669,0
2670,-0.9277884711876324,0
2671,-0.9292513282869416,0
2672,-0.8933837979524563,0
2673,-0.8429232064977987,0
2674,-0.7637118589066322,0
2675,-0.8661040652702955,0
2676,-0.8249897791458047,0
2677,-0.8731185695647115,0
2678,-0.805552321145563,0
2679,-0.7420221728298895,0
2680,-0.5035073416269711,0
2681,3.0649783479557664,0
2682,5.750402060347511,0
2683,-1.7643273076270454,0
2684,-2.356990510664018,0
2685,0.5965836146760509,0
2686,-1.5857207896251067,0
2687,-0.643304060396005,0
2688,-0.8868628657273383,0
2689,-0.9091299391686329,0
2690,-1.0440431828007808,0
2691,-1.0811630668249606,0
2692,-0.9481232195779027,0
2693,-0.9437544318489519,0
2694,-0.9852651211836654,0
2695,-0.882234348931079,0
2696,-0.9296889889512504,0
2697,-0.9946217800195349,0
2698,-0.9374741322507366,0
2699,-0.9588564715903298,0
2700,-0.5602119038106033,0
2701,3.182354433999595,0
2702,5.696051200188204,0
2703,-1.8092967372285622,0
2704,-2.496300578311585,0
2705,0.5810764893021705,0
2706,-1.7017427521198905,0
2707,-0.6047921808663796,0
2708,-1.000309839442192,0
2709,-0.943372093041697,0
2710,-0.8592540694597505,0
2711,-0.976289437544195,0
2712,-1.0334595036988163,0
2713,-0.9130885927023435,0
2714,-1.0054757779864851,0
2715,-1.115396982040856,0
2716,-0.9928908334606205,0
2717,-0.7094334492274905,0
2718,-0.9568458035276172,0
2719,-1.0393578444275868,0
2720,-0.55232298858044,0
2721,3.104709841740066,0
2722,5.81234574976357,0
2723,-1.783925330540938,0
2724,-2.332591722572842,0
2725,0.48749294192213877,0
2726,-1.7500006927695944,0
2727,-0.6895762798566722,0
2728,-0.8031614764662478,0
2729,-0.8684980267731627,0
2730,-0.8982862724457079,0
2731,-0.8604273220889342,0
2732,-0.9191707226324153,0
2733,-0.7877757666242594,0
2734,-0.861840178717769,0
2735,-0.8584041852279531,0
2736,-0.8359770518251696,0
2737,-0.9015109615228871,0
2738,-0.7963800428598397,0
2739,-0.9376733244386353,0
2740,-0.44697681275629764,0
2741,3.111374786677332,0
2742,5.826658756481445,0
2743,-1.9521309760281036,0
2744,-2.4075857015708353,0
2745,0.4667511474187337,0
2746,-1.8210480763093306,0
2747,-0.7372494234979945,0
2748,-0.8944089935746868,0
2749,-0.8776060378347035,0
2750,-0.9150495969985472,0
2751,-0.9422264964799485,0
2752,-0.9153083346349563,0
2753,-0.8739686077996114,0
2754,-1.0572452647416546,0
2755,-0.9815858688290158,0
2756,-0.8686073722871549,0
2757,-0.9323199178044996,0
2758,-0.7512011226164648,0
2759,-0.8408598154772329,0
2760,-0.4597310528317765,0
2761,3.244163423272828,0
2762,5.790055282668181,0
2763,-1.914533674194046,0
2764,-2.4861760843752823,0
2765,0.5190035128646785,0
2766,-1.6194176344046822,0
2767,-0.6941019404019622,0
2768,-0.8777055005774054,0
2769,-0.9496878954063882,0
2770,-0.7939370570246229,0
2771,-0.8614274748380063,0
2772,-0.8145881553492175,0
2773,-0.9495178441825591,0
2774,-0.864021877685953,0
2775,-0.8927339986998564,0
2776,-0.9444392855368335,0
2777,-0.7996504644310659,0
2778,-0.8346301098842277,0
2779,-0.8838706528762541,0
2780,-0.4434031759712127,0
2781,3.0589281464365357,0
2782,5.888600649910671,0
2783,-1.8664076087825026,0
2784,-2.348595999068746,0
2785,0.649247118166279,0
2786,-1.5970712937038138,0
2787,-0.6882292244478603,0
2788,-0.8884890090524976,0
2789,-0.9475361811982529,0
2790,-0.7969230174433526,0
2791,-0.7635919606873645,0
2792,-0.9039329272370332,0
2793,-0.8034878852435988,0
2794,-0.9424217773596317,0
2795,-0.8519064000514341,0
2796,-0.8096698926998428,0
2797,-0.8266730893357225,0
2798,-0.8178001942877617,0
2799,-0.8257174522305041,0
2800,-0.5399262732663533,0
2801,3.0770843600346405,0
2802,5.922502936543998,0
2803,-1.807162506306936,0
2804,-2.2133094263020827,0
2805,0.6927491869921886,0
2806,-1.6833981992709197,0
2807,-0.7371684341609206,0
2808,-0.9140741900639812,0
2809,-0.8020598635301145,0
2810,-0.7992780685278794,0
2811,-0.9147304166099058,0
2812,-0.8464907301373422,0
2813,-0.904889850978575,0
2814,-0.8335138546219921,0
2815,-1.0075874813675423,0
2816,-0.728236001330295,0
2817,-0.843160402454185,0
2818,-0.920947142356031,0
2819,-0.7586648026351651,0
2820,-0.4596416689623663,0
2821,3.165454003920879,0
2822,5.71668078890436,0
2823,-1.9435126779203844,0
2824,-2.282096508729949,0
2825,0.5269013137754267,0
2826,-1.5599808028608895,0
2827,-0.7051124600380044,0
2828,-1.0379160706038126,0
2829,-0.8695773614841261,0
2830,-0.9002871808414736,0
2831,-0.8118866251682856,0
2832,-0.887250667625184,0
2833,-0.9243037966780321,0
2834,-0.9887650811671232,0
2835,-0.8616149118667767,0
2836,-0.913482450743535,0
2837,-0.8641147348348313,0
2838,-0.9457960445056375,0
2839,-0.7752391760327858,0
2840,-0.5121202716140252,0
2841,3.051012124949301,0
2842,5.854528407749818,0
2843,-1.8982752911738792,0
2844,-2.251770206643216,0
2845,0.5737582796508987,0
2846,-1.6723720813716558,0
2847,-0.6032578620052987,0
2848,-0.7299681019495482,0
2849,-0.7778570333101986,0
2850,-0.8406515081162772,0
2851,-0.800948768941114,0
2852,-0.8395647151491236,0
2853,-0.9008032697625871,0
2854,-0.7486313867936982,0
2855,-0.835424339064773,0
2856,-0.8951502755734233,0
2857,-0.8990398250338935,0
2858,-0.7859735200980889,0
2859,-0.8255739262936491,0
2860,-0.42401633781670783,0
2861,3.0315512304233634,0
2862,5.686277359160007,0
2863,-1.8847845300825845,0
2864,-2.4084278997149973,0
2865,0.5008481896443595,0
2866,-1.5339769812766177,0
2867,-0.8067180415652467,0
2868,-0.7778230426463354,0
2869,-0.7789799532789794,0
2870,-0.8266124973162925,0
2871,-0.8126015880645088,0
2872,-0.8491479516515297,0
2873,-0.9250808406489596,0
2874,-0.8111849531258419,0
2875,-0.8286109043625417,0
2876,-0.9170367005551375,0
2877,-0.8125747584049771,0
2878,-0.7635344779889299,0
2879,-0.830451829916885,0
2880,-0.5039388444337375,0
2881,3.1146185431456455,0
2882,5.750025554020642,0
2883,-1.796624030136119,0
2884,-2.429170758196431,0
2885,0.49066147275558203,0
2886,-1.7479435328968926,0
2887,-0.6249094169357109,0
2888,-0.938707662486189,0
2889,-1.0004749504266655,0
2890,-0.7941236517458992,0
2891,-0.9354101482162622,0
2892,-0.8786458342561568,0
2893,-0.8193508864022954,0
2894,-0.9191469288129702,0
2895,-0.9301558977072925,0
2896,-0.7209914137172464,0
2897,-1.0018705526280978,0
2898,-0.8758737576213315,0
2899,-0.8858777110961618,0
2900,-0.5849480922929335,0
2901,3.1282564522587903,0
2902,5.774742975606835,0
2903,-1.9949640397268205,0
2904,-2.4447442729979896,0
2905,0.4645433908791827,0
2906,-1.6142865701576166,0
2907,-0.5006359086235678,0
2908,-0.8195858342973621,0
2909,-1.0272939502264897,0
2910,-0.8510995140633353,0
2911,-0.8689825214419619,0
2912,-0.9948781673737654,0
2913,-0.8467206724950553,0
2914,-0.859183063518928,0
2915,-0.8299141294503642,0
2916,-0.8810803643349255,0
2917,-0.8202811441547653,0
2918,-0.8578214188802028,0
2919,-0.8937486329619869,0
2920,-0.4555178968508272,0
2921,3.0838151306190493,0
2922,5.697617571767577,0
2923,-1.7364463262531484,0
2924,-2.369973094840127,0
2925,0.4511849498893439,0
2926,-1.704518821028611,0
2927,-0.5598692442025082,0
2928,-0.7868540645128996,0
2929,-0.951450443657449,0
2930,-0.8472418528183577,0
2931,-0.7984730453279808,0
2932,-0.9221907056158661,0
2933,-0.8604129847414456,0
2934,-0.9189283585749336,0
2935,-0.8108106893972766,0
2936,-0.910015097491071,0
2937,-0.6860230382073225,0
2938,-0.7718818052084748,0
2939,-0.7849503738806448,0
2940,-0.4914183662365908,0
2941,3.185241460070628,0
2942,5.941616158888196,0
2943,-1.9080840247486874,0
2944,-2.3782042304874436,0
2945,0.5094098576189582,0
2946,-1.671878098642364,0
2947,-0.613674000312406,0
2948,-0.6957960795082823,0
2949,-0.6908766540153269,0
2950,-0.716331902358057,0
2951,-0.9259441729606315,0
2952,-0.8347167869526505,0
2953,-0.8602617681750097,0
2954,-0.789992977771423,0
2955,-0.7125569045447531,0
2956,-0.8430611996548729,0
2957,-0.8504685890027126,0
2958,-0.8352596482714376,0
2959,-0.9422475540161835,0
2960,-0.40845709955971476,0
2961,3.161238129004449,0
2962,5.89853216388504,0
2963,-1.9195980218871462,0
2964,-2.383080471232276,0
2965,0.7202303299690034,0
2966,-1.6297736721546459,0
2967,-0.49319561113845245,0
2968,-0.8496742443791737,0
2969,-0.9957872204900717,0
2970,-0.6855130241118234,0
2971,-0.7924710895855941,0
2972,-0.8006266934464135,0
2973,-0.7408474312133415,0
2974,-0.8735093003159118,0
2975,-0.806102548524825,0
2976,-0.6822378145982907,0
2977,-0.8448463326369694,0
2978,-0.8641236899095756,0
2979,-0.9313940200771333,0
2980,-0.4121500436836116,0
2981,3.226418060005206,0
2982,5.849851249835957,0
2983,-1.7364330575241942,0
2984,-2.2642584944799022,0
2985,0.62103018807704,0
2986,-1.6434795460121734,0
2987,-0.6065396750570737,0
2988,-0.8983179313158571,0
2989,-0.7864027073294934,0
2990,-0.7523715015608856,0
2991,-0.7653182110948568,0
2992,-0.8686159272832201,0
2993,-0.7904397595008811,0
2994,-0.7868079176584785,0
2995,-0.8718933460025031,0
2996,-0.9384262948333001,0
2997,-0.7268745132184494,0
2998,-0.8410179153529167,0
2999,-0.9200157404566688,0
3000,-0.4110826719033037,0
3001,3.303028998838502,0
3002,5.824516558513441,0
3003,-1.9136331114157232,0
3004,-2.3055718715610207,0
3005,0.6188522620370617,0
3006,-1.6316275390079171,0
3007,-0.5787663063476794,0
3008,-0.8787937362185947,0
3009,-0.7326366035379246,0
3010,-0.7477383977087454,0
3011,-0.8390910023956023,0
3012,-0.7656073998515152,0
3013,-0.8585273731976443,0
3014,-0.6884540328690797,0
3015,-0.7547816473925265,0
3016,-0.8260360398169836,0
3017,-0.9781743432976137,0
3018,-0.8553062122619903,0
3019,-0.9015013852149687,0
3020,-0.4147407416216571,0
3021,3.29702517748788,0
3022,5.744546095792948,0
3023,-1.8284522925654545,0
3024,-2.333021640342956,0
3025,0.6104211420297497,0
3026,-1.6275746472564676,0
3027,-0.5071961842653122,0
3028,-0.7764673807971038,0
3029,-0.8090668305616587,0
3030,-0.7280364876321563,0
3031,-0.8550202757639502,0
3032,-0.6827976141256634,0
3033,-0.7673276597130017,0
3034,-0.8027726063443066,0
3035,-0.9209793470531065,0
3036,-0.7827559993373263,0
3037,-0.8195968671130435,0
3038,-0.7641777624626752,0
3039,-0.8747005887527854,0
3040,-0.33384754227135227,0
3041,3.2622430840421908,0
3042,5.880348856977479,0
3043,-1.8925285947144306,0
3044,-2.2269002112002685,0
3045,0.6009273387838854,0
3046,-1.5161667289775507,0
3047,-0.5204865886005375,0
3048,-0.8902457337817945,0
3049,-0.8133986650657472,0
3050,-0.7293921543596669,0
3051,-0.9235734401051632,0
3052,-0.8992212770769851,0
3053,-0.9232556350553947,0
3054,-0.9708785189484398,0
3055,-0.9041903978078304,0
3056,-0.9849595422653571,0
3057,-0.8788233335983362,0
3058,-0.8295471410020275,0
3059,-0.9040187691576234,0
3060,-0.3781149680705258,0
3061,3.288210519464404,0
3062,5.926667657248977,0
3063,-1.8055584572248335,0
3064,-2.1093405131078593,0
3065,0.7150596931783094,0
3066,-1.5727684409059912,0
3067,-0.6158890905363947,0
3068,-0.7334907238416999,0
3069,-0.7805121231247361,0
3070,-0.8370171072286373,0
3071,-0.747771665631723,0
3072,-0.8773738319580496,0
3073,-0.9292095519032872,0
3074,-0.7422655977118279,0
3075,-0.8048610734186946,0
3076,-0.8440930054638424,0
3077,-0.8287399290378631,0
3078,-0.7169481150961079,0
3079,-0.7586071141605886,0
3080,-0.42600888366444006,0
3081,3.16815455834656,0
3082,5.833208961298845,0
3083,-1.830904208343315,0
3084,-2.1585265815010297,0
3085,0.6535981870193419,0
3086,-1.5355088735592881,0
3087,-0.6941779354599762,0
3088,-0.7247757114215324,0
3089,-0.7713067384590353,0
3090,-0.7946975387433969,0
3091,-0.8464535533796622,0
3092,-0.8296632979632405,0
3093,-0.7981918567641698,0
3094,-0.743763206017673,0
3095,-0.8216415594590037,0
3096,-0.8513412456198803,0
3097,-0.7926203654258281,0
3098,-0.775410942629763,0
3099,-0.8360258520872028,0
3100,-0.33634009907531814,0
3101,3.2352914175431797,0
3102,5.801282980199543,0
3103,-1.8988221885732672,0
3104,-2.1966878553893436,0
3105,0.6504607242461463,0
3106,-1.613992165146589,0
3107,-0.4831422896946864,0
3108,-0.8589881993354078,0
3109,-0.8450852946505187,0
3110,-0.8184095787939164,0
3111,-0.7889197393950333,0
3112,-0.7075600813840741,0
3113,-0.7200367983419383,0
3114,-0.7736090705900938,0
3115,-0.9100796064343165,0
3116,-0.8145867190820795,0
3117,-0.7305322785421242,0
3118,-0.8109964507950764,0
3119,-0.7301874257582733,0
3120,-0.3329198892814762,0
3121,3.2110938900489674,0
3122,5.7524911535703245,0
3123,-1.822385103859276,0
3124,-2.271291717400709,0
3125,0.7368251756420934,0
3126,-1.630653917981957,0
3127,-0.6275050882949738,0
3128,-0.8608951312090943,0
3129,-0.8423747312184847,0
3130,-0.5903651657837199,0
3131,-0.7487295173281265,0
3132,-0.6965943865698423,0
3133,-0.7724169834866612,0
3134,-0.808687958526216,0
3135,-0.6845747414482329,0
3136,-0.8262658371955974,0
3137,-0.7552943756336671,0
3138,-0.8200297176755523,0
3139,-0.7958368566111017,0
3140,-0.33265231445385973,0
3141,3.3927799414141253,0
3142,5.862728592873999,0
3143,-1.834937643385277,0
3144,-2.1824579891485363,0
3145,0.6733997838456504,0
3146,-1.592070216480166,0
3147,-0.48229359361622137,0
3148,-0.7534853485025192,0
3149,-0.8185638192948447,0
3150,-0.6935896283868603,0
3151,-0.7914275531069167,0
3152,-0.8092209926568654,0
3153,-0.7320521659626297,0
3154,-0.6099561236422159,0
3155,-0.763760076271793,0
3156,-0.6723239614912604,0
3157,-0.7415553456203886,0
3158,-0.7696808244297407,0
3159,-0.7438510728831288,0
3160,-0.302767101780238,0
3161,3.2991062374694735,0
3162,5.769612096746232,0
3163,-1.810005319770077,0
3164,-2.1570580792614473,0
3165,0.8514324514297925,0
3166,-1.7844824822904921,0
3167,-0.5084875446823424,0
3168,-0.7302100174593799,0
3169,-0.5792967071947674,0
3170,-0.5748825078704853,0
3171,-0.8333416827120687,0
3172,-0.7501195686554553,0
3173,-0.8715588361072127,0
3174,-0.8051403449448312,0
3175,-0.7637812266170818,0
3176,-0.6952271433329996,0
3177,-0.8331047812554545,0
3178,-0.6896415437623327,0
3179,-0.7134572126680783,0
3180,-0.32681160986703456,0
3181,3.3385522259449725,0
3182,5.894599719610561,0
3183,-1.8812880549849442,0
3184,-2.149055926952185,0
3185,0.7438393952538775,0
3186,-1.6232636009038444,0
3187,-0.43478255487927586,0
3188,-0.7158767648839542,0
3189,-0.6089161866764722,0
3190,-0.6737824674434001,0
3191,-0.8182040701410122,0
3192,-0.821743607712218,0
3193,-0.6956293623537712,0
3194,-0.7673032619566633,0
3195,-0.7072535568523,0
3196,-0.7121617280477115,0
3197,-0.6673019497284554,0
3198,-0.7809117553960349,0
3199,-0.6472495503340262,0
3200,-0.31078045982104746,0
3201,3.315585758647276,0
3202,6.058996889127751,0
3203,-1.8403195321795391,0
3204,-2.2226174574719604,0
3205,0.7190603298796807,0
3206,-1.5788235759328622,0
3207,-0.43517162004080245,0
3208,-0.9397994465737458,0
3209,-0.6631408391001024,0
3210,-0.6631988895916888,0
3211,-0.7581539327254513,0
3212,-0.7931794610252816,0
3213,-0.7637389114508569,0
3214,-0.5645506564133577,0
3215,-0.7449782542093054,0
3216,-0.6758230772443571,0
3217,-0.7918619297383218,0
3218,-0.6742746172620477,0
3219,-0.8102026136994388,0
3220,-0.3146053581688155,0
3221,3.3645502746683777,0
3222,5.91122014472495,0
3223,-1.8780623713033555,0
3224,-1.9747318876897317,0
3225,0.6636563814766775,0
3226,-1.538199767587105,0
3227,-0.569413988336998,0
3228,-0.8519912675885443,0
3229,-0.7792870296909215,0
3230,-0.8337331601880624,0
3231,-0.7293189970312904,0
3232,-0.7140489133194258,0
3233,-0.7290992222329089,0
3234,-0.7788116844230308,0
3235,-0.726970679800676,0
3236,-0.7504403635426701,0
3237,-0.8537424857385582,0
3238,-0.6477067720347802,0
3239,-0.7405432237962543,0
3240,-0.23752088637301694,0
3241,3.366041633247627,0
3242,5.806701285743234,0
3243,-1.7575604033124583,0
3244,-2.1856615337382403,0
3245,0.7252651389626109,0
3246,-1.394148264530628,0
3247,-0.5434649467372141,0
3248,-0.6230987789610166,0
3249,-0.6853987896046676,0
3250,-0.6878718893032222,0
3251,-0.671254634998169,0
3252,-0.6991266290658448,0
3253,-0.7795570034856545,0
3254,-0.6478723097943601,0
3255,-0.8596143468734111,0
3256,-0.7453677401665764,0
3257,-0.7250366038487553,0
3258,-0.7448368386102372,0
3259,-0.7499836876754825,0
3260,-0.29585459991713214,0
3261,3.4026293080970023,0
3262,5.9194136860450435,0
3263,-1.8241458938019122,0
3264,-2.148991787491359,0
3265,0.7156492967241277,0
3266,-1.5564154405606287,0
3267,-0.5529292865119186,0
3268,-0.7351317288297045,0
3269,-0.8055100492601102,0
3270,-0.6368188493849536,0
3271,-0.7784394238367095,0
3272,-0.6717593209486914,0
3273,-0.68475132534297,0
3274,-0.6507470672647576,0
3275,-0.7875120957940905,0
3276,-0.7176244515148433,0
3277,-0.8127490448394162,0
3278,-0.7426072051744497,0
3279,-0.7758889560918487,0
3280,-0.26316420247467426,0
3281,3.404732838133552,0
3282,5.890606113891871,0
3283,-1.762775514754062,0
3284,-2.0037424166175164,0
3285,0.7202675560312571,0
3286,-1.469000081477128,0
3287,-0.5129085729165829,0
3288,-0.7461925967337742,0
3289,-0.7861516740208497,0
3290,-0.737739782638907,0
3291,-0.703695232967437,0
3292,-0.6022395221960406,0
3293,-0.6832448274803593,0
3294,-0.7351128690851659,0
3295,-0.6750380204784499,0
3296,-0.7958500237163078,0
3297,-0.6125976931597502,0
3298,-0.6925803656958586,0
3299,-0.5585048622990899,0
3300,-0.39192863175943166,0
3301,3.435035910271051,0
3302,5.791482465069227,0
3303,-1.7919637716737213,0
3304,-2.121026206282785,0
3305,0.7554974379758994,0
3306,-1.4772316835389196,0
3307,-0.44945051795659097,0
3308,-0.5962864553105016,0
3309,-0.7348032856739464,0
3310,-0.621308687284402,0
3311,-0.7058726599326729,0
3312,-0.8466570859814183,0
3313,-0.6638942571944417,0
3314,-0.7886829250176621,0
3315,-0.7958875117275875,0
3316,-0.8115593999513542,0
3317,-0.6754611003059531,0
3318,-0.805527250049069,0
3319,-0.6829287598536031,0
3320,-0.30673188505632715,0
3321,3.4541157894957104,0
3322,5.955949716948833,0
3323,-1.8676179405813982,0
3324,-2.1736849587900364,0
3325,0.7159360881822858,0
3326,-1.4317828097968173,0
3327,-0.49334029884891684,0
3328,-0.7559213799516467,0
3329,-0.8760418612647387,0
3330,-0.661083740981435,0
3331,-0.6593545385528914,0
3332,-0.7127636524895377,0
3333,-0.6672296536144785,0
3334,-0.7263388731359246,0
3335,-0.6981554970736129,0
3336,-0.631310826606419,0
3337,-0.6341425276130509,0
3338,-0.7228441113982205,0
3339,-0.618953088134338,0
3340,-0.2904790277354643,0
3341,3.4089117259485593,0
3342,5.965542422306888,0
3343,-1.7621739643890693,0
3344,-2.1033597380459885,0
3345,0.677567542517643,0
3346,-1.4339351489976813,0
3347,-0.5123918094104037,0
3348,-0.7082702305794907,0
3349,-0.8512991356431976,0
3350,-0.6839954424992927,0
3351,-0.6858690456480088,0
3352,-0.6749765411833358,0
3353,-0.7405975490881196,0
3354,-0.6706513163320159,0
3355,-0.6662048299284505,0
3356,-0.6832405496378215,0
3357,-0.727099686853896,0
3358,-0.558469426611539,0
3359,-0.6464608365305062,0
3360,-0.27123448751256574,0
3361,3.361360190506627,0
3362,6.0202255057972245,0
3363,-1.7802240083176333,0
3364,-1.9963218439717727,0
3365,0.7334491845668131,0
3366,-1.4568008442038862,0
3367,-0.4733875554375729,0
3368,-0.5923771226642537,0
3369,-0.7532027774835917,0
3370,-0.6866711808992493,0
3371,-0.6681902601396342,0
3372,-0.8009034910730721,0
3373,-0.9408144156385749,0
3374,-0.7048428301603471,0
3375,-0.80477441699451,0
3376,-0.7076623666791052,0
3377,-0.7144922105446193,0
3378,-0.8724529438019571,0
3379,-0.6311507141770358,0
3380,-0.2887515256367081,0
3381,3.273547229026932,0
3382,5.835751898110654,0
3383,-1.9303544703915285,0
3384,-2.2180363457081693,0
3385,0.7484654648266935,0
3386,-1.4185768033147954,0
3387,-0.5256130645368915,0
3388,-0.7522904413934373,0
3389,-0.6595081950041161,0
3390,-0.6519093951077681,0
3391,-0.6505322752646969,0
3392,-0.6553984100821475,0
3393,-0.7405195758833958,0
3394,-0.7973582772810142,0
3395,-0.7000858845460219,0
3396,-0.807315263767247,0
3397,-0.7064076300875584,0
3398,-0.7781223965966256,0
3399,-0.7729696984909393,0
3400,-0.2182644987855007,0
3401,3.4001320539303497,0
3402,5.795303250651295,0
3403,-1.7586898889918556,0
3404,-2.060568117891343,0
3405,0.6372307713809634,0
3406,-1.5252170035291486,0
3407,-0.5876720734980765,0
3408,-0.830096522763122,0
3409,-0.7463564651646727,0
3410,-0.8104832401590669,0
3411,-0.7578196100884858,0
3412,-0.6244530381536688,0
3413,-0.744669257233333,0
3414,-0.6275581567232436,0
3415,-0.6833242775251088,0
3416,-0.7249901721619593,0
3417,-0.7564481686967178,0
3418,-0.6674348724818477,0
3419,-0.6774404287358526,0
3420,-0.38181290183343686,0
3421,3.3598191906355193,0
3422,5.831092275158554,0
3423,-1.8970562491289042,0
3424,-2.0246433610517136,0
3425,0.7258851489952705,0
3426,-1.4979367148917935,0
3427,-0.441050141375644,0
3428,-0.679079491032008,0
3429,-0.6944683800448361,0
3430,-0.7467958710486536,0
3431,-0.6202022362139704,0
3432,-0.8484279768508678,0
3433,-0.5804209592913375,0
3434,-0.735254528784931,0
3435,-0.5839484208998622,0
3436,-0.6714464841967791,0
3437,-0.6939197873524143,0
3438,-0.6925371832918765,0
3439,-0.8117244759959282,0
3440,-0.4529573888310526,0
3441,3.355082278064368,0
3442,5.753519613477585,0
3443,-1.9453707533659954,0
3444,-2.081541825375541,0
3445,0.7488667542152909,0
3446,-1.529732689376987,0
3447,-0.5154981599634398,0
3448,-0.7180433792005659,0
3449,-0.708794074284987,0
3450,-0.7331469869129426,0
3451,-0.6448685308229065,0
3452,-0.7711894037960495,0
3453,-0.7126593708253943,0
3454,-0.6272446966005979,0
3455,-0.6060327289944317,0
3456,-0.657164539537314,0
3457,-0.7289323368864125,0
3458,-0.6741397518990491,0
3459,-0.7190820348671743,0
3460,-0.2548898714701977,0
3461,3.360905591194593,0
3462,5.913866894883628,0
3463,-1.932706051756484,0
3464,-2.157853443878074,0
3465,0.7366039489807272,0
3466,-1.5763801599887808,0
3467,-0.4646560470348755,0
3468,-0.7413639282795775,0
3469,-0.8014385315336937,0
3470,-0.5981404588117486,0
3471,-0.7954901620060592,0
3472,-0.6155353918605488,0
3473,-0.7448479167706198,0
3474,-0.562685988621391,0
3475,-0.6396995006395777,0
3476,-0.727184910261517,0
3477,-0.5394262966151356,0
3478,-0.67931173067876,0
3479,-0.692862569047651,0
3480,-0.07946212287069754,0
3481,3.5134425223531807,0
3482,5.873677409508413,0
3483,-1.749156388061735,0
3484,-1.914172093374281,0
3485,0.6713345804344836,0
3486,-1.4092826576969304,0
3487,-0.29863487154154755,0
3488,-0.7016552600293765,0
3489,-0.7434934168352426,0
3490,-0.5998129961480709,0
3491,-0.6852799940143126,0
3492,-0.6718550592292124,0
3493,-0.5904374293520835,0
3494,-0.5575634075638741,0
3495,-0.6990200690953876,0
3496,-0.6880862095852684,0
3497,-0.5181122410639667,0
3498,-0.6256131780355758,0
3499,-0.6012661899961259,0
3500,-0.1265299963574259,0
3501,3.4585506348571986,0
3502,6.048271434053543,0
3503,-1.9043178671323637,0
3504,-1.9547206175241811,0
3505,0.6692517143799579,0
3506,-1.4744739002292238,0
3507,-0.32136997040943854,0
3508,-0.5403776067749648,0
3509,-0.6369861008584394,0
3510,-0.6593717639003253,0
3511,-0.5359461156495341,0
3512,-0.5623464034112673,0
3513,-0.6364096427471583,0
3514,-0.6955407846278384,0
3515,-0.6553106755515985,0
3516,-0.735054029552534,0
3517,-0.5992194283376595,0
3518,-0.7220836858308063,0
3519,-0.5878710581721222,0
3520,-0.10595085490628947,0
3521,3.500639543228459,0
3522,5.8764135297295415,0
3523,-1.6677368358472955,0
3524,-1.9781126579084898,0
3525,0.7369236074466843,0
3526,-1.3643413772841804,0
3527,-0.3357331285933621,0
3528,-0.6082301637283098,0
3529,-0.6039449722803109,0
3530,-0.6805016094430114,0
3531,-0.6977837229171632,0
3532,-0.6771437632845391,0
3533,-0.520584041128662,0
3534,-0.6676438859467391,0
3535,-0.5480281766732423,0
3536,-0.6028179491677002,0
3537,-0.4992639482624335,0
3538,-0.563207446580109,0
3539,-0.5632170222684626,0
3540,-0.18154664589572178,0
3541,3.602990173028542,0
3542,6.063914950724932,0
3543,-1.602502477070662,0
3544,-1.9306390709750956,0
3545,0.9010456836351677,0
3546,-1.2970250403467771,0
3547,-0.22716401063328656,0
3548,-0.5490632755094613,0
3549,-0.6229037783977466,0
3550,-0.37283899177720764,0
3551,-0.5295938349685776,0
3552,-0.5130793012960542,0
3553,-0.42358166361119914,0
3554,-0.577275824270049,0
3555,-0.549755794903797,0
3556,-0.5653837417715911,0
3557,-0.5110010649624313,0
3558,-0.415771458232053,0
3559,-0.5611915604173469,0
3560,-0.04717235817213744,0
3561,3.6256624229329684,0
3562,6.108201380464732,0
3563,-1.7420667003806565,0
3564,-1.8909599912169286,0
3565,0.8600465173969961,0
3566,-1.4352477404429353,0
3567,-0.2603947888202446,0
3568,-0.6701963334307208,0
3569,-0.6528647997112352,0
3570,-0.5047530997489076,0
3571,-0.5404480159395002,0
3572,-0.49822575829841637,0
3573,-0.5136952014311356,0
3574,-0.6324984115047674,0
3575,-0.46187818687676796,0
3576,-0.5983633993493909,0
3577,-0.5571104805392806,0
3578,-0.45583587685279064,0
3579,-0.5663975543318372,0
3580,-0.1788676872288144,0
3581,3.5884068610364985,0
3582,6.109690603883415,0
3583,-1.7300494190795819,0
3584,-1.7069302399530404,0
3585,0.9270182884743549,0
3586,-1.3435290871510674,0
3587,-0.3517836753222247,0
3588,-0.49360168994138237,0
3589,-0.5022770640161661,0
3590,-0.5347091318397369,0
3591,-0.589985609188508,0
3592,-0.40341399000232375,0
3593,-0.46022136697742305,0
3594,-0.4862742444649181,0
3595,-0.6604186715565745,0
3596,-0.4287734173872283,0
3597,-0.6157371398294391,0
3598,-0.5565417656446996,0
3599,-0.5209158903012839,0
3600,-0.011698279499029962,0
3601,3.595697813875834,0
3602,6.014873841464223,0
3603,-1.717255077603836,0
3604,-1.9562681494149432,0
3605,0.9604858250162085,0
3606,-1.3368929112530572,0
3607,-0.30840144327347946,0
3608,-0.5033686075840614,0
3609,-0.6611254982567537,0
3610,-0.4923225250921081,0
3611,-0.4142365523905578,0
3612,-0.6753635182861751,0
3613,-0.5666904934925251,0
3614,-0.5929811766793721,0
3615,-0.6685118439399022,0
3616,-0.5587835297300171,0
3617,-0.47727605716227745,0
3618,-0.5131684444789815,0
3619,-0.48803004042349885,0
3620,-0.027091329738570702,0
3621,3.5437571124240694,0
3622,6.103617795544597,0
3623,-1.6721751668615172,0
3624,-1.8390202208625197,0
3625,0.9146680098913781,0
3626,-1.1471018928631325,0
3627,-0.21775408690665804,0
3628,-0.6361923280129763,0
3629,-0.5613658240859829,0
3630,-0.6567102900917964,0
3631,-0.5246559493197253,0
3632,-0.3544036172973942,0
3633,-0.5611066692565425,0
3634,-0.46774550548128213,0
3635,-0.3928383461117393,0
3636,-0.4649009245895901,0
3637,-0.44988737248673294,0
3638,-0.4869358757346317,0
3639,-0.5246164174172024,0
3640,0.0158273560223397,0
3641,3.6726259282069402,0
3642,6.085375535046396,0
3643,-1.6682833324224524,0
3644,-1.6774612238027347,0
3645,0.8333368890640928,0
3646,-1.273240917246389,0
3647,-0.3091930509289929,0
3648,-0.519844336169868,0
3649,-0.49016574535003,0
3650,-0.47408350419584355,0
3651,-0.3564863223933827,0
3652,-0.4391937049000946,0
3653,-0.4290872338147349,0
3654,-0.5027770329848,0
3655,-0.47312036080194997,0
3656,-0.4822135394386803,0
3657,-0.64110744061578,0
3658,-0.570653887810067,0
3659,-0.43208042415292724,0
3660,-0.05337945799018029,0
3661,3.674025830903787,0
3662,6.020978325836767,0
3663,-1.6824324755966493,0
3664,-1.9337538397802354,0
3665,0.7221933342208624,0
3666,-1.3184406879710169,0
3667,-0.326777077259741,0
3668,-0.6235901698496813,0
3669,-0.5072268946294936,0
3670,-0.4343025675860267,0
3671,-0.4290817053989999,0
3672,-0.5654503577614902,0
3673,-0.448403610441483,0
3674,-0.4183017970320856,0
3675,-0.39616473703012084,0
3676,-0.41074878341814275,0
3677,-0.4426650172978695,0
3678,-0.3916351572547402,0
3679,-0.4893940224507663,0
3680,-0.032125454112705176,0
3681,3.6779093395937466,0
3682,6.018250487712504,0
3683,-1.753455696737835,0
3684,-1.8402916827263245,0
3685,0.8850350044420582,0
3686,-1.2089680511968188,0
3687,-0.22012508185200794,0
3688,-0.5950698356448506,0
3689,-0.613872753448496,0
3690,-0.529351359511614,0
3691,-0.5210700501133594,0
3692,-0.5254480566104348,0
3693,-0.5972177001510324,0
3694,-0.4852483900364699,0
3695,-0.3630041799371723,0
3696,-0.46202342907857763,0
3697,-0.5221463531072045,0
3698,-0.5716719180885018,0
3699,-0.624411114943302,0
3700,-0.14158140549407694,0
3701,3.622445730490505,0
3702,5.9408937084601146,0
3703,-1.8573029180187826,0
3704,-1.9038001511755527,0
3705,1.061535777268783,0
3706,-1.2797793419572303,0
3707,-0.28264795062740034,0
3708,-0.6402577273814658,0
3709,-0.49380516667264374,0
3710,-0.4419336079933934,0
3711,-0.5781636285017775,0
3712,-0.6913654641185676,0
3713,-0.6442331329601352,0
3714,-0.4852329537753193,0
3715,-0.5753681253122576,0
3716,-0.4198388330053101,0
3717,-0.7567163323468099,0
3718,-0.46779752735357577,0
3719,-0.5451781526896612,0
3720,-0.15359563839239726,0
3721,3.696502344628084,0
3722,6.043412332642674,0
3723,-1.6530501954657368,0
3724,-1.7850713744519038,0
3725,0.8423124413232991,0
3726,-1.3190764819991871,0
3727,-0.2808503250446808,0
3728,-0.4662401792909812,0
3729,-0.6956865530448805,0
3730,-0.3901211315156373,0
3731,-0.6140788210148266,0
3732,-0.5881237638602288,0
3733,-0.4575007791733295,0
3734,-0.4479216411750055,0
3735,-0.46867833667811715,0
3736,-0.396908876922111,0
3737,-0.5307928877813819,0
3738,-0.5646258162191441,0
3739,-0.3931111318129369,0
3740,-0.004457805640164958,0
3741,3.787487832783939,0
3742,6.115408471263534,0
3743,-1.672472715975819,0
3744,-1.8165450945148587,0
3745,0.8561623980934738,0
3746,-1.230213781281484,0
3747,-0.43272743615708764,0
3748,-0.5169040193114381,0
3749,-0.6068912396423383,0
3750,-0.5330530540339558,0
3751,-0.5128370268493454,0
3752,-0.5451463146841412,0
3753,-0.48821449385709953,0
3754,-0.5484834828259314,0
3755,-0.3894082438889678,0
3756,-0.529123353969929,0
3757,-0.5790856103390013,0
3758,-0.5044303985788844,0
3759,-0.5351231549836812,0
3760,-0.0667916827560574,0
3761,3.675040930375317,0
3762,5.992725463009848,0
3763,-1.6636226929309748,0
3764,-1.730600583069192,0
3765,0.9235042895566912,0
3766,-1.2677225323297743,0
3767,-0.2638486751599515,0
3768,-0.4520960248820769,0
3769,-0.3891978793319015,0
3770,-0.41145425067991387,0
3771,-0.4442990387105249,0
3772,-0.3838283585795287,0
3773,-0.40096024572641925,0
3774,-0.4785378401265479,0
3775,-0.5279239657953546,0
3776,-0.46024444264918596,0
3777,-0.429198291380245,0
3778,-0.5479778111559037,0
3779,-0.5517380807736323,0
3780,0.024310087662963276,0
3781,3.7307159541618797,0
3782,6.150910694440056,0
3783,-1.7316857183225294,0
3784,-1.8162355507696937,0
3785,0.9116227861830286,0
3786,-1.2575043320825074,0
3787,-0.36316183320692585,0
3788,-0.47502193229196615,0
3789,-0.5581105607474489,0
3790,-0.4845898804400669,0
3791,-0.5862167368624227,0
3792,-0.34306991519866403,0
3793,-0.5127107757855273,0
3794,-0.5220494159878812,0
3795,-0.39988991029634324,0
3796,-0.544161460761219,0
3797,-0.4965500676157522,0
3798,-0.5228343533647619,0
3799,-0.4675671300105826,0
3800,0.10253100383818048,0
3801,3.735301965439849,0
3802,5.984278784132792,0
3803,-1.7504300119194969,0
3804,-1.776542937915215,0
3805,0.7499748624619632,0
3806,-1.283122798125432,0
3807,-0.35133946931562904,0
3808,-0.3347724490768252,0
3809,-0.5204605175306372,0
3810,-0.42557375850968887,0
3811,-0.3529587004949841,0
3812,-0.36083309178984535,0
3813,-0.4438109885376302,0
3814,-0.42247136632874016,0
3815,-0.38287593391364505,0
3816,-0.4503340372985388,0
3817,-0.3160423942820305,0
3818,-0.34166461614176225,0
3819,-0.3287160035911474,0
3820,-0.23396867324566328,1
3821,3.883674319020563,1
3822,6.284665132506358,1
3823,-2.110267919671032,1
3824,-1.9826710848713425,1
3825,0.7498567060713149,1
3826,-1.251665824241898,1
3827,0.05703074267160099,1
3828,-0.05218171281556383,1
3829,-0.48861136725285464,1
3830,-0.2111607333961535,1
3831,-0.5024821917011018,1
3832,-0.9834916498174475,1
3833,-0.5557204620923166,1
3834,-0.0723931353028128,1
3835,-0.11335349809024911,1
3836,-0.7404315054927165,1
3837,-0.6852923906130888,1
3838,-0.18310186712093152,1
3839,-0.04815926563112365,1
3840,-0.2957310682549523,1
3841,3.794482194739354,1
3842,5.752664852720778,1
3843,-2.0211944287835752,1
3844,-1.7584511065428243,1
3845,0.4988620462007698,1
3846,-1.3246095034103145,1
3847,-0.6257669058932818,1
3848,-0.8166369528684991,1
3849,-0.3473818372824745,1
3850,-0.3077883768029726,1
3851,-0.5268301967874582,1
3852,-0.1317421735691653,1
3853,-0.5450021408233107,1
3854,-0.740941666763524,1
3855,-0.6900103982183686,1
3856,-0.7850078816587684,1
3857,-0.4936463776989571,1
3858,-0.11975648080051735,1
3859,-0.663777881234023,1
3860,-0.06213425646709836,1
3861,3.1991430587746565,1
3862,5.9191901295140505,1
3863,-1.3120812639493653,1
3864,-1.9215461134812495,1
3865,1.3596086552344917,1
3866,-0.8831638334771981,1
3867,-0.21045796832053237,1
3868,-0.7067437069149141,1
3869,-0.14519714191180444,1
3870,-0.5188383641468467,1
3871,-0.46562945492128527,1
3872,-0.7094995262638778,1
3873,-0.2979085371985239,1
3874,-0.034170162569025074,1
3875,-1.0584038050553923,1
3876,-0.2279738496833809,1
3877,-0.3988102243115223,1
3878,-0.34656185041549425,1
3879,0.42607522635142814,1
3880,-0.30571898714473666,1
3881,3.6477531598596036,1
3882,6.421230784425579,1
3883,-1.7166997927715544,1
3884,-2.4163991033995775,1
3885,1.4129318374593405,1
3886,-1.5769157908470244,1
3887,-0.10845635185667285,1
3888,-0.4875581858818844,1
3889,-0.3987995063383988,1
3890,-0.5664800048471758,1
3891,-0.9159788807568904,1
3892,-1.2033821528586293,1
3893,-0.6653413661898359,1
3894,-0.46815582025067093,1
3895,-0.5429452099157586,1
3896,-0.23386917480053787,1
3897,-0.713168995525757,1
3898,-0.49902782163602255,1
3899,0.10817046117807488,1
3900,-0.176110803395313,1
3901,3.629500584740683,1
3902,5.970435626134218,1
3903,-1.7363919202460807,1
3904,-1.6451248164147176,1
3905,1.0066642237339622,1
3906,-1.6153936421399866,1
3907,-0.4120203180232711,1
3908,-0.7544617454752617,1
3909,-1.0605307688743693,1
3910,-0.9189709701892042,1
3911,-0.17465084029444433,1
3912,-0.25557079685748063,1
3913,-0.5514110019826322,1
3914,-0.3500281226468775,1
3915,0.1565822033509898,1
3916,-0.40755460272967686,1
3917,-0.8652484597041996,1
3918,0.02457029119946707,1
3919,-0.47243660833038936,1
3920,0.0906609897051649,0
3921,3.6899262167644054,0
3922,6.113126327996496,0
3923,-1.6311253948280233,0
3924,-1.7265974722215494,0
3925,0.9154906554512947,0
3926,-1.233393056522319,0
3927,-0.18427545311414936,0
3928,-0.5981670827414003,0
3929,-0.5892717104578784,0
3930,-0.4614498893778535,0
3931,-0.45387512464051666,0
3932,-0.33369876383267255,0
3933,-0.5734002926171612,0
3934,-0.36802461782529944,0
3935,-0.5802896882265788,0
3936,-0.3681709286565229,0
3937,-0.2940357115853166,0
3938,-0.2876219670964737,0
3939,-0.31239196498256727,0
3940,0.0970881240651486,0
3941,3.772849730484535,0
3942,6.013664861947145,0
3943,-1.7342069401728488,0
3944,-1.6453691511075403,0
3945,0.9126410390953492,0
3946,-1.2540466315751555,0
3947,-0.14045026111168948,0
3948,-0.42503012610462504,0
3949,-0.38677329689949674,0
3950,-0.4102180464334279,0
3951,-0.43926829993537087,0
3952,-0.4257695799660314,0
3953,-0.48043351674410706,0
3954,-0.416116933412565,0
3955,-0.43523077658833365,0
3956,-0.49153410697135386,0
3957,-0.43252899748948426,0
3958,-0.4012568695377041,0
3959,-0.4223369782649911,0
3960,-0.05464093013810262,0
3961,3.745742978645256,0
3962,6.043660874083148,0
3963,-1.678043795260694,0
3964,-1.7477173608346104,0
3965,1.1435792869023198,0
3966,-1.221996915526403,0
3967,-0.24530067089321375,0
3968,-0.43191701224610357,0
3969,-0.5537845333133831,0
3970,-0.42258616540838156,0
3971,-0.37803877103505423,0
3972,-0.4505705764828656,0
3973,-0.5461043550888379,0
3974,-0.3292946258250371,0
3975,-0.49036543314700193,0
3976,-0.42345710994016106,0
3977,-0.43080540684453084,0
3978,-0.49587798576360725,0
3979,-0.4749012781196386,0
3980,0.04901622347176038,0
3981,3.6717480865472756,0
3982,6.012115781961799,0
3983,-1.7259173514333797,0
3984,-1.794687577596484,0
3985,0.9837763547495078,0
3986,-1.249659560607034,0
3987,-0.08172970480066527,0
3988,-0.44201680385171427,0
3989,-0.36476258787212495,0
3990,-0.3221083984536648,0
3991,-0.429070381808174,0
3992,-0.38858457630859,0
3993,-0.4263375292005851,0
3994,-0.35387353090932666,0
3995,-0.4284902507152165,0
3996,-0.3702501903718905,0
3997,-0.4373468388863455,0
3998,-0.35077954845760817,0
3999,-0.3988862340643248,0
4000,0.11103397981345758,0
4001,3.7691713103825686,0
4002,6.251267884674103,0
4003,-1.7498910424420357,0
4004,-1.7276716503501475,0
4005,1.0047000328824898,0
4006,-1.1302736904309103,0
4007,-0.20159230986779808,0
4008,-0.5296748398507592,0
4009,-0.3837272295700411,0
4010,-0.39287462814901547,0
4011,-0.44496612887786113,0
4012,-0.32199730385429326,0
4013,-0.5041290317686922,0
4014,-0.37285813035594795,0
4015,-0.4782080667735657,0
4016,-0.5068313913917363,0
4017,-0.4057729524769383,0
4018,-0.48246420699557496,0
4019,-0.40565380761794567,0
4020,0.005476616073443075,0
4021,3.7829014331530986,0
4022,6.173865339925436,0
4023,-1.8876486339926282,0
4024,-1.774568397569312,0
4025,0.8952586227170701,0
4026,-1.1103686314779684,0
4027,-0.23256047048398815,0
4028,-0.3397882104139075,0
4029,-0.4574371385236742,0
4030,-0.3652547049448853,0
4031,-0.3816835331789814,0
4032,-0.29510572734129126,0
4033,-0.2815993883879657,0
4034,-0.49248296559303856,0
4035,-0.3438523889340032,0
4036,-0.3572543541304523,0
4037,-0.33635919888685,0
4038,-0.48618341438880186,0
4039,-0.33219076451055507,0
4040,0.1336280947470317,0
4041,3.8322232528499613,0
4042,6.091058410791342,0
4043,-1.5812367396221914,0
4044,-1.6057063523646171,0
4045,0.9127510680063426,0
4046,-1.1346720591501473,0
4047,-0.3042925732806157,0
4048,-0.3014553602127539,0
4049,-0.45328096425843933,0
4050,-0.333225479256316,0
4051,-0.36257334746578646,0
4052,-0.325609870016581,0
4053,-0.2816200049613575,0
4054,-0.4221323817237095,0
4055,-0.40390118301317623,0
4056,-0.420327321965019,0
4057,-0.3746177608719118,0
4058,-0.3530608975955082,0
4059,-0.24881059043703274,0
4060,0.12423612019149255,0
4061,3.902162516523272,0
4062,6.189498913641434,0
4063,-1.5929560915457655,0
4064,-1.6761778948619415,0
4065,1.0875233860102642,0
4066,-1.0821117272574874,0
4067,-0.19839062262741275,0
4068,-0.3869031654649048,0
4069,-0.3326062793976228,0
4070,-0.4287295673746815,0
4071,-0.46341515904652375,0
4072,-0.542169611121962,0
4073,-0.44081283843299907,0
4074,-0.3793438451226713,0
4075,-0.22962906225269214,0
4076,-0.25010744174941063,0
4077,-0.3182338193829974,0
4078,-0.2762977116295034,0
4079,-0.26468545567827745,0
4080,0.05979893153282634,0
4081,3.908686443053855,0
4082,6.158666841304278,0
4083,-1.6315908361144884,0
4084,-1.6191184616912933,0
4085,1.1212977495128225,0
4086,-1.1276034517510138,0
4087,-0.19004078317021178,0
4088,-0.3153529899717564,0
4089,-0.44692752484100434,0
4090,-0.300551726985527,0
4091,-0.26458521759823694,0
4092,-0.26431714815484,0
4093,-0.2049104411166346,0
4094,-0.37210395311066047,0
4095,-0.37463507232828985,0
4096,-0.3605549784297184,0
4097,-0.3372110854474704,0
4098,-0.3020042625854757,0
4099,-0.31125837824799835,0
4100,0.1608669972366607,0
4101,3.831089721359985,0
4102,6.206278950830631,0
4103,-1.6184414623912615,0
4104,-1.6066521707824672,0
4105,0.9359201746254204,0
4106,-0.9699975408975416,0
4107,-0.10098759541272595,0
4108,-0.3840603532230458,0
4109,-0.39020857356761474,0
4110,-0.23399444007255038,0
4111,-0.35853684236160493,0
4112,-0.3832696870338916,0
4113,-0.26400813103379184,0
4114,-0.41005513484054346,0
4115,-0.4065932387003428,0
4116,-0.3969315982416606,0
4117,-0.44010060498129155,0
4118,-0.32626504487366537,0
4119,-0.4464163376756515,0
4120,0.10249160801999913,0
4121,3.7580118440062513,0
4122,6.1405902435325705,0
4123,-1.638868035204282,0
4124,-1.6402549187448423,0
4125,1.0207656426190015,0
4126,-1.1303727374430597,0
4127,-0.2012462837794787,0
4128,-0.4226247428202551,0
4129,-0.46429118624889393,0
4130,-0.3332015659504811,0
4131,-0.2567538828461179,0
4132,-0.24317130197919667,0
4133,-0.29309904646216184,0
4134,-0.31747451246501973,0
4135,-0.27561259186587855,0
4136,-0.3992336984649838,0
4137,-0.29805051386835,0
4138,-0.2984767839858049,0
4139,-0.3545079000536915,0
4140,0.1029966392039387,0
4141,3.8511135759525783,0
4142,6.159231675420422,0
4143,-1.7013083333176422,0
4144,-1.6781321599554417,0
4145,0.8431049852834762,0
4146,-1.026375293763476,0
4147,-0.18457308463563157,0
4148,-0.49432322674577883,0
4149,-0.39940535239497593,0
4150,-0.22076892183464258,0
4151,-0.3640074905071673,0
4152,-0.337544264631248,0
4153,-0.4235416850718134,0
4154,-0.32483214753892026,0
4155,-0.41958888534234545,0
4156,-0.3486847802586353,0
4157,-0.3837637949497995,0
4158,-0.3648526388866336,0
4159,-0.3635423692667592,0
4160,0.12319184920186382,0
4161,3.8250018518980133,0
4162,6.129888490609994,0
4163,-1.6867322213062854,0
4164,-1.5159107351669245,0
4165,0.8958769236453674,0
4166,-1.2909519409598569,0
4167,-0.10583584021776626,0
4168,-0.3163028719920464,0
4169,-0.45311204788410653,0
4170,-0.265796948681971,0
4171,-0.2938239720081444,0
4172,-0.47920006995640174,0
4173,-0.4746487900732779,0
4174,-0.34135624700645223,0
4175,-0.2955134479800226,0
4176,-0.3540333355003162,0
4177,-0.46201714227543605,0
4178,-0.47753842117982054,0
4179,-0.4380295213163654,0
4180,0.026884405995073968,0
4181,3.723895481411938,0
4182,5.9526155039784765,0
4183,-1.752528170822945,0
4184,-1.6363590597538282,0
4185,0.9083673617442711,0
4186,-1.2384180564437859,0
4187,-0.20961157239327394,0
4188,-0.42700721124681057,0
4189,-0.31437532685825387,0
4190,-0.4308401886150961,0
4191,-0.34048832354710035,0
4192,-0.4015474479156234,0
4193,-0.4222079410239599,0
4194,-0.2844674692680519,0
4195,-0.12966278657648,0
4196,-0.31215969486881756,0
4197,-0.24090247177641455,0
4198,-0.23444362567805113,0
4199,-0.33674802561645945,0
4200,0.04015466219173863,0
4201,3.9413578882340268,0
4202,6.103946901317929,0
4203,-1.5852810960354342,0
4204,-1.7355728024726573,0
4205,1.1344295309254342,0
4206,-1.0671349534624337,0
4207,-0.08152076994999141,0
4208,-0.36758942145314166,0
4209,-0.3249529775329316,0
4210,-0.3984305173803275,0
4211,-0.2605304859706067,0
4212,-0.34528019164850055,0
4213,-0.17615839356659838,0
4214,-0.2517933987653927,0
4215,-0.25759428084004243,0
4216,-0.3754757756630032,0
4217,-0.46324790236501084,0
4218,-0.2891791220239313,0
4219,-0.36120523135402605,0
4220,0.06701879272878769,0
4221,3.87681830107138,0
4222,6.158507660141459,0
4223,-1.6967199451534472,0
4224,-1.575594713906494,0
4225,1.111375416905488,0
4226,-1.0371495581389207,0
4227,0.0010238394998395572,0
4228,-0.21629881466067388,0
4229,-0.39928063529533614,0
4230,-0.3003391853668815,0
4231,-0.1775579089425907,0
4232,-0.33171478017716366,0
4233,-0.3950263587955263,0
4234,-0.36687695463560976,0
4235,-0.2606813530503046,0
4236,-0.12667011411594134,0
4237,-0.1795980771816171,0
4238,-0.2666004878992878,0
4239,-0.2748187519909042,0
4240,0.25121633004985755,0
4241,4.013424798499092,0
4242,6.167165256111759,0
4243,-1.7695066618395934,0
4244,-1.4873811563430464,0
4245,0.9561508830632279,0
4246,-1.1673709289251049,0
4247,-0.1310532610084356,0
4248,-0.35145489905439103,0
4249,-0.47412324356453023,0
4250,-0.41693076090171827,0
4251,-0.16949034840976335,0
4252,-0.36860379541622534,0
4253,-0.23346999703177115,0
4254,-0.3396143178858868,0
4255,-0.3257252029356719,0
4256,-0.3054888005074921,0
4257,-0.10964454338111766,0
4258,-0.34988999370944085,0
4259,-0.32358786558412433,0
4260,0.2482192787277717,0
4261,3.9035859510202466,0
4262,6.0458591415936125,0
4263,-1.582723082021659,0
4264,-1.5943524973910668,0
4265,0.9895680352701791,0
4266,-1.0929175599787624,0
4267,-0.04340174725862225,0
4268,-0.29641946168882416,0
4269,-0.2561552400219693,0
4270,-0.24933435449777347,0
4271,-0.2114195400287127,0
4272,-0.28271113562775924,0
4273,-0.3043747381464619,0
4274,-0.4135650565822633,0
4275,-0.3923002543899455,0
4276,-0.31175481682018263,0
4277,-0.26463977069963135,0
4278,-0.3063506731982949,0
4279,-0.2680071214091526,0
4280,0.05781770532350716,0
4281,4.010965112985569,0
4282,6.240824380859493,0
4283,-1.7559321609467617,0
4284,-1.6213964334518098,0
4285,1.0985103170246031,0
4286,-1.0676083674621468,0
4287,-0.08145198404027848,0
4288,-0.2710432917324777,0
4289,-0.40657596830290094,0
4290,-0.34113907707348107,0
4291,-0.34135557768359187,0
4292,-0.30667697366522545,0
4293,-0.19172804670810348,0
4294,-0.2644813530406707,0
4295,-0.2687963544829809,0
4296,-0.2747318876339662,0
4297,-0.3020258972420325,0
4298,-0.35688073027942047,0
4299,-0.3082607083339218,0
4300,0.23476158164611904,0
4301,3.9857950946795064,0
4302,6.099308755654661,0
4303,-1.6646016166791169,0
4304,-1.392371486789604,0
4305,1.0203942303150741,0
4306,-1.1107173241974175,0
4307,0.019671255634142376,0
4308,-0.32296302910401775,0
4309,-0.3427063877972474,0
4310,-0.31369911282250884,0
4311,-0.26482048674619296,0
4312,-0.2272650268270197,0
4313,-0.15094537556876314,0
4314,-0.3423271385220988,0
4315,-0.1880889264848921,0
4316,-0.23385168831349268,0
4317,-0.2185473139303405,0
4318,-0.2134003264079395,0
4319,-0.3162686561944956,0
4320,0.14743726348106007,0
4321,3.9072944748680127,0
4322,6.1062742630234235,0
4323,-1.643696812835721,0
4324,-1.5154007315717672,0
4325,1.1288033777437487,0
4326,-1.0925999014120966,0
4327,-0.008814365286276271,0
4328,-0.3510810464612223,0
4329,-0.229763587564794,0
4330,-0.21203913199371588,0
4331,-0.2727516784777911,0
4332,-0.2531604709183677,0
4333,-0.2723628101431778,0
4334,-0.1663166724495198,0
4335,-0.16596797030859944,0
4336,-0.24547502721486414,0
4337,-0.23797211283720113,0
4338,-0.2581862454021626,0
4339,-0.26250676640219356,0
4340,0.21041529251942725,0
4341,4.036582337377433,0
4342,6.2473983477829655,0
4343,-1.6459721285158717,0
4344,-1.499436706532284,0
4345,1.2011736267161945,0
4346,-0.9055218490006398,0
4347,-0.0178053845169856,0
4348,-0.2525168720803309,0
4349,-0.23407132598816757,0
4350,-0.21696262075416203,0
4351,-0.19964605327646767,0
4352,-0.2066409560076426,0
4353,-0.3147402332477334,0
4354,-0.33498717143289203,0
4355,-0.4067392223663815,0
4356,-0.22638738264320857,0
4357,-0.18081123198132115,0
4358,-0.3201906453135878,0
4359,-0.2992555009112048,0
4360,0.40345567133945587,0
4361,4.079404641950395,0
4362,6.239364785639869,0
4363,-1.5247411593966498,0
4364,-1.3428407646816487,0
4365,1.1253663060204895,0
4366,-1.0494233136726372,0
4367,0.13133418540724467,0
4368,-0.17735455252551058,0
4369,-0.2205789288711204,0
4370,-0.1413875171279937,0
4371,-0.29377810701617324,0
4372,-0.1607109826105529,0
4373,-0.14382345994266607,0
4374,-0.19938310742397086,0
4375,-0.22769176089921392,0
4376,-0.12264180013550756,0
4377,-0.27398562219558975,0
4378,-0.31068719965168534,0
4379,-0.1418773354928029,0
4380,0.2797244056081295,0
4381,3.934516305291787,0
4382,6.3884754922115725,0
4383,-1.54461090358956,0
4384,-1.3733984818836913,0
4385,1.210609948390101,0
4386,-1.0069481059463121,0
4387,0.003115697158699249,0
4388,-0.24834809847330958,0
4389,-0.24751375529296582,0
4390,-0.15280267492421706,0
4391,-0.11619627202536935,0
4392,-0.1797486348647369,0
4393,-0.3648528843869947,0
4394,-0.2949842343236271,0
4395,-0.1365306518604873,0
4396,-0.13229398153852207,0
4397,-0.2210971302832625,0
4398,-0.21289307848147232,0
4399,-0.2966931967828592,0
4400,0.18790950184400423,0
4401,4.017772957625435,0
4402,6.207476640184759,0
4403,-1.6820111211791726,0
4404,-1.4411678792980718,0
4405,1.042750758397503,0
4406,-1.090643176503617,0
4407,-0.012225189105592005,0
4408,-0.28195826189052564,0
4409,-0.23141157387413772,0
4410,-0.12716007316398054,0
4411,-0.11661435248320315,0
4412,-0.10892546887172351,0
4413,-0.10867641576443421,0
4414,-0.22663980978894277,0
4415,-0.10404007006759941,0
4416,-0.08734354696148419,0
4417,-0.09309229037080022,0
4418,-0.055767696228133046,0
4419,-0.23058580045439003,0
4420,0.3245556738508447,0
4421,4.188518209075506,0
4422,6.299889443617593,0
4423,-1.5092238810295326,0
4424,-1.3318189783960794,0
4425,1.1493022234336294,0
4426,-1.0102181420936316,0
4427,0.23480528917087823,0
4428,-0.3445848970604539,0
4429,-0.16685296096235114,0
4430,0.0016502622714736903,0
4431,-0.1040772995094958,0
4432,-0.2986797219737302,0
4433,-0.23336550967273428,0
4434,-0.2441803604085608,0
4435,-0.2343307142801285,0
4436,-0.3047633908300805,0
4437,-0.21996785034565755,0
4438,-0.20952671418898527,0
4439,-0.18824517659232862,0
4440,0.12464338930092234,0
4441,4.026688753864884,0
4442,6.197020698423321,0
4443,-1.5769254873269563,0
4444,-1.5075826169650648,0
4445,1.1402494079366363,0
4446,-0.9927370488821595,0
4447,0.0504202835074915,0
4448,-0.21932299968123425,0
4449,-0.3010654660608748,0
4450,-0.24587092531936405,0
4451,-0.26402167659293246,0
4452,-0.04332717213904182,0
4453,-0.1664692437107398,0
4454,-0.31795842205296104,0
4455,-0.1821063120934334,0
4456,-0.1482490761099955,0
4457,-0.27906085834051114,0
4458,-0.287899958491989,0
4459,-0.22394510759269956,0
4460,0.14785193367181904,0
4461,4.193777839284585,0
4462,6.237229532593569,0
4463,-1.5479686541666207,0
4464,-1.371750891085184,0
4465,1.1715422869480552,0
4466,-0.9470448194799167,0
4467,-0.052530500091840904,0
4468,-0.2682065462989138,0
4469,-0.3218639629108206,0
4470,-0.15039979360084343,0
4471,-0.059810275171723284,0
4472,-0.1553491495962999,0
4473,-0.1435920989663436,0
4474,-0.16289947213188855,0
4475,-0.29868200538694945,0
4476,-0.14461304503031636,0
4477,-0.2960746094240878,0
4478,-0.11717832868110747,0
4479,-0.17774490814681668,0
4480,0.2597094592735376,0
4481,4.099411135391552,0
4482,6.198170281806156,0
4483,-1.750876436191462,0
4484,-1.456950554276963,0
4485,1.129018670973222,0
4486,-1.0928972534901267,0
4487,0.044257490539563654,0
4488,-0.3023767171208752,0
4489,-0.21917964240961818,0
4490,-0.2933984741750025,0
4491,-0.16234079437401905,0
4492,-0.22197057387555633,0
4493,-0.28667706528959597,0
4494,-0.12960717621709322,0
4495,-0.3135391743980066,0
4496,-0.22710068897502161,0
4497,-0.2755151280055846,0
4498,-0.1744489422662199,0
4499,-0.21442278436101592,0
4500,0.17710004322514689,0
4501,4.046933592701516,0
4502,6.306657507891005,0
4503,-1.61860387380368,0
4504,-1.5376180298965656,0
4505,1.0119655788586852,0
4506,-1.1113741455505686,0
4507,0.06560233212274183,0
4508,-0.2900995886671507,0
4509,-0.24090725166670757,0
4510,-0.2472434289967733,0
4511,-0.3162476199917291,0
4512,-0.342219767536596,0
4513,-0.1932042917994557,0
4514,-0.098961883213634,0
4515,-0.2838153863585326,0
4516,-0.1120539314919507,0
4517,-0.2684076999903004,0
4518,-0.11821743021576087,0
4519,-0.11510975997515557,0
4520,0.3214625102269192,0
4521,4.1076637752644505,0
4522,6.241775146590366,0
4523,-1.6229391217063716,0
4524,-1.3359107974927995,0
4525,1.106736797923742,0
4526,-1.045069569652146,0
4527,0.08163645475647599,0
4528,-0.2803957491112369,0
4529,-0.018200671483173905,0
4530,-0.18140395390606395,0
4531,-0.21736853707708534,0
4532,-0.20465671317111445,0
4533,-0.1498892496060265,0
