timestamp,value-0,is_anomaly
0,0.2953110094495107,0.0
1,4.561359143529117,0.0
2,5.0216702491362755,0.0
3,-3.02628638340366,0.0
4,1.7086791354283464,0.0
5,-0.6564116056966576,0.0
6,0.3453193700390887,0.0
7,-0.03335248148142478,0.0
8,0.09195802827338831,0.0
9,0.0035162194764511226,0.0
10,-0.0145260347860941,0.0
11,0.10112947025479702,0.0
12,0.11479340025931191,0.0
13,0.045998786612846634,0.0
14,0.010918222723484805,0.0
15,-0.004819829342327185,0.0
16,0.08901638277856186,0.0
17,1.1070495782565914,0.0
18,6.531831062962011,0.0
19,1.6779230098131723,0.0
20,-1.9831657608606181,0.0
21,1.2975129889455868,0.0
22,-0.6547695902617781,0.0
23,0.3523865219889245,0.0
24,-0.05777718680668913,0.0
25,0.04761840307093719,0.0
26,0.00013285079607739878,0.0
27,-0.030467291628765176,0.0
28,0.022667786220553845,0.0
29,0.08722339207103462,0.0
30,0.0051551834230637444,0.0
31,0.03604205525976949,0.0
32,0.12051574958830227,0.0
33,-0.010255629841792097,0.0
34,2.5362706242981745,0.0
35,6.827994707098007,0.0
36,-1.8242625692080474,0.0
37,0.1627522569920558,0.0
38,0.14964239536551943,0.0
39,-0.1547836198260763,0.0
40,0.15487851501648772,0.0
41,0.043315668666551475,0.0
42,-0.031218706200394124,0.0
43,0.08649444743451049,0.0
44,0.04702379745365938,0.0
45,0.038416167868159025,0.0
46,0.04640979554795011,0.0
47,-0.00733656910669922,0.0
48,0.0404177636258417,0.0
49,0.08096432834740927,0.0
50,0.32452446402365454,0.0
51,4.58782513307335,0.0
52,4.969361162861885,0.0
53,-2.9111176422353213,0.0
54,1.5390721847463815,0.0
55,-0.6958153265763489,0.0
56,0.2676910170141828,0.0
57,-0.21772800302749953,0.0
58,0.13532352128290617,0.0
59,-0.06704061586187396,0.0
60,-0.021002549099527163,0.0
61,-0.03534167731488867,0.0
62,0.04381350629190393,0.0
63,0.0034490274860162397,0.0
64,-0.03752024581934216,0.0
65,0.09930916800159363,0.0
66,0.03137190287423282,0.0
67,0.9614128940293835,0.0
68,6.461487579676755,0.0
69,1.5693027130838844,0.0
70,-1.9462172973705794,0.0
71,1.2244032185929574,0.0
72,-0.5786475675297781,0.0
73,0.3011978104049437,0.0
74,0.030628042392408163,0.0
75,0.01694932192456422,0.0
76,-0.007121040894300504,0.0
77,0.03186113479814148,0.0
78,0.13487066197994707,0.0
79,0.06974835343866484,0.0
80,0.011555060168129822,0.0
81,0.031979941212789686,0.0
82,-0.00023673978687648034,0.0
83,0.05633345624044887,0.0
84,2.5963414960388613,0.0
85,6.814217941722881,0.0
86,-1.8815008830473694,0.0
87,0.22173637353892045,0.0
88,0.18604166622996504,0.0
89,-0.03975154120452446,0.0
90,-0.010930652375970462,0.0
91,-0.09167727111982456,0.0
92,-0.0035081118760296216,0.0
93,-0.009071530365499045,0.0
94,0.010713161190966936,0.0
95,-0.02967690849438846,0.0
96,0.0033737077168612545,0.0
97,0.1095355483175079,0.0
98,0.09213208549671739,0.0
99,0.07693820238352764,0.0
100,0.29881940960266323,0.0
101,4.606108756246454,0.0
102,5.046960186111807,0.0
103,-3.0186064401252493,0.0
104,1.4976971900253726,0.0
105,-0.6393014857064743,0.0
106,0.27050317291445836,0.0
107,-0.04320334251024131,0.0
108,0.08191106932600634,0.0
109,0.026637725273014053,0.0
110,-0.007390657383940583,0.0
111,0.09316303967366696,0.0
112,0.05158745871455227,0.0
113,0.03378682713523484,0.0
114,-0.03683376890362772,0.0
115,0.0370431241050391,0.0
116,-0.003767364417954576,0.0
117,0.9824462564193157,0.0
118,6.43922336690122,0.0
119,1.5580193210270794,0.0
120,-1.9635672623736011,0.0
121,1.283511201308139,0.0
122,-0.6302566584141513,0.0
123,0.2348505823925985,0.0
124,-0.07679253025588417,0.0
125,0.04633997197373053,0.0
126,0.018393405018538568,0.0
127,0.01873832857504755,0.0
128,0.07347507540529015,0.0
129,-0.07271172065672116,0.0
130,-0.0756733381698794,0.0
131,-0.07477323772555741,0.0
132,0.03465830681048305,0.0
133,0.00816546688109173,0.0
134,2.5408021065026847,0.0
135,6.96541838633317,0.0
136,-1.8946490162339187,0.0
137,0.24730711169179456,0.0
138,0.1681868374826874,0.0
139,-0.07287953790491784,0.0
140,0.08856074978753567,0.0
141,-0.06933236709641617,0.0
142,0.051433804071491736,0.0
143,-0.0071564852660475475,0.0
144,-0.001920080436157426,0.0
145,0.020497313533384184,0.0
146,0.040487710156284565,0.0
147,0.009860355107753578,0.0
148,-0.014854191016044816,0.0
149,0.078191156569539,0.0
150,0.231179034470911,0.0
151,4.57109102425306,0.0
152,4.991045024443733,0.0
153,-3.0350922498662243,0.0
154,1.469667420044837,0.0
155,-0.7731871290610138,0.0
156,0.31810770602541044,0.0
157,-0.04627489461999246,0.0
158,0.030997372171267926,0.0
159,-0.1335186800870973,0.0
160,-0.11724993010801513,0.0
161,-0.0658376240072203,0.0
162,0.005307528670988236,0.0
163,0.11023218913949215,0.0
164,-0.0251521009846343,0.0
165,-0.020636788506767086,0.0
166,-0.06028600160320083,0.0
167,1.0471745990122598,0.0
168,6.526748760342702,0.0
169,1.410099477822156,0.0
170,-2.0493480957430052,0.0
171,1.1908902325289101,0.0
172,-0.672681055803589,0.0
173,0.2504516608865748,0.0
174,-0.10339217762970852,0.0
175,-0.04555303846795937,0.0
176,0.04195814718175782,0.0
177,0.05606277354609848,0.0
178,0.07479618483162301,0.0
179,-0.07490309363065233,0.0
180,0.02392303123699436,0.0
181,-0.029159494262807728,0.0
182,0.043112662448921854,0.0
183,0.006465431901840901,0.0
184,2.542773844544074,0.0
185,6.805072920259734,0.0
186,-1.833127711788221,0.0
187,0.33734140683612973,0.0
188,0.18311368186723043,0.0
189,-0.07508045878118381,0.0
190,0.03658327326095611,0.0
191,-0.02776581693039573,0.0
192,-0.04260267816918942,0.0
193,-0.024483649184692334,0.0
194,0.004542965583225714,0.0
195,0.006676991239552912,0.0
196,0.0006198071409259862,0.0
197,-0.1348631231270729,0.0
198,-0.10526527667191171,0.0
199,-0.050262807281179586,0.0
200,0.16579612255621543,0.0
201,4.507827168146919,0.0
202,4.857411239620579,0.0
203,-3.03493320438319,0.0
204,1.4365818847075749,0.0
205,-0.9322982948635465,0.0
206,0.29891291327474356,0.0
207,-0.10143658316366855,0.0
208,-0.005291086877809598,0.0
209,0.027645202967370677,0.0
210,-0.014107998394937177,0.0
211,-0.04421039355518935,0.0
212,0.004910280550146896,0.0
213,0.03417771735742771,0.0
214,0.0017378709223127911,0.0
215,0.027613316225184988,0.0
216,-0.1573651540932574,0.0
217,1.1445240438316437,0.0
218,6.484676852447035,0.0
219,1.5061487566776668,0.0
220,-1.8631904306801785,0.0
221,1.2974957624543664,0.0
222,-0.6662277936135483,0.0
223,0.26918213988250317,0.0
224,-0.08722415016679039,0.0
225,0.0341697117202853,0.0
226,-0.004691646424465408,0.0
227,-0.029872528096030915,0.0
228,0.0012629929740645626,0.0
229,-0.01609249619171521,0.0
230,-0.023390048411900708,0.0
231,-0.09632886173317065,0.0
232,-0.12396089865116956,0.0
233,-0.06565441824335685,0.0
234,2.5183212875874648,0.0
235,6.8029817802553465,0.0
236,-1.991968611909087,0.0
237,0.25489405785396263,0.0
238,0.05888717399187991,0.0
239,-0.12038749212242354,0.0
240,-0.09487876804576544,0.0
241,-0.08156959332316138,0.0
242,-0.05164752418533648,0.0
243,-0.07848862198606167,0.0
244,-0.07017726638289373,0.0
245,-0.09648396997883242,0.0
246,-0.04189190569392333,0.0
247,-0.11495183357594697,0.0
248,-0.07537893178456538,0.0
249,-0.06624556910572624,0.0
250,0.16495003339190956,0.0
251,4.5707889723432915,0.0
252,4.743051924622201,0.0
253,-3.0888554353784916,0.0
254,1.3939513684071156,0.0
255,-0.7991448163211538,0.0
256,0.2577615691087186,0.0
257,-0.1815867515047192,0.0
258,0.031100722772941618,0.0
259,0.06665904048966449,0.0
260,-0.01421015139034143,0.0
261,-0.07436836314858435,0.0
262,-0.028840695607276638,0.0
263,0.05053170368063596,0.0
264,-0.05542421248162952,0.0
265,0.008289207023434622,0.0
266,0.017167382757970844,0.0
267,0.9886722994773188,0.0
268,6.4750249022908415,0.0
269,1.3601152917069061,0.0
270,-1.8863743434036255,0.0
271,1.1717078948157975,0.0
272,-0.6790259470585651,0.0
273,0.15103815934853884,0.0
274,-0.18438779930971383,0.0
275,-0.03909547129929854,0.0
276,-0.09405181679113905,0.0
277,-0.19077035562411138,0.0
278,-0.038287534347080265,0.0
279,-0.079951049664511,0.0
280,-0.09646598239104351,0.0
281,-0.17010584684208754,0.0
282,-0.15203456847330363,0.0
283,-0.0836463544829062,0.0
284,2.4872145909947476,0.0
285,6.698979568641875,0.0
286,-1.8961325646070637,0.0
287,0.1315221253295942,0.0
288,-0.014239242496428703,0.0
289,-0.12266618018864567,0.0
290,-0.008072795945890304,0.0
291,-0.19455677619308945,0.0
292,-0.03894373834111273,0.0
293,-0.09457195375685878,0.0
294,-0.13058017797724822,0.0
295,-0.050746287432003004,0.0
296,-0.10820704832937647,0.0
297,-0.01143798679667269,0.0
298,0.027976871350137177,0.0
299,-0.03942074574858616,0.0
300,0.17020511105885378,0.0
301,4.579174984313388,0.0
302,4.822729807340094,0.0
303,-3.0785882358497094,0.0
304,1.4486761030680375,0.0
305,-0.8728086767950701,0.0
306,0.2535840512210254,0.0
307,-0.19100780411401871,0.0
308,-0.07293111551978201,0.0
309,-0.01958132674923558,0.0
310,-0.04702409339335613,0.0
311,-0.05386462502366171,0.0
312,-0.07634320936100547,0.0
313,-0.038456632989851934,0.0
314,0.015876610746307945,0.0
315,-0.01695513803955956,0.0
316,-0.09157778393274676,0.0
317,0.9979597886518932,0.0
318,6.428091107075404,0.0
319,1.2826420049760625,0.0
320,-1.981381611828716,0.0
321,1.1316968890975456,0.0
322,-0.6892803704924975,0.0
323,0.15037463176998048,0.0
324,-0.12051698919883494,0.0
325,-0.15766941466667156,0.0
326,-0.08627442389209773,0.0
327,-0.080604851399026,0.0
328,0.03160422449499744,0.0
329,0.024001536380417778,0.0
330,0.02500550864683216,0.0
331,-0.0634481109269145,0.0
332,0.03043028563072497,0.0
333,0.05547102638718675,0.0
334,2.477891909452817,0.0
335,6.814560208072017,0.0
336,-1.892724047757466,0.0
337,0.14884153740264613,0.0
338,0.10088524603764806,0.0
339,-0.12779144921262858,0.0
340,0.03529843735100858,0.0
341,-0.03550217752304013,0.0
342,-0.06246457190819558,0.0
343,-0.05461187368907333,0.0
344,-0.13423367981949935,0.0
345,-0.050909424954345445,0.0
346,-0.09632245752486282,0.0
347,-0.028137306349704322,0.0
348,-0.049796880935655416,0.0
349,-0.07613092909853619,0.0
350,0.19142975855746647,0.0
351,4.622604037878695,0.0
352,4.880979810165444,0.0
353,-3.054507173635291,0.0
354,1.4333540054492573,0.0
355,-0.7805088861564806,0.0
356,0.385468768756837,0.0
357,-0.0794108009301407,0.0
358,-0.029463984530116227,0.0
359,-0.015063326695701599,0.0
360,0.007004485859519197,0.0
361,-0.0314186257544793,0.0
362,-0.01685326354985311,0.0
363,0.05557962447828954,0.0
364,0.05525051893047849,0.0
365,0.01880708506158308,0.0
366,0.037557399419115615,0.0
367,1.136306693251956,0.0
368,6.507116502019763,0.0
369,1.3930102068110857,0.0
370,-1.8283339868888695,0.0
371,1.3139695015198152,0.0
372,-0.6452293334599616,0.0
373,0.279903602305832,0.0
374,-0.03748563870973225,0.0
375,-0.002135216336919682,0.0
376,-0.004011407232597977,0.0
377,-0.08076240324423925,0.0
378,-0.016695841861776188,0.0
379,-0.02833934211932878,0.0
380,-0.1121576194275488,0.0
381,-0.06609145085915477,0.0
382,0.01010808610227347,0.0
383,-0.030103669192074106,0.0
384,2.6224772050673666,0.0
385,6.795950901154435,0.0
386,-1.998798940716682,0.0
387,0.33370482597027645,0.0
388,0.1111142542777506,0.0
389,-0.07847236714351816,0.0
390,0.0805453583298644,0.0
391,0.06634815500375259,0.0
392,-0.15115679584920164,0.0
393,-0.0021500271237601732,0.0
394,0.033743125151295024,0.0
395,0.013029212919348379,0.0
396,-0.06316654556134303,0.0
397,-0.01835247586929934,0.0
398,-0.08114455449799426,0.0
399,0.02073465761089472,0.0
400,0.24696533085853545,0.0
401,4.661660871541596,0.0
402,4.861805667792902,0.0
403,-3.0683550740358188,0.0
404,1.4653745548057127,0.0
405,-0.7821872825529677,0.0
406,0.2203912168688665,0.0
407,-0.12029411779530177,0.0
408,0.0664973276231485,0.0
409,0.013787971904991477,0.0
410,0.07987573212298582,0.0
411,-0.057276819813318086,0.0
412,-0.09973795388917246,0.0
413,-0.03404898443776244,0.0
414,0.04401751515264766,0.0
415,-0.1387723520096017,0.0
416,-0.07099425929882543,0.0
417,1.012657974442755,0.0
418,6.594521759413694,0.0
419,1.2716080964243193,0.0
420,-1.7871879730850582,0.0
421,1.196578983611758,0.0
422,-0.6090364961406514,0.0
423,0.2790756599682734,0.0
424,-0.016720448876315325,0.0
425,0.10215680564630111,0.0
426,0.011291764169209453,0.0
427,0.010696023619733359,0.0
428,-0.006843444663357234,0.0
429,0.057905532072282516,0.0
430,0.05595999411958702,0.0
431,-0.011119938728580497,0.0
432,0.07106009282947229,0.0
433,0.014694396988044436,0.0
434,2.621593157012311,0.0
435,6.986088895886176,0.0
436,-1.904357699322542,0.0
437,0.2585955500458471,0.0
438,0.029456188433142863,0.0
439,-0.09915667015197205,0.0
440,0.13483000811048246,0.0
441,-0.020936054077785187,0.0
442,-0.05141850058508472,0.0
443,-0.07020201427682317,0.0
444,-0.011770649374948611,0.0
445,-0.004018785404646837,0.0
446,0.049534949690590815,0.0
447,-0.035741005811846555,0.0
448,0.06090980921128369,0.0
449,0.09247329099439225,0.0
450,0.3343677499610455,0.0
451,4.747545091069845,0.0
452,4.818489285150993,0.0
453,-2.903139530472779,0.0
454,1.5123623727896378,0.0
455,-0.6587067608891676,0.0
456,0.2416158129229815,0.0
457,-0.18666203432023076,0.0
458,0.05680240192699825,0.0
459,0.08695436256101442,0.0
460,0.053187751009693876,0.0
461,0.0492572194167201,0.0
462,0.05040779256721152,0.0
463,0.05502308531301009,0.0
464,0.10330821730424589,0.0
465,0.07197512398461384,0.0
466,0.13445563404654226,0.0
467,1.1630144592569767,0.0
468,6.586530253497255,0.0
469,1.386894525769572,0.0
470,-1.8174819656830281,0.0
471,1.2415722053698681,0.0
472,-0.4860517986023891,0.0
473,0.32266901932969433,0.0
474,-0.10314999452502382,0.0
475,-0.03657210116807318,0.0
476,0.002566750916377588,0.0
477,0.014948036265307283,0.0
478,0.03774090722216993,0.0
479,0.022139850496454956,0.0
480,-0.0026339229540314896,0.0
481,0.05123409996566852,0.0
482,0.06766699823070425,0.0
483,0.07672784961728243,0.0
484,2.6406499042444316,0.0
485,6.863979107960327,0.0
486,-1.8570966581384536,0.0
487,0.44316316143949264,0.0
488,0.20562997930894109,0.0
489,0.1067995332887547,0.0
490,0.04368209675004786,0.0
491,0.16514690837513152,0.0
492,0.07622895816168518,0.0
493,0.06585082643439183,0.0
494,0.07563740310910697,0.0
495,0.09107376193819804,0.0
496,0.04769948566377453,0.0
497,-0.007964930757922255,0.0
498,-0.07419022199415493,0.0
499,-0.034863322564686376,0.0
500,0.2730553143325073,0.0
501,4.738168289959696,0.0
502,4.841458195828556,0.0
503,-2.9784452463753808,0.0
504,1.5798963736613354,0.0
505,-0.7323830968177164,0.0
506,0.41030899266226356,0.0
507,-0.07170269345259747,0.0
508,0.14953006318047427,0.0
509,0.15494150876225762,0.0
510,0.08011511506646235,0.0
511,0.12372927159249394,0.0
512,0.0907786889445139,0.0
513,0.1156334240364574,0.0
514,0.06552108090377556,0.0
515,0.06729088546285603,0.0
516,0.03912134736647908,0.0
517,1.1164410511812306,0.0
518,6.616491524845205,0.0
519,1.3682680499152011,0.0
520,-1.7044012961542092,0.0
521,1.308976273854215,0.0
522,-0.679378228337806,0.0
523,0.20286085331591835,0.0
524,-0.04303528558525708,0.0
525,0.07366674370844152,0.0
526,0.02522738131850035,0.0
527,-0.0038182899206405246,0.0
528,-0.016654795066153534,0.0
529,0.011790111913536249,0.0
530,0.028892620540485747,0.0
531,0.02221083801465699,0.0
532,-0.12440487524352312,0.0
533,-0.0643616541908289,0.0
534,2.6160963406116773,0.0
535,6.7144638951659195,0.0
536,-1.88934645276915,0.0
537,0.35435122741322395,0.0
538,0.1456345141900957,0.0
539,-0.17524629577341988,0.0
540,0.09589839454498089,0.0
541,0.05449455761819219,0.0
542,0.0881530183132904,0.0
543,-0.0032233407402083893,0.0
544,-0.03723200069340191,0.0
545,0.06333413381710203,0.0
546,0.054149978718531076,0.0
547,0.014154274828384397,0.0
548,0.06878455957840096,0.0
549,0.051735625932173145,0.0
550,0.41077389806675574,0.0
551,4.721929898258385,0.0
552,4.780140803099555,0.0
553,-2.9593470664143404,0.0
554,1.648605029244983,0.0
555,-0.7014786510916221,0.0
556,0.26049991407345635,0.0
557,-0.026000879992789265,0.0
558,-0.040096425477708295,0.0
559,-0.011751539792173447,0.0
560,0.02951027630780794,0.0
561,0.004207795289985973,0.0
562,-0.053905356566203766,0.0
563,-0.09472728224972561,0.0
564,-0.04421041917183408,0.0
565,-0.0011012171723344504,0.0
566,-0.06622107358294343,0.0
567,1.0724133867287509,0.0
568,6.522835328425034,0.0
569,1.29803290769668,0.0
570,-1.831073842998822,0.0
571,1.2098368790832776,0.0
572,-0.6014690683586411,0.0
573,0.3007745546850816,0.0
574,-0.05510173574113352,0.0
575,0.13508315581974745,0.0
576,0.00976806212640248,0.0
577,0.055913933759798654,0.0
578,0.09536530016243563,0.0
579,0.055989281341291615,0.0
580,0.17790459362279668,0.0
581,0.016295912883211538,0.0
582,-0.010989614028612128,0.0
583,-0.02325052433772136,0.0
584,2.669155530602213,0.0
585,6.844762116144768,0.0
586,-2.0669759756837447,0.0
587,0.28154365615907173,0.0
588,0.022724148324262505,0.0
589,-0.05028670518278003,0.0
590,0.1144256932583936,0.0
591,0.005679548764600691,0.0
592,0.031153812346997444,0.0
593,0.030921281510096252,0.0
594,0.02879144814617464,0.0
595,-0.006372246116120871,0.0
596,-0.049440809648057034,0.0
597,0.062219499714834176,0.0
598,0.08747590291853584,0.0
599,0.0474058600727736,0.0
600,0.3337046100705949,0.0
601,4.781335926528047,0.0
602,4.752086141451658,0.0
603,-2.974671436072316,0.0
604,1.550013732140318,0.0
605,-0.6712022669467389,0.0
606,0.3296959133582918,0.0
607,-0.04606628138634611,0.0
608,0.011305700227511158,0.0
609,0.007158529746298815,0.0
610,-0.005245656683440028,0.0
611,0.0552272943445586,0.0
612,0.10829962527114599,0.0
613,-0.02814193765180451,0.0
614,0.04942177781124343,0.0
615,-0.003814420479344204,0.0
616,0.0006435284879191018,0.0
617,1.0174362968688033,0.0
618,6.520269326299329,0.0
619,1.185082816975016,0.0
620,-1.6906962180746536,0.0
621,1.161187712818955,0.0
622,-0.551022391645528,0.0
623,0.2666736177452351,0.0
624,-0.07157226134395099,0.0
625,0.041142180346006724,0.0
626,0.08877736274921513,0.0
627,0.07877577523062967,0.0
628,0.039680139394297216,0.0
629,-0.12571182227754585,0.0
630,-0.06367786242012893,0.0
631,0.022284951568159128,0.0
632,-0.08091342364793995,0.0
633,0.04653054992931506,0.0
634,2.684736793299206,0.0
635,6.77458735123478,0.0
636,-2.0564850750886237,0.0
637,0.38908722119111555,0.0
638,0.15673146089370726,0.0
639,-0.05126573884290811,0.0
640,0.058966488570081396,0.0
641,0.037007814014822005,0.0
642,-0.055769511669758465,0.0
643,0.029442164969317595,0.0
644,0.05919514841047458,0.0
645,0.03634255089901227,0.0
646,-0.048884563659517835,0.0
647,-0.028374893907977733,0.0
648,0.0908632402808097,0.0
649,0.036673763298768744,0.0
650,0.3692542757104158,0.0
651,4.792493348713784,0.0
652,4.789262873659408,0.0
653,-3.0303716865462915,0.0
654,1.5805222801236634,0.0
655,-0.7243898660314031,0.0
656,0.2910532031579107,0.0
657,-0.07299922717794555,0.0
658,0.06556223233297798,0.0
659,-0.02873678316411365,0.0
660,0.04376622994633733,0.0
661,-0.00956160632010489,0.0
662,-0.08958832555856588,0.0
663,0.06641628374359433,0.0
664,-0.013204412061850957,0.0
665,-0.005294236660408815,0.0
666,-0.0719536137401047,0.0
667,1.0633013616070932,0.0
668,6.4646950949541475,0.0
669,1.1714342969813198,0.0
670,-1.8699322533783282,0.0
671,1.085609592635548,0.0
672,-0.6733449891869001,0.0
673,0.20121171357641404,0.0
674,-0.13274577253408545,0.0
675,-0.07916180897008322,0.0
676,0.07078626333678936,0.0
677,-0.07860600180484047,0.0
678,-0.1149118829397176,0.0
679,-0.14657196076819354,0.0
680,-0.05383699098747474,0.0
681,-0.026812960649531897,0.0
682,0.034337924557706075,0.0
683,-0.06812427753745348,0.0
684,2.5995626571347126,0.0
685,6.737587155575508,0.0
686,-2.0828170037766185,0.0
687,0.3180535342736483,0.0
688,0.03702874409423048,0.0
689,-0.07596808270515201,0.0
690,0.006251951085496938,0.0
691,-0.008673164249535566,0.0
692,-0.0832877491408462,0.0
693,-0.10767179927533341,0.0
694,-0.012127802359533355,0.0
695,0.01668126581474514,0.0
696,-0.07073794538239953,0.0
697,0.00737839461827886,0.0
698,-0.02620706315293755,0.0
699,0.014806215050572781,0.0
700,0.2559941698204282,0.0
701,4.876046438233572,0.0
702,4.719549803782806,0.0
703,-2.9911976281281096,0.0
704,1.6040201512512968,0.0
705,-0.7963102230598246,0.0
706,0.3302649892275772,0.0
707,-0.07351609874700701,0.0
708,0.005385012942765679,0.0
709,-0.11968219095890438,0.0
710,0.03778391458891242,0.0
711,-0.08804026985551228,0.0
712,-0.04852836584824066,0.0
713,-0.08661709567444634,0.0
714,-0.03306047826978299,0.0
715,-0.010498065009252235,0.0
716,-0.13335082016092253,0.0
717,1.0134484085978805,0.0
718,6.533579725370941,0.0
719,1.2996606020805355,0.0
720,-1.7704769299765177,0.0
721,1.106490651286193,0.0
722,-0.7070895853974449,0.0
723,0.16443028490258238,0.0
724,-0.15145126542719317,0.0
725,0.04882315036415083,0.0
726,-0.06857238980324384,0.0
727,-0.02938291327336403,0.0
728,-0.03764579028087024,0.0
729,-0.013668653517026964,0.0
730,-0.060109544342211774,0.0
731,0.05334478154456965,0.0
732,-0.05345623149020326,0.0
733,-0.0012575396461655362,0.0
734,2.6738974244658054,0.0
735,6.826263619044294,0.0
736,-2.097288753533796,0.0
737,0.39104866110367376,0.0
738,0.10269568723427938,0.0
739,-0.13751371439958557,0.0
740,0.06426222756519909,0.0
741,-0.10073065222981781,0.0
742,-0.06683793832886428,0.0
743,-0.08044676443810037,0.0
744,-0.05961858224140779,0.0
745,-0.1211548254688975,0.0
746,-0.04206018096327717,0.0
747,-0.06071649466708816,0.0
748,-0.029841386474873246,0.0
749,0.03482606085376204,0.0
750,0.2531814923974126,0.0
751,4.7094681132914245,0.0
752,4.712814442983631,0.0
753,-3.057077675357365,0.0
754,1.4361813277377629,0.0
755,-0.8115725686878947,0.0
756,0.3643334701071284,0.0
757,-0.1077947077357359,0.0
758,0.06415515154193135,0.0
759,-0.07024316438847289,0.0
760,0.022537093079077673,0.0
761,-0.03776038313198788,0.0
762,-0.024221820014142414,0.0
763,0.008750521993786255,0.0
764,-0.09526360370184415,0.0
765,-0.05304864945865921,0.0
766,-0.017583529555323437,0.0
767,1.029416670998097,0.0
768,6.5900871993580425,0.0
769,1.1211578930088182,0.0
770,-1.79561730271458,0.0
771,1.1788222518592018,0.0
772,-0.642906582760272,0.0
773,0.12055858091027645,0.0
774,-0.09844451727299262,0.0
775,0.027396621255554494,0.0
776,-0.07247932150381448,0.0
777,-0.06413938509313805,0.0
778,-0.011726353113594995,0.0
779,0.011290826653363029,0.0
780,-0.09058460447277625,0.0
781,0.04311506367119715,0.0
782,0.00015843600382608927,0.0
783,-0.06298116106496304,0.0
784,2.726782644707368,0.0
785,6.749774813308157,0.0
786,-2.0349949185218166,0.0
787,0.4052654530378016,0.0
788,-0.029054294118741927,0.0
789,-0.058903083160642494,0.0
790,-0.04380598326555458,0.0
791,0.04832061562263861,0.0
792,-0.06364048872841654,0.0
793,0.022286456001240882,0.0
794,-0.005864716491311133,0.0
795,0.14610512261689393,0.0
796,-0.021524300273853873,0.0
797,-0.01964720633161865,0.0
798,0.14496490598281211,0.0
799,0.06997995212582359,0.0
800,0.4282198647217755,0.0
801,4.820893825754673,0.0
802,4.755705023062214,0.0
803,-3.01284631184521,0.0
804,1.588220660562637,0.0
805,-0.751300022670728,0.0
806,0.29208454151035124,0.0
807,-0.03446223403742874,0.0
808,-0.026015743815639064,0.0
809,-0.021024071682893813,0.0
810,0.01991913761226355,0.0
811,-0.012128842595768166,0.0
812,-0.040664677852749485,0.0
813,-0.058314395167906555,0.0
814,0.016234910901897784,0.0
815,-0.013903640417247494,0.0
816,-0.0074384025966432185,0.0
817,1.0548243294761688,0.0
818,6.5528836621396875,0.0
819,1.103309984286929,0.0
820,-1.7183907549740978,0.0
821,1.1583977664389145,0.0
822,-0.6110075315202879,0.0
823,0.18097538524820037,0.0
824,-0.002849150786503024,0.0
825,0.0885442690869386,0.0
826,-0.0029839059064013258,0.0
827,0.03685985808647428,0.0
828,0.005597554566790527,0.0
829,0.024110096430574577,0.0
830,0.006609027249186224,0.0
831,-0.022118638135412177,0.0
832,0.047336508076110104,0.0
833,0.1672203123635398,0.0
834,2.801197642848092,0.0
835,6.86601555548903,0.0
836,-1.9678721011273923,0.0
837,0.45106990403981084,0.0
838,0.13886166310172912,0.0
839,0.059736038616439766,0.0
840,0.17926002568413574,0.0
841,0.17621870984470428,0.0
842,0.13474135406213453,0.0
843,0.0715207452670644,0.0
844,0.12791494819046467,0.0
845,0.09178204364752827,0.0
846,0.02320839738554415,0.0
847,0.05856725172406935,0.0
848,0.04586003385472036,0.0
849,0.04262775017380317,0.0
850,0.3260015049357993,0.0
851,4.862666079400389,0.0
852,4.692070592872568,0.0
853,-2.9357670510885474,0.0
854,1.518606177353238,0.0
855,-0.7946729769738947,0.0
856,0.42345281160501336,0.0
857,-0.09418503787958646,0.0
858,0.045578924236077026,0.0
859,-0.05314007568041113,0.0
860,0.11779766729512968,0.0
861,-0.0005659788820492912,0.0
862,0.05825854222411865,0.0
863,-0.06407258364863194,0.0
864,-0.013036505815053789,0.0
865,-0.01156497055612473,0.0
866,0.020548478168840215,0.0
867,1.1754561020874397,0.0
868,6.535028230726401,0.0
869,1.2376997084082635,0.0
870,-1.7142884132201255,0.0
871,1.2038062003011438,0.0
872,-0.5282963033470427,0.0
873,0.28395720845667083,0.0
874,-0.10809775103931363,0.0
875,-0.010629367759875726,0.0
876,-0.008951625060924947,0.0
877,-0.019009945837200663,0.0
878,-0.034559703513927995,0.0
879,-0.07364149205447197,0.0
880,0.012676933018018227,0.0
881,-0.028491959331060874,0.0
882,-0.03455146606368408,0.0
883,0.00974370206966576,0.0
884,2.7032887586999577,0.0
885,6.853751492849174,0.0
886,-2.1037081670135844,0.0
887,0.4361139548125137,0.0
888,0.05532691454949288,0.0
889,0.052787668411855206,0.0
890,-0.04454336497680715,0.0
891,0.054096388221776724,0.0
892,0.015233902490675012,0.0
893,0.01920743094198666,0.0
894,0.05008624850317375,0.0
895,0.08920508166499228,0.0
896,0.07004899366105709,0.0
897,0.07256196284244076,0.0
898,0.07615092817092356,0.0
899,0.10972867336669645,0.0
900,0.3748214608701216,0.0
901,4.934730136036474,0.0
902,4.718721889860237,0.0
903,-2.845661601188203,0.0
904,1.6592210371433176,0.0
905,-0.7928393119765125,0.0
906,0.3779216960653264,0.0
907,-0.13871743883975035,0.0
908,0.0483394911425948,0.0
909,-0.0009719044622883751,0.0
910,-0.02088499131491547,0.0
911,0.04904855777914871,0.0
912,0.0041709922078647845,0.0
913,-0.05502636976518245,0.0
914,0.057241093648099935,0.0
915,0.09104437510045625,0.0
916,-0.16976166601756992,0.0
917,1.127827617688997,0.0
918,6.631772777435495,0.0
919,1.1085009012172624,0.0
920,-1.6659179668252888,0.0
921,1.148147525542604,0.0
922,-0.5458431468103973,0.0
923,0.3760195988551611,0.0
924,-0.038991091413976886,0.0
925,0.016355204615995114,0.0
926,-0.007291014960727336,0.0
927,0.02529212206117498,0.0
928,0.06662225784146927,0.0
929,0.07718994486631608,0.0
930,0.056709714214044166,0.0
931,0.07869983295273411,0.0
932,0.038235148173152135,0.0
933,0.1129145462138896,0.0
934,2.693097850176692,0.0
935,6.77056519149122,0.0
936,-2.086630622346325,0.0
937,0.42040434718510505,0.0
938,0.040545645547904505,0.0
939,-0.0067728764273618566,0.0
940,-0.05829338092488421,0.0
941,-0.06021669172114113,0.0
942,-0.021078718809893454,0.0
943,0.028729573760083928,0.0
944,0.07712286729588719,0.0
945,0.02224496302885858,0.0
946,0.00044960915024134206,0.0
947,-0.023216276850208526,0.0
948,0.05524824451174732,0.0
949,0.007831391991081339,0.0
950,0.2550885613130545,0.0
951,4.838040238444046,0.0
952,4.605609274229539,0.0
953,-3.029973653264092,0.0
954,1.5512011798476328,0.0
955,-0.7249877797969094,0.0
956,0.39700598703764123,0.0
957,-0.12359717949387504,0.0
958,0.019158956524112754,0.0
959,0.04736149961779963,0.0
960,-0.021894710479302533,0.0
961,-0.05951495844060224,0.0
962,-0.002031960318149631,0.0
963,0.07938220670364336,0.0
964,-0.008485425109481384,0.0
965,-0.06055380804985796,0.0
966,-0.009923427240474084,0.0
967,1.1670605058207746,0.0
968,6.588899115026845,0.0
969,1.2070147941508569,0.0
970,-1.7255383665561503,0.0
971,1.2224574167038347,0.0
972,-0.5695613077913431,0.0
973,0.3296682917523316,0.0
974,0.020933110750477935,0.0
975,0.06900618151600495,0.0
976,0.010038218194142558,0.0
977,-0.05490255183064139,0.0
978,0.02021811721009774,0.0
979,0.09535905013723156,0.0
980,0.06271268680997019,0.0
981,-0.0013696487319863268,0.0
982,-0.003966454180424135,0.0
983,0.1431722543429463,0.0
984,2.7753102232141074,0.0
985,6.8182576703753215,0.0
986,-2.0859683596264196,0.0
987,0.5394822033990377,0.0
988,0.01997583210318791,0.0
989,-0.11473426295745005,0.0
990,0.025401541420505595,0.0
991,-0.08083676236824783,0.0
992,-0.03245728896008968,0.0
993,-0.036371816100793083,0.0
994,0.04434696443692154,0.0
995,-0.041758246726527185,0.0
996,-0.08542541133984179,0.0
997,-0.0432992723192608,0.0
998,-0.07108791393166616,0.0
999,0.02563351020782484,0.0
1000,0.37506734952905707,0.0
1001,4.857613770788203,0.0
1002,4.547256835476545,0.0
1003,-2.9910504146131296,0.0
1004,1.5892010985016245,0.0
1005,-0.7317948455500746,0.0
1006,0.266009943325785,0.0
1007,-0.016122375706666955,0.0
1008,0.10700561878322706,0.0
1009,0.016193742143748316,0.0
1010,-0.004042918354325055,0.0
1011,0.06023441971566044,0.0
1012,0.07684177089977606,0.0
1013,-0.026827172906473427,0.0
1014,0.011134383050874757,0.0
1015,0.06341726694126182,0.0
1016,0.07548392254672175,0.0
1017,1.2305213242764461,0.0
1018,6.601211509226249,0.0
1019,1.0873115626566392,0.0
1020,-1.630721802110346,0.0
1021,1.1719003150959786,0.0
1022,-0.5508547558619683,0.0
1023,0.2770363315462346,0.0
1024,-0.19915543731914503,0.0
1025,-0.09423147642451442,0.0
1026,0.004936882041293325,0.0
1027,0.040843679103445864,0.0
1028,0.022010801074707025,0.0
1029,-0.05415576783876558,0.0
1030,-0.037558679855064406,0.0
1031,0.06847379722514249,0.0
1032,0.011888222850288344,0.0
1033,0.12445645117019016,0.0
1034,2.8061420002911786,0.0
1035,6.854967955476982,0.0
1036,-2.0565318394158107,0.0
1037,0.41690878341246806,0.0
1038,0.044154985581503846,0.0
1039,0.038864448425724965,0.0
1040,0.08841007835983797,0.0
1041,0.055096479128017975,0.0
1042,0.009759847242851147,0.0
1043,0.09276535421643914,0.0
1044,0.10100684021525175,0.0
1045,0.019529529178984782,0.0
1046,0.04911457634162035,0.0
1047,0.08643852396167229,0.0
1048,0.04830327589327873,0.0
1049,-0.011147051074248036,0.0
1050,0.37377012202046234,0.0
1051,4.86428225936781,0.0
1052,4.6154044364332565,0.0
1053,-2.9865615741553104,0.0
1054,1.4977888383858615,0.0
1055,-0.684897149033945,0.0
1056,0.31102453307725997,0.0
1057,-0.05609996514859163,0.0
1058,0.06344522543670628,0.0
1059,-0.003948316194007959,0.0
1060,0.050312127066645396,0.0
1061,0.010115320101926562,0.0
1062,0.10355244482863603,0.0
1063,0.046212815627424554,0.0
1064,-0.016819130841696287,0.0
1065,0.11065700901921365,0.0
1066,-0.00709433023667571,0.0
1067,1.1519294247382046,0.0
1068,6.683358342231499,0.0
1069,1.0963364752469558,0.0
1070,-1.5288327541395952,0.0
1071,1.1086277288827633,0.0
1072,-0.48999614959257715,0.0
1073,0.29554471686730055,0.0
1074,-0.06518687410270732,0.0
1075,0.0828911908655276,0.0
1076,0.0632116432136176,0.0
1077,-0.018100936934922283,0.0
1078,0.017313653074414317,0.0
1079,0.008183483524280886,0.0
1080,0.04915863232976281,0.0
1081,-0.023225928237036383,0.0
1082,0.021463953370662443,0.0
1083,0.1020543917839789,0.0
1084,2.687366773784195,0.0
1085,6.77482668160379,0.0
1086,-2.1124654782700993,0.0
1087,0.5175918744134708,0.0
1088,0.0948303599626621,0.0
1089,0.029652004515858834,0.0
1090,0.0785509164955975,0.0
1091,0.047856609419973245,0.0
1092,-0.02548593715129535,0.0
1093,0.10848241858445432,0.0
1094,0.04180676122230842,0.0
1095,-0.02549648168675795,0.0
1096,0.02981967049283798,0.0
1097,0.13516095900673505,0.0
1098,0.07346425970456798,0.0
1099,0.12019176434139496,0.0
1100,0.4349189369877476,0.0
1101,4.916817931588026,0.0
1102,4.482140463475814,0.0
1103,-3.018315666407178,0.0
1104,1.6184705240582338,0.0
1105,-0.745219901969281,0.0
1106,0.3046021073357615,0.0
1107,-0.09577392332901896,0.0
1108,-0.03693641761127711,0.0
1109,0.026693394933074488,0.0
1110,0.010114861676953446,0.0
1111,0.013160950856426571,0.0
1112,-0.050205152007685896,0.0
1113,-0.005951322394290935,0.0
1114,0.015136300572853584,0.0
1115,-0.06549472855633054,0.0
1116,-0.043200962988009635,0.0
1117,1.069406061680527,0.0
1118,6.489409678477797,0.0
1119,0.8945214729382862,0.0
1120,-1.7364669805842297,0.0
1121,1.1680003879746401,0.0
1122,-0.6602619734844951,0.0
1123,0.19602074548625578,0.0
1124,-0.041132148006379377,0.0
1125,0.005857121138921642,0.0
1126,-0.04726200900057647,0.0
1127,-0.06457715433105636,0.0
1128,0.05944375593123745,0.0
1129,-0.0016189114059810307,0.0
1130,-0.09022593431729205,0.0
1131,-0.055341223738012424,0.0
1132,0.04213948171841811,0.0
1133,-0.040306192298509326,0.0
1134,2.7952881243217993,0.0
1135,6.753790304131032,0.0
1136,-2.1711091344616653,0.0
1137,0.5340186932782056,0.0
1138,0.01718238583689526,0.0
1139,0.027737352356686666,0.0
1140,0.038588366512419245,0.0
1141,-0.059056139403926136,0.0
1142,-0.044372394141072004,0.0
1143,-0.0245097926907565,0.0
1144,0.054182042158764265,0.0
1145,-0.06133621472353126,0.0
1146,-0.10388718072820508,0.0
1147,-0.03973370281094642,0.0
1148,-0.036410505790392345,0.0
1149,-0.08047426856462822,0.0
1150,0.30519312243275115,0.0
1151,4.885786932069592,0.0
1152,4.618988733739711,0.0
1153,-3.0001002120244404,0.0
1154,1.5178015241051497,0.0
1155,-0.8003531167595849,0.0
1156,0.32830828204471274,0.0
1157,-0.15314746929864165,0.0
1158,-0.0736952790479991,0.0
1159,-0.06608475485067639,0.0
1160,-0.02543855735840422,0.0
1161,0.012985382355420863,0.0
1162,-0.04961435038038397,0.0
1163,-0.06303385670878936,0.0
1164,0.01921006750490358,0.0
1165,-0.019434688404809414,0.0
1166,-0.08537472471242377,0.0
1167,1.1790664814913727,0.0
1168,6.636357722521359,0.0
1169,0.9406783448191516,0.0
1170,-1.70779726475909,0.0
1171,1.1854335886623657,0.0
1172,-0.5631922858772229,0.0
1173,0.25645213293784286,0.0
1174,-0.07064108754980339,0.0
1175,0.07631928914025365,0.0
1176,-0.03529048909758896,0.0
1177,0.014203631532655477,0.0
1178,-0.003728176428044714,0.0
1179,-0.03363824733498733,0.0
1180,-0.005551103370878115,0.0
1181,-0.0893900516052688,0.0
1182,-0.07749706362518785,0.0
1183,-0.10952246717248369,0.0
1184,2.6794939708982057,0.0
1185,6.691083286878581,0.0
1186,-2.24441563044397,0.0
1187,0.47121331313756315,0.0
1188,0.017671779415511985,0.0
1189,-0.020618216314195095,0.0
1190,-0.03642341502875765,0.0
1191,-0.06256902570803095,0.0
1192,-0.0478368774974937,0.0
1193,-0.048318411365139584,0.0
1194,-0.06529447243737221,0.0
1195,0.05778746722739386,0.0
1196,-0.10964586202824897,0.0
1197,-0.07792329186295888,0.0
1198,-0.012853898940344083,0.0
1199,-0.06399295312396008,0.0
1200,0.27319408592508804,0.0
1201,4.830343625540454,0.0
1202,4.46635348504901,0.0
1203,-3.076006493713422,0.0
1204,1.3964640449793915,0.0
1205,-0.8963245183426216,0.0
1206,0.2695667964841811,0.0
1207,-0.1088585238671656,0.0
1208,0.02737174197671354,0.0
1209,-0.02257572135364714,0.0
1210,0.059969498420870494,0.0
1211,-0.05103391503938717,0.0
1212,0.12082430738008489,0.0
1213,0.08306251142587381,0.0
1214,-0.004166803587678493,0.0
1215,0.03547122147991614,0.0
1216,-0.04186912065789877,0.0
1217,1.1401706251342245,0.0
1218,6.596172601740339,0.0
1219,0.8984216402629644,0.0
1220,-1.6374913198922756,0.0
1221,0.9650536594929617,0.0
1222,-0.6604383192988192,0.0
1223,0.20889525218189528,0.0
1224,-0.18834220679227887,0.0
1225,-0.05076360459417792,0.0
1226,-0.05463796231369643,0.0
1227,-0.14090480797197244,0.0
1228,-0.10777243280281096,0.0
1229,-0.08079147218092497,0.0
1230,-0.0006206494838775639,0.0
1231,-0.01796339505121818,0.0
1232,-0.007954601359988836,0.0
1233,0.10903613423462302,0.0
1234,2.762274826198979,0.0
1235,6.654479491424837,0.0
1236,-2.138760757810907,0.0
1237,0.4657949215345711,0.0
1238,-0.004751921065617025,0.0
1239,-0.0775558306472873,0.0
1240,-0.05674334914620287,0.0
1241,-0.09662246972437538,0.0
1242,-0.04902550150784499,0.0
1243,-0.09631145662132626,0.0
1244,-0.08354424513409539,0.0
1245,-0.07185467338317911,0.0
1246,0.0485582319961993,0.0
1247,-0.0408708991027801,0.0
1248,-0.008508359927954727,0.0
1249,-0.10847327163911613,0.0
1250,0.3217117662389829,0.0
1251,4.932339279355645,0.0
1252,4.46083949761415,0.0
1253,-2.9540677311779073,0.0
1254,1.561612433433892,0.0
1255,-0.8276522271914536,0.0
1256,0.30818314003553754,0.0
1257,-0.10532349029307903,0.0
1258,-0.02817402584827865,0.0
1259,-0.04591682606125036,0.0
1260,-0.04073215011671265,0.0
1261,-0.0758891299056363,0.0
1262,-0.042580482675540314,0.0
1263,-0.005806522600959558,0.0
1264,-0.08320878184590032,0.0
1265,-0.08764514118770975,0.0
1266,-0.021584702313704227,0.0
1267,1.2097243112013776,0.0
1268,6.6687504789889065,0.0
1269,0.8843678457399534,0.0
1270,-1.606016401530325,0.0
1271,1.0724361621040472,0.0
1272,-0.5839984867106064,0.0
1273,0.2277446122438262,0.0
1274,-0.047345038104504605,0.0
1275,-0.008148685818171806,0.0
1276,-0.08832796911377994,0.0
1277,0.03515531720140202,0.0
1278,-0.032717645512292115,0.0
1279,0.019433084211676104,0.0
1280,0.008679030226942712,0.0
1281,0.055026024415744834,0.0
1282,0.039772252653111545,0.0
1283,-0.055415609974055424,0.0
1284,2.829839887010025,0.0
1285,6.659627107537706,0.0
1286,-2.130300147647648,0.0
1287,0.4848814610094556,0.0
1288,-0.048180128105215735,0.0
1289,-0.05021572405835987,0.0
1290,-0.07207151929818029,0.0
1291,0.024477177350457423,0.0
1292,-0.02729208626845765,0.0
1293,0.07283905423696603,0.0
1294,0.00221096966854328,0.0
1295,-0.009869711536818735,0.0
1296,0.01987585313571779,0.0
1297,0.01728178163500351,0.0
1298,0.1032761393143076,0.0
1299,0.046305698941401366,0.0
1300,0.35676982315193473,0.0
1301,4.987111685465741,0.0
1302,4.572412507524378,0.0
1303,-2.97037879490878,0.0
1304,1.5384284426989383,0.0
1305,-0.7066569938270585,0.0
1306,0.3001778350593727,0.0
1307,-0.03791046091003515,0.0
1308,0.057970379242792955,0.0
1309,0.044598619392762814,0.0
1310,0.042986370631459735,0.0
1311,0.05556548654276726,0.0
1312,0.02582530121326781,0.0
1313,0.09869561388904025,0.0
1314,0.1166577315415771,0.0
1315,0.07055352034020598,0.0
1316,-0.030379220310011362,0.0
1317,1.1915452310323553,0.0
1318,6.750652575595616,0.0
1319,0.9725081694221521,0.0
1320,-1.4503359015669637,0.0
1321,1.1430823887968076,0.0
1322,-0.5118107565094729,0.0
1323,0.22197537223193453,0.0
1324,-0.044392904343816014,0.0
1325,0.11156574521490242,0.0
1326,-0.00557441272647715,0.0
1327,-0.022741280364227498,0.0
1328,0.057246755014823694,0.0
1329,0.003324065787713132,0.0
1330,0.03825993951917407,0.0
1331,0.07174807961920096,0.0
1332,0.02666071552312881,0.0
1333,-0.0061605738950883115,0.0
1334,2.80060100915804,0.0
1335,6.73400924426509,0.0
1336,-2.2149452688915408,0.0
1337,0.480588279904375,0.0
1338,0.051888839300634496,0.0
1339,-0.0032345949526539175,0.0
1340,0.003529555240450854,0.0
1341,0.05506335826187293,0.0
1342,0.03712787645523449,0.0
1343,-0.04870638813577441,0.0
1344,0.05476725818679954,0.0
1345,0.018521695334142108,0.0
1346,0.08463103897514679,0.0
1347,-0.04596051993470299,0.0
1348,-0.01893912268285635,0.0
1349,0.06662524856873979,0.0
1350,0.3514328112699714,0.0
1351,4.944589829487608,0.0
1352,4.338183262742378,0.0
1353,-2.9017949087596104,0.0
1354,1.5762219152719952,0.0
1355,-0.7191663929817492,0.0
1356,0.3477868082550844,0.0
1357,-0.13622969834441664,0.0
1358,0.08335211847178431,0.0
1359,0.07187597168554548,0.0
1360,0.06270279648187746,0.0
1361,0.06346023786936418,0.0
1362,0.1124869246422081,0.0
1363,0.05712870299035296,0.0
1364,0.05060385441255125,0.0
1365,0.08920857611658366,0.0
1366,0.09104728512117563,0.0
1367,1.3317202354291426,0.0
1368,6.69288637502927,0.0
1369,0.9869407471564903,0.0
1370,-1.569199912883887,0.0
1371,1.205687914828593,0.0
1372,-0.5372691880476669,0.0
1373,0.2851237447804892,0.0
1374,-0.06041630000126587,0.0
1375,0.09507524214658475,0.0
1376,0.055823515470386206,0.0
1377,0.0182320885966171,0.0
1378,-0.08684300084654396,0.0
1379,0.025030203329447047,0.0
1380,-0.06816676363870341,0.0
1381,0.0032196723242214984,0.0
1382,0.004174930928698511,0.0
1383,-0.05198618166318818,0.0
1384,2.8480661303801615,0.0
1385,6.707868263289966,0.0
1386,-2.2799875539766115,0.0
1387,0.5241717649508146,0.0
1388,-0.04313558397515356,0.0
1389,-0.13435708408386535,0.0
1390,0.04807869883627625,0.0
1391,0.01667962908796362,0.0
1392,-0.10201636192114161,0.0
1393,-0.01702244451730347,0.0
1394,0.01589252564579418,0.0
1395,0.02851486169304781,0.0
1396,0.006829143873431691,0.0
1397,0.020262260821022005,0.0
1398,0.05931675313669115,0.0
1399,0.0676227688478755,0.0
1400,0.40370225244596286,0.0
1401,5.07482352876374,0.0
1402,4.483732197687607,0.0
1403,-2.970111827410933,0.0
1404,1.6517685467295387,0.0
1405,-0.7391377907198852,0.0
1406,0.3453979244679774,0.0
1407,-0.07140035473475069,0.0
1408,0.01745038967867385,0.0
1409,0.0039609347520952794,0.0
1410,0.07045076179933552,0.0
1411,-0.044029777474603606,0.0
1412,0.04691936864039731,0.0
1413,0.11032621086802075,0.0
1414,0.004794232402181452,0.0
1415,-0.05296403015707984,0.0
1416,0.04180627701527055,0.0
1417,1.2362660183330256,0.0
1418,6.715901813305687,0.0
1419,0.9389182804724924,0.0
1420,-1.6505927816860988,0.0
1421,1.179520476761783,0.0
1422,-0.4595379569213651,0.0
1423,0.2686349273519126,0.0
1424,-0.06349065315658606,0.0
1425,0.06433714264385729,0.0
1426,-0.008037840601531183,0.0
1427,0.046149840017265104,0.0
1428,0.017865425816598487,0.0
1429,-0.039534467156766624,0.0
1430,-0.06426392710408027,0.0
1431,0.009445217589600229,0.0
1432,-0.08458452905801009,0.0
1433,0.005136460816620572,0.0
1434,2.8710751160554877,0.0
1435,6.7988891383896135,0.0
1436,-2.3128983093730136,0.0
1437,0.5121464755150176,0.0
1438,-0.0994615488891519,0.0
1439,0.04434964996149987,0.0
1440,0.05010478015149208,0.0
1441,-0.0025096213765179766,0.0
1442,0.0530580484276993,0.0
1443,-0.009599092221273038,0.0
1444,-0.03726392058553162,0.0
1445,0.008303504239744422,0.0
1446,0.054662324542232396,0.0
1447,0.11111801014319286,0.0
1448,0.13241512554188342,0.0
1449,0.006862488619460538,0.0
1450,0.5200652247036427,0.0
1451,4.990867749103209,0.0
1452,4.460660429957554,0.0
1453,-2.8260795928519977,0.0
1454,1.683822737838527,0.0
1455,-0.7809979700557497,0.0
1456,0.31715279670729846,0.0
1457,-0.14996242043553373,0.0
1458,0.018070856852587913,0.0
1459,0.008601455367215273,0.0
1460,-0.0749338665368007,0.0
1461,0.011733494058074424,0.0
1462,-0.05923947507990548,0.0
1463,-0.051764740514314025,0.0
1464,0.015156522876227208,0.0
1465,-0.06320980819623681,0.0
1466,-0.04733190384708622,0.0
1467,1.2593298189507536,0.0
1468,6.698038046786151,0.0
1469,0.9013454795895476,0.0
1470,-1.545134102923662,0.0
1471,1.0608629854554723,0.0
1472,-0.5908595932879331,0.0
1473,0.23808758743975914,0.0
1474,-0.053596229165764196,0.0
1475,0.0161135464301787,0.0
1476,0.06310125611066114,0.0
1477,0.040225084338505204,0.0
1478,0.0110357367229828,0.0
1479,0.07696815558919463,0.0
1480,-0.014726443360434263,0.0
1481,0.04189898875197504,0.0
1482,0.0387748071060674,0.0
1483,0.06791110957954816,0.0
1484,2.9310406939189533,0.0
1485,6.725182220585677,0.0
1486,-2.258409031398585,0.0
1487,0.5554206515833495,0.0
1488,-0.03652961479397882,0.0
1489,0.022313067621376845,0.0
1490,-0.006909183547326225,0.0
1491,0.0309640425582005,0.0
1492,0.07970935142701581,0.0
1493,-0.07340411816576624,0.0
1494,-0.02098908075071857,0.0
1495,0.0016376865777066527,0.0
1496,0.0034082374438973093,0.0
1497,0.05210592301767865,0.0
1498,-0.026097368150816886,0.0
1499,-0.00810578110304583,0.0
1500,0.3107975976578666,0.0
1501,5.0693915498843545,0.0
1502,4.30997659125185,0.0
1503,-2.9665807710917043,0.0
1504,1.4916333229881154,0.0
1505,-0.8461296340228248,0.0
1506,0.2980042297099291,0.0
1507,-0.00039863024351308174,0.0
1508,0.042104807540631416,0.0
1509,-0.03454657641361624,0.0
1510,0.04579009653481449,0.0
1511,-0.0470404415744958,0.0
1512,0.02882664584151349,0.0
1513,0.02234155064496382,0.0
1514,0.01571561703982455,0.0
1515,0.06745880542995715,0.0
1516,-0.037897845157147045,0.0
1517,1.2633371055333735,0.0
1518,6.742600322798924,0.0
1519,0.8613100235827849,0.0
1520,-1.5227832692822256,0.0
1521,1.0523872579797042,0.0
1522,-0.5478493300148444,0.0
1523,0.23321450211904046,0.0
1524,-0.11456827271140523,0.0
1525,0.012132767519762949,0.0
1526,-0.06212563585491947,0.0
1527,-0.05117524171001292,0.0
1528,-0.06852727273922098,0.0
1529,0.03501970408991839,0.0
1530,-0.10983169231171308,0.0
1531,-0.06788089321685299,0.0
1532,0.01878532237535894,0.0
1533,0.07833265692382464,0.0
1534,2.9566673277162416,0.0
1535,6.63430622709758,0.0
1536,-2.2006568482418816,0.0
1537,0.5470230244862517,0.0
1538,-0.11201658065291531,0.0
1539,-0.07736246132130802,0.0
1540,-0.044835716407385665,0.0
1541,-0.03231386429116641,0.0
1542,-0.09928367738310762,0.0
1543,-0.0902099602238943,0.0
1544,-0.1151688492921619,0.0
1545,-0.03834612450369935,0.0
1546,-0.07268890945728354,0.0
1547,-0.07220555761409361,0.0
1548,-0.10859463137142678,0.0
1549,-0.23605022966978578,0.0
1550,0.23427132907078804,0.0
1551,4.920991444433891,0.0
1552,4.218621400724841,0.0
1553,-3.0979024803397293,0.0
1554,1.431165709020863,0.0
1555,-0.8919700172452316,0.0
1556,0.19857664092136232,0.0
1557,-0.1524399098212916,0.0
1558,-0.10261129765889934,0.0
1559,-0.03277292155212905,0.0
1560,-0.03802236966939897,0.0
1561,-0.11229993599628021,0.0
1562,-0.048174243231014796,0.0
1563,0.05281561390533468,0.0
1564,0.07764801224935768,0.0
1565,0.04111961749267983,0.0
1566,0.07902761064004299,0.0
1567,1.1954308360415808,0.0
1568,6.651923505809317,0.0
1569,0.7058625836025475,0.0
1570,-1.5924081211682946,0.0
1571,1.0100324865123496,0.0
1572,-0.6264581231376578,0.0
1573,0.11993491838260731,0.0
1574,-0.049884474183124014,0.0
1575,-0.05314283100214036,0.0
1576,-0.07342647407944763,0.0
1577,-0.08315054817616264,0.0
1578,-0.07466380890330583,0.0
1579,-0.059322085081384625,0.0
1580,-0.03130376791882249,0.0
1581,-0.012507045943586849,0.0
1582,-0.0320406764893847,0.0
1583,0.019684354089756738,0.0
1584,2.821646996544718,0.0
1585,6.602642808772252,0.0
1586,-2.4254730380439895,0.0
1587,0.5807202958159822,0.0
1588,-0.14436324753750837,0.0
1589,0.01032908057078015,0.0
1590,-0.08515981094188019,0.0
1591,-0.05113318782359951,0.0
1592,-0.09646875901892152,0.0
1593,-0.044444229180803194,0.0
1594,-0.07206380571278968,0.0
1595,-0.11755161762766908,0.0
1596,0.09472072393261272,0.0
1597,-0.05628199374376075,0.0
1598,-0.0504568267920835,0.0
1599,-0.04555034918799925,0.0
1600,0.35299607728989324,0.0
1601,4.993687982007413,0.0
1602,4.308036557983889,0.0
1603,-2.976344567346046,0.0
1604,1.5919795952767979,0.0
1605,-0.8401091894056197,0.0
1606,0.2796508363262625,0.0
1607,-0.17536928557476994,0.0
1608,-0.06901027510316114,0.0
1609,-0.0004783391797023723,0.0
1610,-0.11857671344123308,0.0
1611,-0.07123886499158837,0.0
1612,-0.11377678834853455,0.0
1613,-0.024161833523459554,0.0
1614,-0.09843667956860204,0.0
1615,-0.08492477427553856,0.0
1616,0.02129142355994139,0.0
1617,1.1728265746496196,0.0
1618,6.608612131349326,0.0
1619,0.7354389197280763,0.0
1620,-1.598654677089961,0.0
1621,0.9972095945712671,0.0
1622,-0.6181550077416373,0.0
1623,0.07473058772145456,0.0
1624,0.021376008500956778,0.0
1625,-0.007338624389857863,0.0
1626,-0.021569355048816588,0.0
1627,-0.08690744927653105,0.0
1628,-0.07577291621343563,0.0
1629,-0.10845601499339994,0.0
1630,-0.16669191864195165,0.0
1631,-0.10851389288976107,0.0
1632,-0.08561511073329768,0.0
1633,-0.11221750174490186,0.0
1634,2.7810784878960653,0.0
1635,6.475264832336931,0.0
1636,-2.343776110982674,0.0
1637,0.4626406425622206,0.0
1638,-0.2087760071582938,0.0
1639,-0.042121983719576706,0.0
1640,-0.0705977731036675,0.0
1641,-0.0747655316547571,0.0
1642,-0.17787955884971335,0.0
1643,-0.0203500186607065,0.0
1644,-0.1051047836857212,0.0
1645,-0.01311831036233474,0.0
1646,-0.05762052951441642,0.0
1647,-0.19567399372379546,0.0
1648,-0.1418906915388961,0.0
1649,-0.12405288972698852,0.0
1650,0.2323607251390736,0.0
1651,4.982160521331701,0.0
1652,4.211073803231324,0.0
1653,-2.981509207414171,0.0
1654,1.4414772655802468,0.0
1655,-0.8877657362258972,0.0
1656,0.2758566311690751,0.0
1657,-0.3035634671538226,0.0
1658,-0.05965585162838482,0.0
1659,-0.15704186434882766,0.0
1660,-0.10475128920933191,0.0
1661,-0.0653706150822127,0.0
1662,-0.07894800894821605,0.0
1663,-0.2617413572464266,0.0
1664,-0.23591087928490023,0.0
1665,-0.10307759637023353,0.0
1666,-0.16478614361377938,0.0
1667,1.2040198164221945,0.0
1668,6.664280315929929,0.0
1669,0.6271270704429164,0.0
1670,-1.690275906925744,0.0
1671,0.8441712147562017,0.0
1672,-0.6426705797435712,0.0
1673,0.02278071998043575,0.0
1674,-0.19590093746456003,0.0
1675,-0.04189392394853834,0.0
1676,-0.12759842520455483,0.0
1677,-0.09976578178818807,0.0
1678,-0.10604488041413085,0.0
1679,0.003634643443117813,0.0
1680,-0.05358290678345558,0.0
1681,-0.07652000471762704,0.0
1682,0.00405294483231948,0.0
1683,-0.15095805049931135,0.0
1684,2.791409820273037,0.0
1685,6.579665361987099,0.0
1686,-2.341541626215222,0.0
1687,0.46795139687793164,0.0
1688,-0.20098172074590864,0.0
1689,-0.13030721952538604,0.0
1690,-0.17763296574286427,0.0
1691,-0.01978553338392429,0.0
1692,-0.11200108399837683,0.0
1693,-0.12056722125611644,0.0
1694,-0.03702455158052913,0.0
1695,-0.1365674651707062,0.0
1696,-0.10359236207153304,0.0
1697,-0.1420375956484845,0.0
1698,-0.09381913428950497,0.0
1699,-0.03156945350363019,0.0
1700,0.2970361917923777,0.0
1701,5.024540840462115,0.0
1702,4.292313658119742,0.0
1703,-3.0535497344842453,0.0
1704,1.4609352856009081,0.0
1705,-0.9283046773800097,0.0
1706,0.18422796163616548,0.0
1707,-0.1636337010395414,0.0
1708,0.01797432950748505,0.0
1709,-0.09631525724698219,0.0
1710,-0.0704194554177135,0.0
1711,-0.05703574683100008,0.0
1712,-0.06377272451432449,0.0
1713,-0.054686786342702215,0.0
1714,-0.1479246121171201,0.0
1715,-0.026012837073432594,0.0
1716,-0.050334029201774044,0.0
1717,1.2175353992358207,0.0
1718,6.63279234139818,0.0
1719,0.6033541490065161,0.0
1720,-1.663552373396836,0.0
1721,1.0032457583840078,0.0
1722,-0.643802679982089,0.0
1723,0.08288333862824171,0.0
1724,-0.19763563469875645,0.0
1725,-0.06282956824711211,0.0
1726,-0.12311001035920294,0.0
1727,-0.07644840150627745,0.0
1728,-0.12966925743206545,0.0
1729,-0.17749930241076103,0.0
1730,-0.11952476248400543,0.0
1731,-0.13855882873595957,0.0
1732,-0.040002949135497685,0.0
1733,-0.14516229463409336,0.0
1734,2.8958790080246635,0.0
1735,6.624080915851357,0.0
1736,-2.3661116293716233,0.0
1737,0.5246080754151045,0.0
1738,-0.18577920944973067,0.0
1739,-0.14035722047960436,0.0
1740,-0.06775222597981005,0.0
1741,-0.1217323746430778,0.0
1742,-0.0960582654503443,0.0
1743,-0.10426396350156303,0.0
1744,-0.09778008566295196,0.0
1745,-0.08199797189461484,0.0
1746,-0.06179859057139006,0.0
1747,-0.11669336121544222,0.0
1748,-0.016352034751411407,0.0
1749,-0.05763393233206476,0.0
1750,0.34685377392754246,0.0
1751,5.031691311191366,0.0
1752,4.190486508263332,0.0
1753,-2.9926939299735147,0.0
1754,1.5539760226378534,0.0
1755,-0.8096923077009088,0.0
1756,0.3146966230632642,0.0
1757,-0.1841274386280508,0.0
1758,0.05447785089581126,0.0
1759,0.06751403199771638,0.0
1760,-0.029088870765082563,0.0
1761,0.056159248717134826,0.0
1762,-0.0022465391568859587,0.0
1763,-0.04357137597227429,0.0
1764,0.05143071180277993,0.0
1765,0.0008364036112641776,0.0
1766,-0.025202154470833717,0.0
1767,1.1874664213620179,0.0
1768,6.6888644410211615,0.0
1769,0.7142624130838492,0.0
1770,-1.5765162230494192,0.0
1771,0.9284523174368755,0.0
1772,-0.6973592457056296,0.0
1773,0.2020654674029684,0.0
1774,-0.08241685317396882,0.0
1775,0.0011816630070849155,0.0
1776,0.002814007589983597,0.0
1777,-0.13363911062832728,0.0
1778,-0.076617215421356,0.0
1779,-0.06735712858200238,0.0
1780,-0.10787625418136357,0.0
1781,-0.00904992170941699,0.0
1782,-0.04319219286332824,0.0
1783,0.11394059618372884,0.0
1784,2.9386982854760166,0.0
1785,6.578517705440621,0.0
1786,-2.292389536315933,0.0
1787,0.6280825283154675,0.0
1788,-0.1926618707907164,0.0
1789,-0.05525156065255332,0.0
1790,-0.027285603853821106,0.0
1791,-0.036764428253724765,0.0
1792,-0.11217063840558139,0.0
1793,0.007416889340408243,0.0
1794,0.015365122170584802,0.0
1795,-0.022555466017318483,0.0
1796,-0.0044511358664157084,0.0
1797,-0.05341325729987377,0.0
1798,0.052360649806663453,0.0
1799,0.042251061022375275,0.0
1800,0.3659369430986861,0.0
1801,5.084398918489393,0.0
1802,4.20639487414664,0.0
1803,-2.8646655040977067,0.0
1804,1.6990360841859833,0.0
1805,-0.7729076107999164,0.0
1806,0.3147726195624385,0.0
1807,-0.08297906321181689,0.0
1808,0.09387484396993229,0.0
1809,0.04339857661004323,0.0
1810,0.010723854618417013,0.0
1811,-0.01302770113970957,0.0
1812,-0.0033449125313969063,0.0
1813,-0.012498215172323267,0.0
1814,2.8377777751233428e-05,0.0
1815,0.025185764027679067,0.0
1816,0.08145744787705252,0.0
1817,1.2090130521933302,0.0
1818,6.757521923860257,0.0
1819,0.7294110632545266,0.0
1820,-1.5002878136206048,0.0
1821,1.0638417133601215,0.0
1822,-0.5690835876182172,0.0
1823,0.3179927417166879,0.0
1824,-0.1627288177870781,0.0
1825,0.004527731364556052,0.0
1826,0.11999264924258107,0.0
1827,0.031158009581060304,0.0
1828,-0.03150272807473638,0.0
1829,0.042289378493384475,0.0
1830,0.01740955952379216,0.0
1831,0.06114808295724031,0.0
1832,-0.02582000642245702,0.0
1833,0.035149934646701714,0.0
1834,3.0135524818692283,0.0
1835,6.614146331439686,0.0
1836,-2.3868694732448135,0.0
1837,0.6693483259823919,0.0
1838,-0.08779928697319613,0.0
1839,0.025722795320236063,0.0
1840,0.10075609298253219,0.0
1841,0.0030550649671207313,0.0
1842,-0.05433189144600207,0.0
1843,-0.029443076565630794,0.0
1844,0.01893288653603127,0.0
1845,-0.05390526863619634,0.0
1846,-0.04428925526614957,0.0
1847,0.050481603392038256,0.0
1848,-0.023981770326212307,0.0
1849,0.030411864993701222,0.0
1850,0.3609171899754067,0.0
1851,5.11911521360543,0.0
1852,4.18155570599947,0.0
1853,-2.9635255120983017,0.0
1854,1.6228830746420222,0.0
1855,-0.7921774223801215,0.0
1856,0.4368294346201974,0.0
1857,-0.04623063363979869,0.0
1858,0.05535623235945598,0.0
1859,0.13666871643334288,0.0
1860,0.10492809316545121,0.0
1861,-0.0058047690588874865,0.0
1862,0.05538920428900149,0.0
1863,0.006674903924082619,0.0
1864,-0.08333898163615339,0.0
1865,0.05214422513861122,0.0
1866,-0.021381031229517712,0.0
1867,1.2266203535672937,0.0
1868,6.657113792628819,0.0
1869,0.6274728813526032,0.0
1870,-1.4411197142117518,0.0
1871,0.9087960002130665,0.0
1872,-0.6553672893193477,0.0
1873,0.16848162281223686,0.0
1874,-0.11140592874801548,0.0
1875,0.0016766768625023389,0.0
1876,0.045915831995108805,0.0
1877,-0.03793734545570182,0.0
1878,-0.07378745043122414,0.0
1879,-0.0032485052163677176,0.0
1880,-0.04515560237654655,0.0
1881,-0.02981253528356541,0.0
1882,-0.01705240209993638,0.0
1883,0.10098718837000563,0.0
1884,3.0050208046328524,0.0
1885,6.714476621413724,0.0
1886,-2.384986452449954,0.0
1887,0.5730163443457065,0.0
1888,-0.052881340697722067,0.0
1889,-0.0442526205623614,0.0
1890,-0.024213230388465044,0.0
1891,0.035658619644999986,0.0
1892,0.0020766764322569754,0.0
1893,0.02543434627234672,0.0
1894,0.03962611024901731,0.0
1895,0.07513821031245169,0.0
1896,-0.01967609356733175,0.0
1897,0.1121599542903364,0.0
1898,0.08339983259952266,0.0
1899,0.0706093338240088,0.0
1900,0.44783983826084395,0.0
1901,5.127243235301138,0.0
1902,4.223086216861641,0.0
1903,-2.9526226143926095,0.0
1904,1.6908790817350514,0.0
1905,-0.7424604125587345,0.0
1906,0.32748077766247086,0.0
1907,-0.11663406612215971,0.0
1908,0.050749840652645095,0.0
1909,-0.0018183161904995557,0.0
1910,0.04708839839829709,0.0
1911,0.08927671365263055,0.0
1912,0.015398059601423262,0.0
1913,0.0036004564659664912,0.0
1914,0.037205179754018575,0.0
1915,0.09621359311101053,0.0
1916,-0.03667701087418441,0.0
1917,1.314485772728292,0.0
1918,6.777012481544805,0.0
1919,0.5778779026410976,0.0
1920,-1.35803814119096,0.0
1921,0.9542177301315478,0.0
1922,-0.49560587116193927,0.0
1923,0.29552277611271904,0.0
1924,0.007973957954219797,0.0
1925,0.005786623471666901,0.0
1926,0.021334657661806783,0.0
1927,0.044236112555938546,0.0
1928,0.10862920584025931,0.0
1929,0.01630099857768697,0.0
1930,-0.04343592077260179,0.0
1931,0.08387636663573365,0.0
1932,0.027632205968071123,0.0
1933,0.02251601372345148,0.0
1934,2.9944828239349692,0.0
1935,6.4736134496036675,0.0
1936,-2.4174710291728614,0.0
1937,0.6651547896262232,0.0
1938,-0.14118721853249816,0.0
1939,-0.035216887633065685,0.0
1940,-0.08456209834922819,0.0
1941,-0.06563244045225197,0.0
1942,-0.06620089779538167,0.0
1943,-0.15623171638186126,0.0
1944,0.00515182220522295,0.0
1945,-0.06269066923914128,0.0
1946,-0.027211846485395444,0.0
1947,0.008655604627117432,0.0
1948,-0.05492930488020492,0.0
1949,-0.035338608388451744,0.0
1950,0.399023273609728,0.0
1951,5.215373002358024,0.0
1952,4.291215993774157,0.0
1953,-2.9030093978149902,0.0
1954,1.6155167514066955,0.0
1955,-0.6968924661679973,0.0
1956,0.4169361184989192,0.0
1957,-0.051229092610930164,0.0
1958,0.08170370026399427,0.0
1959,0.04330392824593727,0.0
1960,0.008050902227600295,0.0
1961,0.04076025318999388,0.0
1962,-0.005405010580319346,0.0
1963,0.03187528921820095,0.0
1964,0.07097317839420267,0.0
1965,-0.005714238716104745,0.0
1966,0.017466658495956196,0.0
1967,1.3059428342848676,0.0
1968,6.818999331255334,0.0
1969,0.6215067209673932,0.0
1970,-1.388564692550555,0.0
1971,1.1688674741454583,0.0
1972,-0.46380698965294753,0.0
1973,0.20427148946766804,0.0
1974,-0.0016579313425138797,0.0
1975,0.006058374565374822,0.0
1976,0.0016500317906315357,0.0
1977,0.024892055878051544,0.0
1978,0.07528165160565853,0.0
1979,0.003052991080838542,0.0
1980,0.023432719121121055,0.0
1981,-0.010986300977701268,0.0
1982,-0.07129282660674337,0.0
1983,0.08601035618981281,0.0
1984,2.957958346768097,0.0
1985,6.580742571467333,0.0
1986,-2.3737729115480537,0.0
1987,0.6152865130797175,0.0
1988,-0.044468212433125515,0.0
1989,-0.02234202932322707,0.0
1990,0.09550201889919091,0.0
1991,0.035809524801627815,0.0
1992,0.06675438847829747,0.0
1993,0.00825086750115817,0.0
1994,0.06044973315562674,0.0
1995,0.04132188142702627,0.0
1996,0.06499667572381297,0.0
1997,0.042615034302510214,0.0
1998,-0.07773185480140757,0.0
1999,0.0711340661710624,0.0
2000,0.5135561758390957,0.0
2001,5.092163342961954,0.0
2002,4.2099067112631,0.0
2003,-2.8825211119210006,0.0
2004,1.6122110495068604,0.0
2005,-0.8496536291908887,0.0
2006,0.280085024309303,0.0
2007,-0.09366231244826717,0.0
2008,-0.10923233743121022,0.0
2009,0.04952286547773716,0.0
2010,0.016301495527835975,0.0
2011,-0.07619971461903662,0.0
2012,-0.03113129287100588,0.0
2013,0.00450210259568375,0.0
2014,0.005489027319724497,0.0
2015,-0.030603316918050398,0.0
2016,-0.0214556799333749,0.0
2017,1.3305173819703022,0.0
2018,6.760576910966005,0.0
2019,0.6425644655616578,0.0
2020,-1.3890318028697024,0.0
2021,0.9291045669513465,0.0
2022,-0.5256608091631043,0.0
2023,0.21018128293453242,0.0
2024,-0.05974606115307564,0.0
2025,0.06234053708828591,0.0
2026,0.06845820489707152,0.0
2027,0.008175657725067563,0.0
2028,0.08447839472538382,0.0
2029,0.009149839050745158,0.0
2030,-0.05243772245118155,0.0
2031,-0.03981641622173645,0.0
2032,0.060167351961153824,0.0
2033,0.003022710277638334,0.0
2034,2.9745190087810536,0.0
2035,6.61512844737693,0.0
2036,-2.3865472763153277,0.0
2037,0.6995171058355282,0.0
2038,-0.20326129876378538,0.0
2039,0.022806856404321132,0.0
2040,0.044525410080795566,0.0
2041,0.09929777089224248,0.0
2042,-0.03361250822876105,0.0
2043,0.0005296783023260573,0.0
2044,-0.02191838779831534,0.0
2045,0.12363066470641296,0.0
2046,0.006721543404353995,0.0
2047,-0.0054896606046718616,0.0
2048,0.08695266445167524,0.0
2049,-0.026725321496985723,0.0
2050,0.4132485152624745,0.0
2051,5.0058428720693815,0.0
2052,4.215351674679551,0.0
2053,-2.804448811322455,0.0
2054,1.5779914305598481,0.0
2055,-0.8187351751533246,0.0
2056,0.2884785675497515,0.0
2057,-0.09867377919664375,0.0
2058,0.0007279440981831573,0.0
2059,-0.0039162902026188585,0.0
2060,-0.00935618500992218,0.0
2061,0.005434555984624858,0.0
2062,-0.024161376015997816,0.0
2063,0.051191490417857574,0.0
2064,0.03899210295222011,0.0
2065,-0.0056461094594287865,0.0
2066,-0.06168567142622534,0.0
2067,1.3120296636345627,0.0
2068,6.774417963659502,0.0
2069,0.4864613191019936,0.0
2070,-1.4032560715281255,0.0
2071,1.0513605289444328,0.0
2072,-0.5755076447247797,0.0
2073,0.26405691689068295,0.0
2074,-0.012360904800928926,0.0
2075,0.0825520939175755,0.0
2076,0.03451734454924145,0.0
2077,0.07964780586527923,0.0
2078,-0.006821100003933649,0.0
2079,0.0429584297788546,0.0
2080,-0.01908012042100856,0.0
2081,0.056254484126112114,0.0
2082,0.08075318701811374,0.0
2083,0.09963980198465087,0.0
2084,3.04489793897565,0.0
2085,6.541750987431956,0.0
2086,-2.440019724438335,0.0
2087,0.7141256003218852,0.0
2088,-0.33532753956079653,0.0
2089,-0.09775847505872082,0.0
2090,-0.06146641521701038,0.0
2091,-0.0463088523042988,0.0
2092,-0.1121022109090835,0.0
2093,-0.14449467245360947,0.0
2094,-0.09546821188318161,0.0
2095,-0.052825672374869875,0.0
2096,-0.08082512823696977,0.0
2097,-0.10221688519394101,0.0
2098,0.026730594928744217,0.0
2099,-0.04478930857063219,0.0
2100,0.37594606002604236,0.0
2101,5.154694310539452,0.0
2102,4.160881600352056,0.0
2103,-2.9220027408805738,0.0
2104,1.5974571615686397,0.0
2105,-0.7784647411951199,0.0
2106,0.29557497134656696,0.0
2107,-0.1399089621011905,0.0
2108,-0.0402010241198782,0.0
2109,-0.05893707638679169,0.0
2110,-0.030101969690123943,0.0
2111,-0.04495943104213694,0.0
2112,0.010413939507355648,0.0
2113,0.04476316378921215,0.0
2114,-0.06463918938987234,0.0
2115,-0.007402109434008781,0.0
2116,-0.038903086378687696,0.0
2117,1.2395426345565081,0.0
2118,6.798512761571436,0.0
2119,0.5252511074470083,0.0
2120,-1.4226449325066552,0.0
2121,0.9738278239089739,0.0
2122,-0.5114732722950052,0.0
2123,0.166894468903335,0.0
2124,-0.024561907231862676,0.0
2125,-0.013862835167537405,0.0
2126,-0.012931930466129116,0.0
2127,-0.012996054150332855,0.0
2128,-0.06532509669781036,0.0
2129,-0.028594895317493686,0.0
2130,0.01837035639818603,0.0
2131,-0.055845573144627306,0.0
2132,-0.005616143034953763,0.0
2133,-0.0019544163884918295,0.0
2134,2.9256395815472303,0.0
2135,6.498544658041871,0.0
2136,-2.4122099133152535,0.0
2137,0.6808452088610625,0.0
2138,-0.08181496356915363,0.0
2139,0.002308947118543951,0.0
2140,-0.05899832014613411,0.0
2141,0.006037252672716445,0.0
2142,-0.13831148837529528,0.0
2143,0.07923341319752247,0.0
2144,-0.02970324894391921,0.0
2145,0.0523713876258494,0.0
2146,-0.02477495467683612,0.0
2147,0.007204397203730558,0.0
2148,0.02271658696707586,0.0
2149,0.025195442629595728,0.0
2150,0.4284265626076556,0.0
2151,5.166366080735864,0.0
2152,4.16202301508104,0.0
2153,-2.876906175418072,0.0
2154,1.464947228354871,0.0
2155,-0.7923856027566826,0.0
2156,0.2881725022992241,0.0
2157,-0.10883213064154651,0.0
2158,-0.03672184543793121,0.0
2159,-0.0637993434512587,0.0
2160,-0.03122887948934593,0.0
2161,-0.003323862988927888,0.0
2162,-0.08394474062035948,0.0
2163,-0.05262403335403078,0.0
2164,-0.06832333320152559,0.0
2165,-0.06949172312712323,0.0
2166,-0.05485476556778036,0.0
2167,1.3119768610254845,0.0
2168,6.753356878101852,0.0
2169,0.567636850063912,0.0
2170,-1.3982510296319661,0.0
2171,0.9825376098209884,0.0
2172,-0.4298566813823263,0.0
2173,0.19746646050814054,0.0
2174,-0.05001840022243528,0.0
2175,-0.01668193416069834,0.0
2176,-0.05804220589799139,0.0
2177,-0.012651220928362591,0.0
2178,0.020778763607161105,0.0
2179,-0.026876473090140802,0.0
2180,-0.06746021982239281,0.0
2181,-0.06519873026098173,0.0
2182,-0.00654353407600655,0.0
2183,0.025231426029251255,0.0
2184,2.997080776730454,0.0
2185,6.6085349377145945,0.0
2186,-2.4282887441957723,0.0
2187,0.7356471736881345,0.0
2188,-0.26869380120126535,0.0
2189,0.058649468578758635,0.0
2190,-0.04574255626948277,0.0
2191,-0.00683091492280684,0.0
2192,-0.004187111004313176,0.0
2193,0.013940268563508095,0.0
2194,0.13137523380053256,0.0
2195,-0.12943406102428395,0.0
2196,-0.0280619340381181,0.0
2197,0.01904681075511565,0.0
2198,0.05144785675069101,0.0
2199,-0.010222978594888722,0.0
2200,0.3935125503316754,0.0
2201,5.2051152016247615,0.0
2202,4.156558208428565,0.0
2203,-2.9301902240587374,0.0
2204,1.6229200040379073,0.0
2205,-0.8538557877745641,0.0
2206,0.32551539323259615,0.0
2207,-0.1831167988365968,0.0
2208,0.04533879276110447,0.0
2209,-0.017437692941896454,0.0
2210,-0.05903844815695859,0.0
2211,0.025718574628620233,0.0
2212,-0.11909067948903199,0.0
2213,-0.04866798393571943,0.0
2214,-0.12095064048312401,0.0
2215,-0.04233103486649362,0.0
2216,-0.11460276247063889,0.0
2217,1.298199180017786,0.0
2218,6.827295891395051,0.0
2219,0.4037507691426363,0.0
2220,-1.3044607665309123,0.0
2221,0.943644319063622,0.0
2222,-0.5666542145722391,0.0
2223,0.2618539382119803,0.0
2224,-0.15796557609308648,0.0
2225,-0.03472110073110697,0.0
2226,0.004545636645440308,0.0
2227,-0.014097715016849859,0.0
2228,-0.009957013133975338,0.0
2229,0.03311117921304429,0.0
2230,-0.06181301418105369,0.0
2231,-0.02538097772329867,0.0
2232,-0.011508035379845773,0.0
2233,0.05888346569769013,0.0
2234,3.093684567661911,0.0
2235,6.582939298076574,0.0
2236,-2.4457588314018706,0.0
2237,0.6554432146372314,0.0
2238,-0.12925843874496437,0.0
2239,0.012166427791985568,0.0
2240,-0.08853177733187799,0.0
2241,-0.03305973081254205,0.0
2242,-0.04176816999323408,0.0
2243,-0.06066624969294952,0.0
2244,-0.02024931050621904,0.0
2245,0.005245050760284642,0.0
2246,-0.01368409413309454,0.0
2247,0.054951267010197126,0.0
2248,0.07015371462915901,0.0
2249,0.010205717275482891,0.0
2250,0.47890137213412365,0.0
2251,5.283618642103275,0.0
2252,4.10278584782531,0.0
2253,-2.9255268879512832,0.0
2254,1.5980703324090004,0.0
2255,-0.832846097872103,0.0
2256,0.35692761158127895,0.0
2257,-0.1045012718177193,0.0
2258,0.014987674174192401,0.0
2259,-0.06146628222170306,0.0
2260,-0.017626241775172958,0.0
2261,-0.09038880291711662,0.0
2262,0.031858284829637894,0.0
2263,0.014782512742510807,0.0
2264,-0.017304529307653006,0.0
2265,-0.10892764100974549,0.0
2266,-0.19183227070910674,0.0
2267,1.3259056934983986,0.0
2268,6.71321101747663,0.0
2269,0.41000232137541914,0.0
2270,-1.40787956749926,0.0
2271,0.8418282425590429,0.0
2272,-0.5296382229916697,0.0
2273,0.18747101171772015,0.0
2274,-0.0773298628311199,0.0
2275,-0.07129838901344442,0.0
2276,-0.06391220839779155,0.0
2277,-0.0796128581734536,0.0
2278,-0.11161191408885938,0.0
2279,0.019205374007489603,0.0
2280,-0.05845111315597867,0.0
2281,-0.03296389570035496,0.0
2282,-0.024833210284587626,0.0
2283,0.010120742834002654,0.0
2284,3.0766824144414042,0.0
2285,6.534564362057204,0.0
2286,-2.433678337960303,0.0
2287,0.7780488170831549,0.0
2288,-0.2154358945235886,0.0
2289,0.015835104447412037,0.0
2290,-0.02979113811639591,0.0
2291,-0.05193471318484537,0.0
2292,-0.039752847497925035,0.0
2293,-0.010564386054582809,0.0
2294,-0.08267272129822767,0.0
2295,-0.03358328711563714,0.0
2296,-0.05959998381553033,0.0
2297,-0.07725832866063434,0.0
2298,-0.022682553287375402,0.0
2299,-0.06191211580858515,0.0
2300,0.3135899594245328,0.0
2301,5.1963916333428495,0.0
2302,4.025875666114896,0.0
2303,-2.9631186589523955,0.0
2304,1.5707413421031609,0.0
2305,-0.7826994103173758,0.0
2306,0.1879093856166652,0.0
2307,-0.15496823378681104,0.0
2308,-0.05314767054872695,0.0
2309,0.027237312344290762,0.0
2310,-0.04563183537571715,0.0
2311,-0.08018998602625112,0.0
2312,-0.029179973648657404,0.0
2313,-0.03317647779920777,0.0
2314,-0.02663313061241889,0.0
2315,-0.007634773304991977,0.0
2316,-0.08213350223834626,0.0
2317,1.2922100880841676,0.0
2318,6.7592436212763864,0.0
2319,0.37642877248266005,0.0
2320,-1.3330756465951799,0.0
2321,0.8829779171845806,0.0
2322,-0.6006119731782956,0.0
2323,0.12473036806824751,0.0
2324,-0.1148191073600082,0.0
2325,-0.05313590411825522,0.0
2326,-0.08395127335233231,0.0
2327,-0.012313315708784738,0.0
2328,-0.08169364186574136,0.0
2329,-0.04225272877171223,0.0
2330,-0.09508433710082825,0.0
2331,-0.01233886357994186,0.0
2332,-0.10929317554085267,0.0
2333,0.022013290224242546,0.0
2334,3.0302632766008917,0.0
2335,6.563949840914811,0.0
2336,-2.4326686212659916,0.0
2337,0.7528960124365941,0.0
2338,-0.1252738398945472,0.0
2339,0.06871400136836767,0.0
2340,0.009745581144653955,0.0
2341,-0.09995521740585941,0.0
2342,0.07689982352039854,0.0
2343,-0.018506549750298223,0.0
2344,-0.03265750988236754,0.0
2345,0.010102960748553658,0.0
2346,0.024441354303306625,0.0
2347,-0.00731914515926578,0.0
2348,0.05560081272751039,0.0
2349,-0.042222841282277906,0.0
2350,0.35584848972989486,0.0
2351,5.187335626327361,0.0
2352,4.009648904234134,0.0
2353,-2.9657875304114985,0.0
2354,1.5491408260054402,0.0
2355,-0.7578769217534027,0.0
2356,0.28408150071976046,0.0
2357,-0.004579939222298102,0.0
2358,0.0233308020072504,0.0
2359,-0.07663627017749293,0.0
2360,0.04086260695692724,0.0
2361,0.05207848500487963,0.0
2362,0.1028692303623041,0.0
2363,-0.04532993352867555,0.0
2364,0.06009799104239663,0.0
2365,-0.008470848676570771,0.0
2366,0.007574522625637351,0.0
2367,1.4158190180013182,0.0
2368,6.772052307661711,0.0
2369,0.42857907812757223,0.0
2370,-1.4595949620530702,0.0
2371,0.9090334140659948,0.0
2372,-0.4809948747428554,0.0
2373,0.22573144020611396,0.0
2374,-0.09054148344008313,0.0
2375,0.04764365369357696,0.0
2376,0.1151297228229006,0.0
2377,0.06205713019376049,0.0
2378,0.10960896965835051,0.0
2379,0.010248903899397921,0.0
2380,0.003678210971501776,0.0
2381,0.01695546244604988,0.0
2382,0.031075859077745387,0.0
2383,0.10168074904082754,0.0
2384,3.073364281814534,0.0
2385,6.605414706499713,0.0
2386,-2.3649503454485874,0.0
2387,0.8137560161333683,0.0
2388,-0.19562848221868992,0.0
2389,0.05396502371872881,0.0
2390,0.027660125492893473,0.0
2391,0.07311038999248737,0.0
2392,-0.02238355681280524,0.0
2393,-0.05711536424430651,0.0
2394,0.07249596094844901,0.0
2395,0.000500925823809284,0.0
2396,0.0563991796352854,0.0
2397,0.12293493973707824,0.0
2398,0.0940008636786059,0.0
2399,0.12055083904204442,0.0
2400,0.5768542327976711,0.0
2401,5.381800719472404,0.0
2402,4.116685031289365,0.0
2403,-2.7798218407993165,0.0
2404,1.702631020948388,0.0
2405,-0.6773067270763641,0.0
2406,0.4699548718494694,0.0
2407,0.009337575387895578,0.0
2408,0.05355524650699312,0.0
2409,0.17443269546862022,0.0
2410,-0.034877965383806886,0.0
2411,0.001282311041762612,0.0
2412,0.08268367685935155,0.0
2413,0.013146919586137826,0.0
2414,0.008445879763446112,0.0
2415,0.03921811150368259,0.0
2416,-0.015709874808357574,0.0
2417,1.424837986427995,0.0
2418,6.828690759192327,0.0
2419,0.44923995834897595,0.0
2420,-1.2768635627858929,0.0
2421,0.9527035988901016,0.0
2422,-0.47545076830911814,0.0
2423,0.2364046907209794,0.0
2424,-0.07344397588592265,0.0
2425,0.164588774150148,0.0
2426,0.09264570205807152,0.0
2427,0.07202198103630003,0.0
2428,-0.01233761268742746,0.0
2429,0.060239055942894734,0.0
2430,0.0316691373242882,0.0
2431,0.042678012224731644,0.0
2432,-0.0045697607112393165,0.0
2433,0.1887805941061299,0.0
2434,3.2092682818324305,0.0
2435,6.605301013627739,0.0
2436,-2.553403086885106,0.0
2437,0.8176840102960561,0.0
2438,-0.2564172344628896,0.0
2439,0.06271226293782065,0.0
2440,-0.011083837623585906,0.0
2441,0.050900710946747946,0.0
2442,0.004073752754582568,0.0
2443,-0.016905012258389918,0.0
2444,-0.022040918030410073,0.0
2445,-0.05621212921437252,0.0
2446,0.09473043068149117,0.0
2447,0.06698565310474833,0.0
2448,0.033214669686494995,0.0
2449,0.00849089403105207,0.0
2450,0.5787410817526604,0.0
2451,5.396808484070999,0.0
2452,4.0133499724878945,0.0
2453,-2.7694583100239254,0.0
2454,1.6533551957996355,0.0
2455,-0.8444181431735414,0.0
2456,0.43918028733416825,0.0
2457,-0.04073550391189408,0.0
2458,0.09488739829001583,0.0
2459,-0.01806968564936723,0.0
2460,0.0018156097559035803,0.0
2461,0.03736451782684695,0.0
2462,-0.08477826688425244,0.0
2463,0.011442236735948871,0.0
2464,-0.014149818194387534,0.0
2465,-0.026778842346173823,0.0
2466,-0.029954952279581896,0.0
2467,1.4515126511339642,0.0
2468,6.886509826481539,0.0
2469,0.45232517879474554,0.0
2470,-1.2980714897407477,0.0
2471,0.9451859569335237,0.0
2472,-0.5210972355822329,0.0
2473,0.29398823579797007,0.0
2474,-0.06111602181016688,0.0
2475,0.07169216294016666,0.0
2476,0.01735202579694021,0.0
2477,0.01452836288041996,0.0
2478,0.015218708221973517,0.0
2479,-0.00010891560932974054,0.0
2480,-0.011473557111618111,0.0
2481,0.043147388699754846,0.0
2482,0.049003301343903335,0.0
2483,0.11471448176713292,0.0
2484,3.128801627025743,0.0
2485,6.370634766154397,0.0
2486,-2.463923151180035,0.0
2487,0.7610325227930844,0.0
2488,-0.22436112230592395,0.0
2489,0.028546027418961152,0.0
2490,-0.021034143682492755,0.0
2491,0.05395222428638446,0.0
2492,0.03854560711108121,0.0
2493,0.0739014268715177,0.0
2494,-0.06249257136092837,0.0
2495,0.06031315778549314,0.0
2496,-0.09628327284938164,0.0
2497,-0.00305834879177522,0.0
2498,-0.021123477878343108,0.0
2499,-0.06022355829513465,0.0
2500,0.4198335429933362,0.0
2501,5.24912990412508,0.0
2502,4.006345292022179,0.0
2503,-2.859029770464864,0.0
2504,1.632455711141602,0.0
2505,-0.827475857804845,0.0
2506,0.25521524687493347,0.0
2507,-0.10626730142861311,0.0
2508,0.03021284277162237,0.0
2509,-0.05276794000470227,0.0
2510,-0.05974609319658108,0.0
2511,-0.09634112668771735,0.0
2512,0.0645520199564628,0.0
2513,0.024784127512676814,0.0
2514,-0.040897345476477116,0.0
2515,0.10715089331182259,0.0
2516,0.05852701333644789,0.0
2517,1.5268179932010444,0.0
2518,6.906583702760918,0.0
2519,0.37206833515947196,0.0
2520,-1.217807177272749,0.0
2521,1.0256798513059981,0.0
2522,-0.3754488766055208,0.0
2523,0.34455522556413165,0.0
2524,0.09043897111341145,0.0
2525,0.035911665927708884,0.0
2526,0.06518046291325717,0.0
2527,0.10156460319359557,0.0
2528,-0.06161313378816059,0.0
2529,-0.04357873292273903,0.0
2530,0.04531459196694523,0.0
2531,-0.06833184760285527,0.0
2532,-0.08440172519509959,0.0
2533,0.03669298435363153,0.0
2534,3.0610945574324866,0.0
2535,6.573645559541178,0.0
2536,-2.5199573424105335,0.0
2537,0.804401393672958,0.0
2538,-0.2050095126578788,0.0
2539,-0.042723373346532305,0.0
2540,-0.10217778800778878,0.0
2541,-0.05827387263133787,0.0
2542,-0.01421966615252682,0.0
2543,0.062082737967695464,0.0
2544,-0.04381566302452394,0.0
2545,-0.03930517759282132,0.0
2546,-0.04457425040744288,0.0
2547,-0.09954428496583453,0.0
2548,-0.05450992987900818,0.0
2549,0.014100440831733552,0.0
2550,0.3717825804855211,0.0
2551,5.33335448493313,0.0
2552,3.9427323749771244,0.0
2553,-2.872194748314379,0.0
2554,1.579622311404443,0.0
2555,-0.8580421406196685,0.0
2556,0.2883517323095303,0.0
2557,-0.14220776387421463,0.0
2558,-0.01336119904554424,0.0
2559,0.027864020052141485,0.0
2560,-0.04594529346652858,0.0
2561,-0.08929676756244387,0.0
2562,-0.037662549665046646,0.0
2563,0.006578082419245908,0.0
2564,-0.041171551453566935,0.0
2565,-0.11071518946586496,0.0
2566,-0.06163488119266818,0.0
2567,1.2944764381599903,0.0
2568,6.7734057038273585,0.0
2569,0.34604820918060164,0.0
2570,-1.3039311037155472,0.0
2571,0.9057866165723479,0.0
2572,-0.5656369547504769,0.0
2573,0.16256682400922365,0.0
2574,-0.2342747165904055,0.0
2575,-0.09229315405113765,0.0
2576,-0.05008448756951832,0.0
2577,-0.10432751747294414,0.0
2578,-0.05668172629032065,0.0
2579,0.06694141221353786,0.0
2580,-0.07212847584463114,0.0
2581,-0.034108402875958385,0.0
2582,-0.012002315203555193,0.0
2583,0.09204903575997725,0.0
2584,3.1408294711740603,0.0
2585,6.4941825348201,0.0
2586,-2.574589437033517,0.0
2587,0.7936884542314396,0.0
2588,-0.27586608831643006,0.0
2589,-0.030243028965163826,0.0
2590,0.0021563439599790596,0.0
2591,-0.11973443576774288,0.0
2592,-0.02328225278560103,0.0
2593,-0.04351117227888614,0.0
2594,-0.03257350632778098,0.0
2595,0.0009058534695459905,0.0
2596,0.007429280345728907,0.0
2597,-0.013722286565737393,0.0
2598,-0.01708809443953243,0.0
2599,0.05686698417133003,0.0
2600,0.44223886613423335,0.0
2601,5.374440267531426,0.0
2602,3.9009746345585903,0.0
2603,-2.852680604910865,0.0
2604,1.6092593845279766,0.0
2605,-0.8362250812048938,0.0
2606,0.3724319788453517,0.0
2607,-0.07132118645235612,0.0
2608,0.10286523893583774,0.0
2609,0.024128498040596497,0.0
2610,-0.027588663399254528,0.0
2611,0.0048188949351579665,0.0
2612,-0.03349275691566294,0.0
2613,0.1667313959115786,0.0
2614,0.07712522425579456,0.0
2615,-0.01885316409896356,0.0
2616,0.05042826537295411,0.0
2617,1.4273584513814097,0.0
2618,6.8183106219804195,0.0
2619,0.341818663708669,0.0
2620,-1.228802317637579,0.0
2621,0.8856910072579615,0.0
2622,-0.4036648815596683,0.0
2623,0.26439204537386723,0.0
2624,-0.08539148881063033,0.0
2625,0.05626794797363865,0.0
2626,0.05671052207981426,0.0
2627,-0.010591866447251328,0.0
2628,-0.03065405031715958,0.0
2629,0.05741873949266005,0.0
2630,-0.02298552439362466,0.0
2631,0.05896530207657609,0.0
2632,-0.012284248915597117,0.0
2633,0.08144702253291974,0.0
2634,3.161443281199114,0.0
2635,6.541887817009183,0.0
2636,-2.469849097598282,0.0
2637,0.898329026018716,0.0
2638,-0.11740818019549426,0.0
2639,0.01692341498411465,0.0
2640,0.0023971174100507787,0.0
2641,-0.000754120850499751,0.0
2642,-0.05559208614195277,0.0
2643,0.0745107796371559,0.0
2644,0.06269007463560508,0.0
2645,-0.020761420411694,0.0
2646,0.01277560736952358,0.0
2647,0.01320686764903542,0.0
2648,-0.04998930826697873,0.0
2649,0.02065434370685984,0.0
2650,0.46280365068006957,0.0
2651,5.415197107958118,0.0
2652,3.8873010109389328,0.0
2653,-2.807910369022463,0.0
2654,1.5817917341674828,0.0
2655,-0.8309695918558849,0.0
2656,0.30588698693144656,0.0
2657,0.006145349217510115,0.0
2658,0.13837786200163069,0.0
2659,0.01746286384271408,0.0
2660,0.03139537741380323,0.0
2661,0.0071999788748440055,0.0
2662,-0.015859801347421806,0.0
2663,0.09384247813253155,0.0
2664,0.03615644654264778,0.0
2665,0.040582073274845934,0.0
2666,0.09538018038407299,0.0
2667,1.4753210287227116,0.0
2668,6.85435384383239,0.0
2669,0.18764284497739603,0.0
2670,-1.1761443817184984,0.0
2671,0.9220277711417915,0.0
2672,-0.3743043796734791,0.0
2673,0.15413826765323974,0.0
2674,-0.041108925804023276,0.0
2675,0.030240489152422098,0.0
2676,0.13107426823731583,0.0
2677,0.059934252052346426,0.0
2678,0.10132997575270314,0.0
2679,-0.06741754157237495,0.0
2680,0.04196212170781173,0.0
2681,0.01150467315580238,0.0
2682,-0.0007854987639606369,0.0
2683,0.08073896305034443,0.0
2684,3.1894449275093066,0.0
2685,6.440658110908205,0.0
2686,-2.539974033537011,0.0
2687,0.8799700833910076,0.0
2688,-0.16734408220964275,0.0
2689,-0.028879704846161147,0.0
2690,0.07504659419579116,0.0
2691,0.07149846510541988,0.0
2692,0.076013820229308,0.0
2693,0.04245071964829751,0.0
2694,0.021373780937594122,0.0
2695,0.024403964173926214,0.0
2696,-0.03586846629276202,0.0
2697,-0.05990751893142292,0.0
2698,0.0526611875683473,0.0
2699,0.09183556540929051,0.0
2700,0.43692568504157164,0.0
2701,5.301388002138796,0.0
2702,3.9024793017905277,0.0
2703,-2.88772172935443,0.0
2704,1.5557622668554247,0.0
2705,-0.7792325347189878,0.0
2706,0.37929711237806696,0.0
2707,-0.11418708451488672,0.0
2708,0.09663865948899125,0.0
2709,0.03457210600036093,0.0
2710,-0.03356291712033532,0.0
2711,0.04295579061678578,0.0
2712,0.04821826409872789,0.0
2713,0.048447069907972526,0.0
2714,0.048920434596050624,0.0
2715,0.005439235305006947,0.0
2716,0.05439590623065113,0.0
2717,1.416242360792521,0.0
2718,6.918613270451109,0.0
2719,0.307557696264015,0.0
2720,-1.208913128063344,0.0
2721,0.9513872299075067,0.0
2722,-0.49833054687441825,0.0
2723,0.20238155331140545,0.0
2724,-0.04472908183931343,0.0
2725,0.023994042795329046,0.0
2726,0.11247635448695958,0.0
2727,0.0033559053838964625,0.0
2728,0.017521256599272415,0.0
2729,0.0376581323999014,0.0
2730,-0.030240108176291157,0.0
2731,-0.04293848968375725,0.0
2732,0.07759149388054651,0.0
2733,0.1989950657595142,0.0
2734,3.1673214257532085,0.0
2735,6.552491957079235,0.0
2736,-2.5245844933171977,0.0
2737,0.9154318399280115,0.0
2738,-0.23156660158700834,0.0
2739,0.12535493103322262,0.0
2740,-0.04542279453539738,0.0
2741,0.020419366717779608,0.0
2742,0.07008184063917969,0.0
2743,0.04939828790706203,0.0
2744,0.08244465963242517,0.0
2745,0.10049917920091796,0.0
2746,0.07642260082676182,0.0
2747,0.08918276672584317,0.0
2748,0.0835894804133618,0.0
2749,0.10455733395923253,0.0
2750,0.5398910086571646,0.0
2751,5.350714195288086,0.0
2752,3.95772845246824,0.0
2753,-2.781206018935197,0.0
2754,1.5909209977120453,0.0
2755,-0.7596631452202567,0.0
2756,0.446392879340203,0.0
2757,-0.17290167953521357,0.0
2758,0.02329016830282018,0.0
2759,0.05316888946155278,0.0
2760,0.07830268629394031,0.0
2761,0.07678178270660785,0.0
2762,-0.03535828972015871,0.0
2763,0.04592143575832581,0.0
2764,0.0074188554793444585,0.0
2765,0.060082140302514436,0.0
2766,0.0699475823132654,0.0
2767,1.3909932291965743,0.0
2768,6.776511420694708,0.0
2769,0.1534171220999736,0.0
2770,-1.154515152268787,0.0
2771,0.8683881275771247,0.0
2772,-0.4315718987816607,0.0
2773,0.181141823548078,0.0
2774,-0.09779765594851625,0.0
2775,0.04403120477014849,0.0
2776,-0.019500950376436975,0.0
2777,0.013026515983375052,0.0
2778,-0.011582843881192843,0.0
2779,0.0606334051574075,0.0
2780,0.0393245176800914,0.0
2781,0.08696967457372469,0.0
2782,-0.053585024416938645,0.0
2783,0.12365525676368802,0.0
2784,3.1630902289568867,0.0
2785,6.424114565801563,0.0
2786,-2.5497970468932185,0.0
2787,0.8307140320798708,0.0
2788,-0.25896130363848513,0.0
2789,0.07524943880941995,0.0
2790,0.009407062329055943,0.0
2791,0.06062723327070675,0.0
2792,0.10492841836264326,0.0
2793,0.11035344790157574,0.0
2794,0.015280169432501954,0.0
2795,0.0684214195468629,0.0
2796,0.032985999164993944,0.0
2797,0.08968530400637795,0.0
2798,0.08189336335195993,0.0
2799,0.14685644036220397,0.0
2800,0.5239184899138906,0.0
2801,5.468441463026147,0.0
2802,3.854125229993667,0.0
2803,-2.6852437631542934,0.0
2804,1.6946756587745515,0.0
2805,-0.7694496606247284,0.0
2806,0.3983655760367852,0.0
2807,-0.08801927751921802,0.0
2808,0.10629118105394564,0.0
2809,0.0550855071912523,0.0
2810,0.11262074199559657,0.0
2811,0.07244424621991932,0.0
2812,0.05693201262274838,0.0
2813,0.05525984248472011,0.0
2814,0.14610325105490715,0.0
2815,0.06612882408310614,0.0
2816,0.08627642207104212,0.0
2817,1.4794818338941884,0.0
2818,6.910398732346323,0.0
2819,0.22756063092867237,0.0
2820,-1.0580096181829954,0.0
2821,0.886068882754207,0.0
2822,-0.4337257490147104,0.0
2823,0.21490931996460738,0.0
2824,-0.05538529926944563,0.0
2825,0.02338432118763229,0.0
2826,0.044639132042143835,0.0
2827,0.08377780101222712,0.0
2828,0.013687321796934823,0.0
2829,0.03515958710974696,0.0
2830,-0.01953366682510371,0.0
2831,-0.020087201207184425,0.0
2832,0.04862598413126587,0.0
2833,0.09934987106374583,0.0
2834,3.2661045839335325,0.0
2835,6.432787087467453,0.0
2836,-2.5847169012893123,0.0
2837,0.8613477301585937,0.0
2838,-0.23941083482824196,0.0
2839,0.02822825036302265,0.0
2840,-0.10255855836028745,0.0
2841,-0.02194098301953902,0.0
2842,-0.10461712207532944,0.0
2843,0.07502161954596681,0.0
2844,0.03148530359590268,0.0
2845,0.05160550119482263,0.0
2846,0.12377963633785923,0.0
2847,-0.014341575728729725,0.0
2848,0.04147352565189684,0.0
2849,0.004711322364931977,0.0
2850,0.6000603786764365,0.0
2851,5.409143329686968,0.0
2852,3.9167368498449675,0.0
2853,-2.8228317158924354,0.0
2854,1.5860845657765745,0.0
2855,-0.7616602470529681,0.0
2856,0.3084807006946021,0.0
2857,-0.11779952470379906,0.0
2858,0.031207518302891687,0.0
2859,0.0010738042676446576,0.0
2860,0.08387718058035167,0.0
2861,0.06153238786615944,0.0
2862,0.029944419198224888,0.0
2863,0.012263390046319187,0.0
2864,0.07050602693385155,0.0
2865,0.00013694662671326005,0.0
2866,-0.025345704345871665,0.0
2867,1.4592664527507573,0.0
2868,6.910278122373805,0.0
2869,0.16393349568376978,0.0
2870,-1.141762606389914,0.0
2871,0.9737293118294976,0.0
2872,-0.3856390276831878,0.0
2873,0.2670106983169021,0.0
2874,-0.0030175719605364387,0.0
2875,0.02115974394356128,0.0
2876,0.0707416818493655,0.0
2877,-0.06296720586906235,0.0
2878,0.07477296518857705,0.0
2879,0.018194909903903583,0.0
2880,-0.04994163874721945,0.0
2881,-0.11921297233788458,0.0
2882,-0.024130871117326612,0.0
2883,0.011075321980407268,0.0
2884,3.2475990657391742,0.0
2885,6.276645306183764,0.0
2886,-2.533027411827024,0.0
2887,0.8657389166917372,0.0
2888,-0.27621288933744237,0.0
2889,-0.034858512182916225,0.0
2890,-0.10533432889377248,0.0
2891,-0.05193700976090683,0.0
2892,-0.018527531100906908,0.0
2893,-0.06722015872901606,0.0
2894,-0.10370553878438674,0.0
2895,-0.03575955506622851,0.0
2896,-0.13518710658322475,0.0
2897,0.007193077631790307,0.0
2898,-0.13148059094217357,0.0
2899,-0.21075504757185132,0.0
2900,0.40027121006085564,0.0
2901,5.2644308155983,0.0
2902,3.683454769877946,0.0
2903,-2.8672075762956193,0.0
2904,1.6123948578792402,0.0
2905,-0.8313637946761661,0.0
2906,0.2868476109487087,0.0
2907,-0.18265377257465037,0.0
2908,-0.03743630550496413,0.0
2909,0.011572617995548679,0.0
2910,0.00478471759294969,0.0
2911,0.013973069761404774,0.0
2912,-0.06745120094259689,0.0
2913,-0.07139404655346143,0.0
2914,-0.09628056156156634,0.0
2915,-0.07703424091621572,0.0
2916,-0.010811492270519127,0.0
2917,1.4044096471955752,0.0
2918,6.687980556532571,0.0
2919,0.051754809429298256,0.0
2920,-1.2605555829575754,0.0
2921,0.7787110796847498,0.0
2922,-0.4997490745183103,0.0
2923,0.11654385753645544,0.0
2924,-0.21869708115547712,0.0
2925,-0.1409771178903379,0.0
2926,0.01813191316129044,0.0
2927,-0.08263587943380048,0.0
2928,-0.06264944883563675,0.0
2929,0.014967631662362188,0.0
2930,-0.12135008275727001,0.0
2931,-0.00037991167809093424,0.0
2932,-0.15796833465329282,0.0
2933,0.11212549623597143,0.0
2934,3.273894340073564,0.0
2935,6.309070944907658,0.0
2936,-2.6173409475200065,0.0
2937,0.815849948862671,0.0
2938,-0.34286902155834503,0.0
2939,0.04252286299489784,0.0
2940,-0.11345746293657262,0.0
2941,0.02184097539630496,0.0
2942,-0.13298441472334124,0.0
2943,-0.13712677593667447,0.0
2944,-0.023815691223339167,0.0
2945,-0.12928851721598594,0.0
2946,-0.13354840267811052,0.0
2947,-0.07730996360361309,0.0
2948,-0.13999340080493358,0.0
2949,-0.018264071651834128,0.0
2950,0.39996944008710966,0.0
2951,5.291369445118705,0.0
2952,3.7027545141300573,0.0
2953,-2.8182886566881042,0.0
2954,1.6077516735654007,0.0
2955,-0.8183653010071323,0.0
2956,0.26460029527218015,0.0
2957,-0.1397544001664866,0.0
2958,-0.12240047357087215,0.0
2959,-0.06933218243152339,0.0
2960,-0.12647492618110018,0.0
2961,-0.07225010395235384,0.0
2962,-0.14334746154399164,0.0
2963,-0.10195896769902874,0.0
2964,-0.1478027453519964,0.0
2965,-0.10277925164104934,0.0
2966,0.04516775292223969,0.0
2967,1.4664479131097583,0.0
2968,6.766187215797031,0.0
2969,0.12851491356715475,0.0
2970,-1.213611241447571,0.0
2971,0.8673541491398153,0.0
2972,-0.4099430780487725,0.0
2973,0.10680870029934249,0.0
2974,-0.12113677232282155,0.0
2975,-0.0203820019143719,0.0
2976,-0.20096063986786497,0.0
2977,-0.012583557230588543,0.0
2978,-0.06120014283215933,0.0
2979,-0.004731778236646028,0.0
2980,-0.11270244160675218,0.0
2981,-0.07611711814796492,0.0
2982,-0.06237527582521343,0.0
2983,-0.04053751072985638,0.0
2984,3.183368792307832,0.0
2985,6.304541508975556,0.0
2986,-2.7206186222748387,0.0
2987,0.834690624617247,0.0
2988,-0.334163536530068,0.0
2989,0.0036455957401398814,0.0
2990,-0.15034958143601332,0.0
2991,-0.02653640874951725,0.0
2992,-0.06103348227661973,0.0
2993,-0.1436663851648232,0.0
2994,-0.06064959460352764,0.0
2995,-0.044445472006843054,0.0
2996,-0.13548000675760213,0.0
2997,-0.03301978681570955,0.0
2998,0.02650919883315371,0.0
2999,-0.02399081674566153,0.0
3000,0.3917237233494286,0.0
3001,5.342791342020904,0.0
3002,3.613132486816506,0.0
3003,-2.914382607455565,0.0
3004,1.6002192933585002,0.0
3005,-0.9278748539798791,0.0
3006,0.21802913594454176,0.0
3007,-0.12814396099487313,0.0
3008,0.012168449596312261,0.0
3009,-0.1355723050861143,0.0
3010,-0.10441643203555875,0.0
3011,-0.08495133492359483,0.0
3012,-0.14707380234691486,0.0
3013,-0.13108268332090572,0.0
3014,-0.07055990794730688,0.0
3015,-0.1061479997224597,0.0
3016,-0.12591332609772665,0.0
3017,1.4180545203780386,0.0
3018,6.666695665728295,0.0
3019,-0.05719757135195031,0.0
3020,-1.1684498371090788,0.0
3021,0.7088594908038327,0.0
3022,-0.6200632857216413,0.0
3023,-0.03398758844686962,0.0
3024,-0.16368039556986486,0.0
3025,-0.15453149251072634,0.0
3026,-0.2001518455610064,0.0
3027,-0.11927475947117003,0.0
3028,-0.12325814890138047,0.0
3029,-0.14083854420375275,0.0
3030,-0.08631624708977262,0.0
3031,-0.08138667778430284,0.0
3032,-0.07034434426137764,0.0
3033,-0.07020542371910046,0.0
3034,3.214092717427135,0.0
3035,6.411616218506084,0.0
3036,-2.7037260938876906,0.0
3037,0.8446220794124562,0.0
3038,-0.3077495821641362,0.0
3039,-0.0664257944164077,0.0
3040,-0.03501151322493537,0.0
3041,-0.016373072948235867,0.0
3042,-0.14294130315971898,0.0
3043,-0.03599494910547817,0.0
3044,-0.09764128872013501,0.0
3045,-0.02486150465974543,0.0
3046,-0.09996748804760686,0.0
3047,-0.04335114492943097,0.0
3048,-0.011214108042813295,0.0
3049,-0.1073048641796294,0.0
3050,0.5528613465564998,0.0
3051,5.289334771907096,0.0
3052,3.682947344815959,0.0
3053,-2.825301744927572,0.0
3054,1.551820928750717,0.0
3055,-0.8428487515340528,0.0
3056,0.2197495072948287,0.0
3057,-0.21839981993111096,0.0
3058,-0.0980038309563164,0.0
3059,-0.15262807855273686,0.0
3060,-0.09891762573888897,0.0
3061,-0.09853187790156225,0.0
3062,-0.10973790771918479,0.0
3063,-0.2564232635136258,0.0
3064,-0.10882370428672311,0.0
3065,-0.09682800543874626,0.0
3066,-0.17545312918502104,0.0
3067,1.315759174048436,0.0
3068,6.707783985055257,0.0
3069,-0.02406136560405109,0.0
3070,-1.157655657346849,0.0
3071,0.7707108138228879,0.0
3072,-0.5041975880627274,0.0
3073,0.13429778365160003,0.0
3074,-0.11381649434187949,0.0
3075,0.015606932401725872,0.0
3076,-0.034900561449489734,0.0
3077,-0.02636645611360762,0.0
3078,-0.09991021912463213,0.0
3079,-0.023244951880233275,0.0
3080,-0.0006287365605154097,0.0
3081,-0.046059197602435945,0.0
3082,-0.052917966801640126,0.0
3083,-0.027694135796444058,0.0
3084,3.1993380589520735,0.0
3085,6.373329560701726,0.0
3086,-2.6618807272685316,0.0
3087,0.9235854469934746,0.0
3088,-0.27095664474836934,0.0
3089,0.0015206412444230266,0.0
3090,-0.04814409251821318,0.0
3091,-0.02828159591628348,0.0
3092,0.02925210995214271,0.0
3093,-0.053256137724884765,0.0
3094,-0.08132113824385981,0.0
3095,-0.13334572365234987,0.0
3096,-0.07108226091776206,0.0
3097,-0.04813737391477781,0.0
3098,-0.04682675347642973,0.0
3099,-0.02845421693973755,0.0
3100,0.543825530540839,0.0
3101,5.447479622397218,0.0
3102,3.5396466038606746,0.0
3103,-2.900393591502904,0.0
3104,1.5489422429596902,0.0
3105,-0.7487190530407901,0.0
3106,0.30898694298484136,0.0
3107,-0.22527072890038213,0.0
3108,-0.03367500712913959,0.0
3109,-0.07794912323743104,0.0
3110,-0.10770207064092494,0.0
3111,-0.018406138198029137,0.0
3112,-0.008216651380230179,0.0
3113,-0.17519122842898066,0.0
3114,-0.10584724925886967,0.0
3115,-0.038604804726372205,0.0
3116,-0.07404998042756508,0.0
3117,1.442985900459692,0.0
3118,6.861804291635699,0.0
3119,-0.022909074207085517,0.0
3120,-1.1351310817418676,0.0
3121,0.8024393564403076,0.0
3122,-0.48958629504679585,0.0
3123,0.1618741129246269,0.0
3124,-0.01375809817971238,0.0
3125,-0.014995040544807318,0.0
3126,-0.12606027581412588,0.0
3127,-0.0632434356298051,0.0
3128,-0.00579025422613462,0.0
3129,-0.09861752033507709,0.0
3130,0.008113755284062447,0.0
3131,0.016474757949649192,0.0
3132,0.020603480496655953,0.0
3133,0.06654911185841948,0.0
3134,3.242940440537533,0.0
3135,6.309916908150921,0.0
3136,-2.668298760835133,0.0
3137,0.9489887445280499,0.0
3138,-0.1950267125350838,0.0
3139,0.11879650545163964,0.0
3140,0.003006807969083057,0.0
3141,0.0661128795792961,0.0
3142,-0.01329754485428403,0.0
3143,0.13780573445933764,0.0
3144,-0.05792913277506255,0.0
3145,-0.01891807735097519,0.0
3146,-0.015960695630086362,0.0
3147,-0.043573118559402116,0.0
3148,-0.05424756062252774,0.0
3149,-0.06105683942775673,0.0
3150,0.42642500576957193,0.0
3151,5.449694673537723,0.0
3152,3.5948640594291623,0.0
3153,-2.88040219133398,0.0
3154,1.4816759839005142,0.0
3155,-0.8893317377232288,0.0
3156,0.2674131510898118,0.0
3157,-0.21245685008352155,0.0
3158,-0.01445832658747494,0.0
3159,-0.12620706131759862,0.0
3160,-0.10387227201615801,0.0
3161,-0.04247664929792762,0.0
3162,0.031034304726423687,0.0
3163,-0.06320838007721831,0.0
3164,-0.10598961882241334,0.0
3165,0.03237154285998914,0.0
3166,-0.013923130493232579,0.0
3167,1.5054563679998036,0.0
3168,6.852475096565599,0.0
3169,0.011494132681155417,0.0
3170,-1.1147613297476118,0.0
3171,0.8736440023259034,0.0
3172,-0.4022548750533535,0.0
3173,0.15946955085248504,0.0
3174,-0.08350463778978189,0.0
3175,-0.016292206302132912,0.0
3176,0.05614882302467435,0.0
3177,-0.0044277388249379535,0.0
3178,-0.027905548030748174,0.0
3179,0.05462439550857087,0.0
3180,0.10012473622569097,0.0
3181,-0.010528019142598842,0.0
3182,0.04462048615761427,0.0
3183,0.1598224263178143,0.0
3184,3.3620911396320583,0.0
3185,6.4480213097736545,0.0
3186,-2.6583318547408363,0.0
3187,0.9885873662273511,0.0
3188,-0.24909125053000075,0.0
3189,0.12397795954462629,0.0
3190,-0.101466040477974,0.0
3191,-0.005682652939371979,0.0
3192,-0.0335556566611816,0.0
3193,-0.018516626267936306,0.0
3194,-0.05042257365132809,0.0
3195,-0.047467796073769324,0.0
3196,-0.047844390355412776,0.0
3197,-0.03219238080446038,0.0
3198,0.05683270887187264,0.0
3199,-0.11578504105008258,0.0
3200,0.4867952293775514,0.0
3201,5.4453301242064605,0.0
3202,3.7755462178811228,0.0
3203,-2.814751439464495,0.0
3204,1.5155008673543957,0.0
3205,-0.7699580848656261,0.0
3206,0.2346763654430064,0.0
3207,-0.14026095778766545,0.0
3208,-0.03230840059723983,0.0
3209,-0.004263268200119602,0.0
3210,0.03694799220522741,0.0
3211,0.0076553395090774475,0.0
3212,0.09189160928371602,0.0
3213,0.038266755201658856,0.0
3214,-0.06737018605485227,0.0
3215,0.12948130492513052,0.0
3216,-0.0273237755185128,0.0
3217,1.5890308328134501,0.0
3218,6.791852950037079,0.0
3219,0.018087166076441355,0.0
3220,-1.0669115916252836,0.0
3221,0.7572482418630155,0.0
3222,-0.49556114803195633,0.0
3223,0.20367004080859624,0.0
3224,-0.03453805406722788,0.0
3225,-0.05250587166278496,0.0
3226,0.10766934670518001,0.0
3227,0.032325859475191746,0.0
3228,0.093034979689628,0.0
3229,0.02583130639466196,0.0
3230,-4.6829176273549544e-06,0.0
3231,-0.0008759865692120235,0.0
3232,0.003158348219477008,0.0
3233,0.09208413423242176,0.0
3234,3.390132411694079,0.0
3235,6.30838466482193,0.0
3236,-2.6285494062446335,0.0
3237,0.9366471499452212,0.0
3238,-0.383259629821341,0.0
3239,0.09590136688684328,0.0
3240,-0.09791278464215908,0.0
3241,0.03361303558507038,0.0
3242,-0.000818483642103858,0.0
3243,0.04255244019754964,0.0
3244,-0.05663321967277703,0.0
3245,-0.035938361367998876,0.0
3246,-0.026128404120075378,0.0
3247,0.05361624337172271,0.0
3248,-0.030049302396996436,0.0
3249,-0.026086691997151232,0.0
3250,0.45702502299847897,0.0
3251,5.525751326690114,0.0
3252,3.50204981648947,0.0
3253,-2.7083640162139346,0.0
3254,1.5218594053974235,0.0
3255,-0.8222719280396407,0.0
3256,0.3464333921617836,0.0
3257,-0.17522309050131368,0.0
3258,0.03673963777933049,0.0
3259,-0.02112137099092263,0.0
3260,-0.026213167487000092,0.0
3261,-0.024026143105169533,0.0
3262,-0.008192713546180334,0.0
3263,-0.02993676225263367,0.0
3264,0.07304207791485347,0.0
3265,-0.071151995837179,0.0
3266,0.030525668189180226,0.0
3267,1.5179471417375394,0.0
3268,6.901667820016211,0.0
3269,-2.8749289889634655e-05,0.0
3270,-0.938445483677333,0.0
3271,0.8520663633470859,0.0
3272,-0.47247590283049645,0.0
3273,0.24100187644548152,0.0
3274,-0.12319215041519252,0.0
3275,-0.0471543648714195,0.0
3276,0.0393733075386266,0.0
3277,0.01331864061660373,0.0
3278,-0.024768940658548202,0.0
3279,-0.025042864821545222,0.0
3280,0.022597713628287087,0.0
3281,0.018980408162592242,0.0
3282,-0.0545313098967372,0.0
3283,0.2231394415403949,0.0
3284,3.3497627698902672,0.0
3285,6.297811387989567,0.0
3286,-2.6285914356748314,0.0
3287,0.9738365003739264,0.0
3288,-0.30214124670451437,0.0
3289,0.08239620533730742,0.0
3290,-0.04812651083808832,0.0
3291,0.05074861896091633,0.0
3292,0.032439665422373934,0.0
3293,0.06433386023063134,0.0
3294,0.05457412644994311,0.0
3295,0.019217723963344452,0.0
3296,0.05430208111691172,0.0
3297,-0.002835962476960002,0.0
3298,-0.02990016348536413,0.0
3299,0.01124754018743069,0.0
3300,0.4873744847829266,0.0
3301,5.49369229016914,0.0
3302,3.6514106003195623,0.0
3303,-2.784223174710846,0.0
3304,1.543660188903902,0.0
3305,-0.8303729557195424,0.0
3306,0.36945307805254324,0.0
3307,-0.06101892629927122,0.0
3308,0.1054885716867927,0.0
3309,-0.02884458663670992,0.0
3310,0.0771057525958129,0.0
3311,-0.0039938458233846185,0.0
3312,0.03711934624364794,0.0
3313,-0.03884108951541433,0.0
3314,-0.010754872432657249,0.0
3315,-0.009353053963314747,0.0
3316,-0.007298044714738316,0.0
3317,1.5056325723836659,0.0
3318,6.889323393596068,0.0
3319,-0.09268604567811198,0.0
3320,-1.0846536338694068,0.0
3321,0.7963872883004328,0.0
3322,-0.43307998760429245,0.0
3323,0.18824576222050496,0.0
3324,-0.055712396211543155,0.0
3325,0.1209277385686978,0.0
3326,0.031000405805832153,0.0
3327,0.02086644324214719,0.0
3328,-0.017007668894219806,0.0
3329,0.020062815667564515,0.0
3330,-0.052665019143532533,0.0
3331,-0.09270215983976032,0.0
3332,0.008858058487861692,0.0
3333,0.1649878177882937,0.0
3334,3.341641136993611,0.0
3335,6.397168560449847,0.0
3336,-2.667228231164689,0.0
3337,0.9169162551976969,0.0
3338,-0.33512065159092336,0.0
3339,0.07291390791942517,0.0
3340,-0.11320682947562188,0.0
3341,-0.06760773172407483,0.0
3342,-0.07076276246273444,0.0
3343,-0.06240857170493409,0.0
3344,0.012177497715677207,0.0
3345,0.03201475055412288,0.0
3346,-0.03102435680657291,0.0
3347,0.002054120620646787,0.0
3348,-0.03242480640316951,0.0
3349,0.018182429242724944,0.0
3350,0.5253733365926425,0.0
3351,5.447812225018795,0.0
3352,3.533763585882575,0.0
3353,-2.8087285634136516,0.0
3354,1.4736895167063628,0.0
3355,-0.8517148793366904,0.0
3356,0.3436958541136849,0.0
3357,-0.08208527482985624,0.0
3358,0.004326100556340626,0.0
3359,-0.06025656569414489,0.0
3360,-0.0011260817810842538,0.0
3361,-0.10445774119321913,0.0
3362,-0.009280193656747204,0.0
3363,-0.1628134075875502,0.0
3364,-0.11116735628726884,0.0
3365,-0.06381269733429173,0.0
3366,-0.08750097934118264,0.0
3367,1.4342571214059334,0.0
3368,6.907512492319133,0.0
3369,-0.08893178799908075,0.0
3370,-1.051884098148574,0.0
3371,0.7167096332915293,0.0
3372,-0.5083276348134,0.0
3373,0.1371788163642022,0.0
3374,-0.18021830604500944,0.0
3375,-0.01994630242092631,0.0
3376,-0.06986185124307219,0.0
3377,-0.09525222055871063,0.0
3378,-0.02794512966580527,0.0
3379,-0.0068484807669300166,0.0
3380,-0.05687301234445532,0.0
3381,-0.016447292192154135,0.0
3382,-0.07223484561919384,0.0
3383,0.008981729658867482,0.0
3384,3.389233530992517,0.0
3385,6.294906476826582,0.0
3386,-2.687094715285212,0.0
3387,0.9194709299513093,0.0
3388,-0.43560516494265733,0.0
3389,0.0011850379384785587,0.0
3390,-0.07518920258206241,0.0
3391,-0.039797454214441724,0.0
3392,-0.1744158705387306,0.0
3393,-0.07153987757338366,0.0
3394,-0.043094250488508984,0.0
3395,-0.11884826252918441,0.0
3396,0.005714474068540573,0.0
3397,-0.07188977146645098,0.0
3398,-0.12706030034692453,0.0
3399,-0.15995140337997585,0.0
3400,0.44682134421961256,0.0
3401,5.4611950618042435,0.0
3402,3.496348174732236,0.0
3403,-2.824104045056032,0.0
3404,1.4597249943337876,0.0
3405,-0.8491786193611816,0.0
3406,0.26333785761950584,0.0
3407,-0.04882307794966506,0.0
3408,-0.027041512788862444,0.0
3409,-0.027694106443631197,0.0
3410,0.009483142067165516,0.0
3411,-0.05130071568567186,0.0
3412,0.020804167076139222,0.0
3413,-0.0782374252590137,0.0
3414,-0.00484072678434651,0.0
3415,0.04660613030235333,0.0
3416,-0.03787106450887118,0.0
3417,1.5180019130465057,0.0
3418,6.892799693298572,0.0
3419,-0.1557500823446234,0.0
3420,-1.0955177173540571,0.0
3421,0.6834202238631346,0.0
3422,-0.4527918017916497,0.0
3423,0.1278160347123325,0.0
3424,-0.09925379656312532,0.0
3425,-0.012391917818197637,0.0
3426,-0.01404210278405641,0.0
3427,-0.10205252132928415,0.0
3428,-0.096656890597945,0.0
3429,-0.1475486087145843,0.0
3430,0.004792020083923494,0.0
3431,-0.12131766394910304,0.0
3432,0.017526135409073357,0.0
3433,0.03101832607266479,0.0
3434,3.37901011200476,0.0
3435,6.256152664481097,0.0
3436,-2.767461012567549,0.0
3437,0.9904134285304746,0.0
3438,-0.41903993285001495,0.0
3439,0.108005662983256,0.0
3440,-0.13776258710588477,0.0
3441,-0.02382262884137208,0.0
3442,-0.019763188542530626,0.0
3443,-0.01806398486287683,0.0
3444,-0.00837125828167598,0.0
3445,0.03503625986359121,0.0
3446,-0.010734149706967778,0.0
3447,-0.03312069075117359,0.0
3448,0.010769558963766256,0.0
3449,-0.01476813219305323,0.0
3450,0.5482870040856024,0.0
3451,5.609458777963742,0.0
3452,3.593373942555712,0.0
3453,-2.8003388114915664,0.0
3454,1.4864776636152488,0.0
3455,-0.8851072118700894,0.0
3456,0.31474194239305237,0.0
3457,-0.1230498538690818,0.0
3458,0.11195105218933378,0.0
3459,-0.08021246491179207,0.0
3460,-0.1679125985612537,0.0
3461,-0.048856839476589475,0.0
3462,0.025740391209544244,0.0
3463,-0.07892374319465895,0.0
3464,-0.016676770840532096,0.0
3465,-0.063700263409652,0.0
3466,-0.11482549687661553,0.0
3467,1.570945272308721,0.0
3468,6.84397151794793,0.0
3469,-0.22913495653266455,0.0
3470,-1.0998219053052565,0.0
3471,0.816912522106935,0.0
3472,-0.5922473250787703,0.0
3473,0.2093323885139059,0.0
3474,-0.1682187009052274,0.0
3475,-0.034046792301334304,0.0
3476,-0.02392604938163821,0.0
3477,-0.10922022322214084,0.0
3478,-0.05397862480932769,0.0
3479,-0.010169522820511347,0.0
3480,0.13542345219226695,0.0
3481,-0.060926671596501086,0.0
3482,-0.08401650950971953,0.0
3483,0.16216996651111554,0.0
3484,3.3390837546797503,0.0
3485,6.198770601830516,0.0
3486,-2.7921678609555936,0.0
3487,0.9946215542164666,0.0
3488,-0.42031521241575737,0.0
3489,0.006084950993224435,0.0
3490,-0.16363384826513028,0.0
3491,-0.022877675128481427,0.0
3492,-0.1552949798406847,0.0
3493,-0.06995297786639773,0.0
3494,-0.05533778631362178,0.0
3495,-0.09557118425810526,0.0
3496,-0.14427349068583337,0.0
3497,-0.07946328081968401,0.0
3498,-0.046819837269829835,0.0
3499,-0.05536541472385015,0.0
3500,0.4072742319826831,0.0
3501,5.6058615237577305,0.0
3502,3.4477454570309654,0.0
3503,-2.744229437282996,0.0
3504,1.5709228281347118,0.0
3505,-0.8860658911564263,0.0
3506,0.3087718437679629,0.0
3507,-0.217354453979042,0.0
3508,0.056312885411568564,0.0
3509,0.004761274487502014,0.0
3510,-0.034517593837819605,0.0
3511,-0.02131221149262051,0.0
3512,-0.08882055744400286,0.0
3513,0.009827869268909502,0.0
3514,-0.061685694167525264,0.0
3515,-0.06088313622046835,0.0
3516,-0.02883305154898396,0.0
3517,1.5549796071522302,0.0
3518,6.895549191098735,0.0
3519,-0.22291595672368883,0.0
3520,-1.0022479940988687,0.0
3521,0.6887720887434863,0.0
3522,-0.4522958626039363,0.0
3523,0.06988467174281793,0.0
3524,-0.07040521179730715,0.0
3525,0.0074130301851051475,0.0
3526,-0.01476749010920373,0.0
3527,-0.02488447291546669,0.0
3528,-0.031596674358754996,0.0
3529,-0.01683075546637382,0.0
3530,0.016400496573305657,0.0
3531,-0.013437748713182568,0.0
3532,-0.0330274231438988,0.0
3533,0.013347192063760047,0.0
3534,3.3600197854135647,0.0
3535,6.378429315061016,0.0
3536,-2.729285613805972,0.0
3537,1.054424001473959,0.0
3538,-0.361312506861173,0.0
3539,0.1451569092203121,0.0
3540,-0.21074268021245426,0.0
3541,-0.03411656360733729,0.0
3542,-0.05059744155691134,0.0
3543,-0.01544081415732528,0.0
3544,-0.007785157307552763,0.0
3545,-0.011434027647578816,0.0
3546,0.03898741829188517,0.0
3547,0.010782820197090745,0.0
3548,-0.018470749569315575,0.0
3549,-0.07106400475282813,0.0
3550,0.5809493187364895,0.0
3551,5.5151646942646755,0.0
3552,3.5068981683550797,0.0
3553,-2.8043195738422444,0.0
3554,1.5966535220633251,0.0
3555,-0.7558550929001394,0.0
3556,0.28858018556759596,0.0
3557,-0.12373115447910425,0.0
3558,0.0262663206823339,0.0
3559,0.02635939176188102,0.0
3560,0.006462261181981177,0.0
3561,0.07075139531159319,0.0
3562,-0.05793130114028475,0.0
3563,0.01643815908082303,0.0
3564,0.041698539895032735,0.0
3565,-0.06801144074708138,0.0
3566,-0.08607757514179767,0.0
3567,1.407648651641734,0.0
3568,6.803851515896171,0.0
3569,-0.1934326119790786,0.0
3570,-1.0295935090029396,0.0
3571,0.6607173152781546,0.0
3572,-0.5016053408000423,0.0
3573,0.07346536273660989,0.0
3574,-0.10012263890799072,0.0
3575,0.011074720493529575,0.0
3576,-0.004446059050064878,0.0
3577,-0.03822166831430351,0.0
3578,-0.06688704177947558,0.0
3579,-0.10546049581470404,0.0
3580,-0.06423412715341334,0.0
3581,-0.03412256733312672,0.0
3582,-0.07542805141426832,0.0
3583,0.09456491250083093,0.0
3584,3.4044435039708776,0.0
3585,6.172447033399664,0.0
3586,-2.7837393841533067,0.0
3587,1.088096443197884,0.0
3588,-0.4588828660554036,0.0
3589,0.041321793435797796,0.0
3590,-0.03190935304038116,0.0
3591,0.03777897576046752,0.0
3592,0.005817972366627729,0.0
3593,-0.017719448216877515,0.0
3594,0.010186747077701092,0.0
3595,0.01093379138324545,0.0
3596,0.013369049758114312,0.0
3597,0.021034476785736386,0.0
3598,0.09744510711397006,0.0
3599,0.03652456643691833,0.0
3600,0.5511424509195709,0.0
3601,5.573126543607487,0.0
3602,3.4473741546243173,0.0
3603,-2.757917638056243,0.0
3604,1.5857248254733538,0.0
3605,-0.8097877469257634,0.0
3606,0.2597785573838504,0.0
3607,-0.0668576913637844,0.0
3608,0.012325559205280386,0.0
3609,-0.07006238533403308,0.0
3610,0.049883471723792455,0.0
3611,-0.035259575601799854,0.0
3612,-0.11278398327129686,0.0
3613,0.04383551079566699,0.0
3614,-0.022333147549442427,0.0
3615,0.03626398749133678,0.0
3616,-0.03384507904730679,0.0
3617,1.571186461748073,0.0
3618,6.925413858573605,0.0
3619,-0.2652718734623988,0.0
3620,-0.930358929731965,0.0
3621,0.7302813625184251,0.0
3622,-0.4159127615136583,0.0
3623,0.09697329339075912,0.0
3624,-0.007924137034028458,0.0
3625,0.08088910171045333,0.0
3626,-0.059668124117768555,0.0
3627,0.035571809010398484,0.0
3628,-0.053913229587682306,0.0
3629,-0.10859743783640462,0.0
3630,-0.05115835567699657,0.0
3631,-0.10718969461776146,0.0
3632,-0.08839118435918726,0.0
3633,0.08641138298545128,0.0
3634,3.502307273764897,0.0
3635,6.201129765251309,0.0
3636,-2.696114562012377,0.0
3637,0.9807407174269549,0.0
3638,-0.4112587363503322,0.0
3639,0.12371238028632289,0.0
3640,-0.0711615540660061,0.0
3641,0.027191519051472848,0.0
3642,0.0310461444482196,0.0
3643,-0.011754471543139272,0.0
3644,0.003303688935751843,0.0
3645,-0.06987535701006437,0.0
3646,-0.022153476517370235,0.0
3647,-0.08160579560588496,0.0
3648,-0.016544385326560024,0.0
3649,-0.062059399889840466,0.0
3650,0.5153145439680655,0.0
3651,5.449463407968574,0.0
3652,3.3408019410995853,0.0
3653,-2.7581121154046113,0.0
3654,1.457904782323222,0.0
3655,-0.8928589284598679,0.0
3656,0.20256897378507738,0.0
3657,-0.21904416258062573,0.0
3658,-0.025347961513581277,0.0
3659,-0.011458273311062805,0.0
3660,-0.15117013680483504,0.0
3661,0.01381288465042705,0.0
3662,-0.017369023440028795,0.0
3663,-0.03767653953405162,0.0
3664,0.01039647159685384,0.0
3665,-0.06746141707250285,0.0
3666,-0.01646337425241366,0.0
3667,1.5652000826260595,0.0
3668,6.890981159897666,0.0
3669,-0.1757817828780517,0.0
3670,-0.99811994905968,0.0
3671,0.6776605601286884,0.0
3672,-0.48308898717919674,0.0
3673,0.05378033663625849,0.0
3674,-0.09133608789554282,0.0
3675,0.0056734330478632675,0.0
3676,-0.04130966544159116,0.0
3677,0.018544547150278753,0.0
3678,0.06013069795227058,0.0
3679,0.01888315030746527,0.0
3680,-0.054328366410795005,0.0
3681,0.013653807295601006,0.0
3682,0.024712581217825057,0.0
3683,0.09104248961390288,0.0
3684,3.4551995992459097,0.0
3685,6.282887267986342,0.0
3686,-2.691620393059237,0.0
3687,0.9887202565113323,0.0
3688,-0.35535938284951224,0.0
3689,0.023069996253370834,0.0
3690,0.0012121948945111316,0.0
3691,-0.033071262377266174,0.0
3692,-0.11151324007343502,0.0
3693,-0.02435255901352748,0.0
3694,-0.0729946801104065,0.0
3695,-0.08641628919861333,0.0
3696,-0.10338924948719636,0.0
3697,-0.08346161469307861,0.0
3698,-0.14444991830157877,0.0
3699,-0.14426718704086436,0.0
3700,0.5199704102515403,0.0
3701,5.53184948105363,0.0
3702,3.402451482312142,0.0
3703,-2.791599245414016,0.0
3704,1.5149206698104967,0.0
3705,-0.9249679357162516,0.0
3706,0.27795270671804434,0.0
3707,-0.2236789839195979,0.0
3708,-0.0017867023895434611,0.0
3709,-0.06104773419012016,0.0
3710,-0.014437082058579472,0.0
3711,-0.08203754478156162,0.0
3712,-0.10821441240149018,0.0
3713,-0.15244069707011837,0.0
3714,-0.057480577487540235,0.0
3715,-0.13719456730176835,0.0
3716,-0.14062760956472561,0.0
3717,1.6242786767114314,0.0
3718,6.8414551368670145,0.0
3719,-0.3023116318265833,0.0
3720,-0.9520624217770114,0.0
3721,0.7129726326052234,0.0
3722,-0.6529282371312047,0.0
3723,0.12952243391897716,0.0
3724,-0.10815996619045522,0.0
3725,-0.03198327211040362,0.0
3726,-0.1289202186744107,0.0
3727,-0.0361147411117781,0.0
3728,-0.10104745623917055,0.0
3729,-0.004462259886335321,0.0
3730,-0.0161232360424452,0.0
3731,-0.0004218170228104459,0.0
3732,-0.06096330469649128,0.0
3733,0.05504043948783423,0.0
3734,3.4343539016010034,0.0
3735,6.162517450855055,0.0
3736,-2.8217302271316584,0.0
3737,0.8990979131338629,0.0
3738,-0.3588505295717291,0.0
3739,0.07733825482196141,0.0
3740,-0.18392334305752256,0.0
3741,-0.06420559434564571,0.0
3742,-0.11268428158912688,0.0
3743,-0.08469046996567037,0.0
3744,-0.014618855493943553,0.0
3745,-0.055830067957411814,0.0
3746,-0.02938397912553181,0.0
3747,-0.15508225474438053,0.0
3748,-0.12337106872061726,0.0
3749,-0.13969681611398385,0.0
3750,0.5207584215055651,0.0
3751,5.636965750633068,0.0
3752,3.3631090280744487,0.0
3753,-2.6712570097966535,0.0
3754,1.5564545014262852,0.0
3755,-0.8860630512413126,0.0
3756,0.26589030777661676,0.0
3757,-0.07438317551925812,0.0
3758,0.012570516509423011,0.0
3759,-0.035420174189836895,0.0
3760,0.0311846431505411,0.0
3761,-0.10116553593773339,0.0
3762,-0.07939026772401578,0.0
3763,0.03522476707893222,0.0
3764,-0.12048767080278992,0.0
3765,-0.050473378831487704,0.0
3766,-0.023945371624787666,0.0
3767,1.551923552208122,0.0
3768,6.851641878861631,0.0
3769,-0.33630325378495723,0.0
3770,-0.8116525070381098,0.0
3771,0.6990490375109656,0.0
3772,-0.41376175415936683,0.0
3773,0.20838239704921774,0.0
3774,-0.09651387505170599,0.0
3775,-0.0024058567677214017,0.0
3776,0.09721106022168848,0.0
3777,-0.03060266617818629,0.0
3778,-0.076249551872904,0.0
3779,0.021333570350839274,0.0
3780,-0.052724501076211905,0.0
3781,0.04289298715213621,0.0
3782,-0.0054771573645440545,0.0
3783,0.1143774707676119,0.0
3784,3.4542871256191208,0.0
3785,6.205916106462555,0.0
3786,-2.757614204978869,0.0
3787,1.0858230772951245,0.0
3788,-0.47848612484725994,0.0
3789,0.12308638081453614,0.0
3790,-0.0939729931475004,0.0
3791,0.00283412313947997,0.0
3792,0.03639620742598478,0.0
3793,0.042231938505441415,0.0
3794,0.019578090026344027,0.0
3795,-0.06736584003776269,0.0
3796,0.030856929146266428,0.0
3797,0.015566914542487802,0.0
3798,-0.04588788797859686,0.0
3799,0.05189178387463271,0.0
3800,0.5291039650585218,0.0
3801,5.547446064145548,0.0
3802,3.381720618477601,0.0
3803,-2.6777013203192706,0.0
3804,1.5071986840374825,0.0
3805,-0.7671839271592522,0.0
3806,0.33848671327135915,0.0
3807,-0.14325788894501462,0.0
3808,0.07943955146671033,0.0
3809,-0.04916777209469515,0.0
3810,-0.07044591142651778,0.0
3811,-0.1496040300067506,0.0
3812,0.032449523973308594,0.0
3813,-0.03517930430442049,0.0
3814,0.002358727371691155,0.0
3815,0.02203724510396457,0.0
3816,0.008190088909289463,0.0
3817,1.6158722335060807,0.0
3818,6.881272491730908,0.0
3819,-0.24557327700454126,0.0
3820,-0.8881757021945493,0.0
3821,0.7760873303480216,0.0
3822,-0.3411658726905804,0.0
3823,0.21886404852802427,0.0
3824,0.015052551896298158,0.0
3825,0.06647744343199521,0.0
3826,-0.041786781094189776,0.0
3827,-0.10013983530589879,0.0
3828,-0.004089844902428328,0.0
3829,-0.11843538964322754,0.0
3830,-0.07533564802724871,0.0
3831,-0.043022684847072355,0.0
3832,0.004466203847835394,0.0
3833,0.08436298265670902,0.0
3834,3.4728592651695815,0.0
3835,6.132107972894576,0.0
3836,-2.885288094506939,0.0
3837,0.9617947962586377,0.0
3838,-0.35499859194148864,0.0
3839,0.05227078707117364,0.0
3840,-0.06308246623166229,0.0
3841,-0.03169112359825282,0.0
3842,-0.02419031249137634,0.0
3843,-0.07576866819129977,0.0
3844,0.08835332194155686,0.0
3845,-0.042478155299057824,0.0
3846,0.06526830392130802,0.0
3847,0.05622614385911209,0.0
3848,0.06626481849763785,0.0
3849,0.04702595262078936,0.0
3850,0.5861325859697035,0.0
3851,5.672099962541965,0.0
3852,3.4292769514939603,0.0
3853,-2.651101687236973,0.0
3854,1.5336691428739369,0.0
3855,-0.7856856876384893,0.0
3856,0.3349918877632429,0.0
3857,-0.16259901732119958,0.0
3858,0.043271163026869355,0.0
3859,-0.09629421024100894,0.0
3860,-0.09631562485497813,0.0
3861,-0.05108225874363996,0.0
3862,0.10732596558670601,0.0
3863,0.011381833490487499,0.0
3864,-0.053804656929284406,0.0
3865,-0.00311557710538312,0.0
3866,-0.07803821989132775,0.0
3867,1.593644139678099,0.0
3868,6.975636701477041,0.0
3869,-0.31124648562760704,0.0
3870,-0.9549678131519811,0.0
3871,0.7430665610385592,0.0
3872,-0.3708794180179489,0.0
3873,0.1033887610914872,0.0
3874,-0.14647896701915872,0.0
3875,0.01196347872729608,0.0
3876,-0.01955275382058469,0.0
3877,0.06692650752974151,0.0
3878,0.06984080366640465,0.0
3879,-0.04500677294952061,0.0
3880,0.04781490227766723,0.0
3881,-0.017554467984894493,0.0
3882,0.06332762749642079,0.0
3883,0.1426933724519741,0.0
3884,3.4986412770030806,0.0
3885,6.181937930879745,0.0
3886,-2.732244382702632,0.0
3887,1.0833236458849111,0.0
3888,-0.4136488104423495,0.0
3889,0.11627383687957939,0.0
3890,-0.12481577140991336,0.0
3891,-0.07661627992746543,0.0
3892,-0.12359503455514656,0.0
3893,-0.010767050092089461,0.0
3894,-0.09145863238630599,0.0
3895,-0.06149256273656044,0.0
3896,-0.041028657546483605,0.0
3897,-0.17139651524512245,0.0
3898,-0.037246768081552854,0.0
3899,0.01250245575288704,0.0
3900,0.4537945723221396,0.0
3901,5.6114337389284366,0.0
3902,3.2429328861584996,0.0
3903,-2.7513790289888824,0.0
3904,1.4214149276489019,0.0
3905,-0.8030224293520255,0.0
3906,0.3546329985250973,0.0
3907,-0.19753996396419873,0.0
3908,-0.0929398562780483,0.0
3909,-0.0525001777457995,0.0
3910,-0.05626036467998465,0.0
3911,-0.1263484266667332,0.0
3912,-0.12242038902682066,0.0
3913,-0.12022964616729737,0.0
3914,-0.13926790528297428,0.0
3915,-0.09572816555822744,0.0
3916,-0.10653135975819887,0.0
3917,1.5426229223975996,0.0
3918,6.90057926015415,0.0
3919,-0.3568463029171964,0.0
3920,-0.951615480905138,0.0
3921,0.7123802263182377,0.0
3922,-0.3909092483145613,0.0
3923,0.10949153730740574,0.0
3924,-0.08195380364797283,0.0
3925,-0.15235302072666498,0.0
3926,0.10312098538617158,0.0
3927,-0.10978764453816262,0.0
3928,-0.00029453606562514917,0.0
3929,-0.02416058953668846,0.0
3930,0.029466319323088054,0.0
3931,-0.049647012241470695,0.0
3932,-0.08636218062483618,0.0
3933,0.056661169311308685,0.0
3934,3.4084069563453996,0.0
3935,6.0633791609976475,0.0
3936,-2.942919864406717,0.0
3937,0.9788729112335225,0.0
3938,-0.4249996248920152,0.0
3939,0.027009206538346542,0.0
3940,-0.20588544103540315,0.0
3941,-0.17724047686195715,0.0
3942,-0.06806756910720116,0.0
3943,-0.14192629227201628,0.0
3944,-0.15909318699754052,0.0
3945,-0.08276789672969148,0.0
3946,-0.03924065764151703,0.0
3947,-0.03945050869561027,0.0
3948,-0.11471051994931489,0.0
3949,-0.13845203969216344,0.0
3950,0.39166974206019267,0.0
3951,5.616175866738147,0.0
3952,3.2613047400658837,0.0
3953,-2.729795711434179,0.0
3954,1.4383754980355403,0.0
3955,-0.8432788881692882,0.0
3956,0.26946824663668023,0.0
3957,-0.1941982361953814,0.0
3958,-0.09514410535830253,0.0
3959,-0.06864105470201368,0.0
3960,-0.10005656829203369,0.0
3961,-0.09859605725277078,0.0
3962,-0.11636559356845841,0.0
3963,-0.20711188122016205,0.0
3964,-0.15047479928385357,0.0
3965,-0.09714477701301073,0.0
3966,-0.18149674475580085,0.0
3967,1.5359395401514317,0.0
3968,6.847193557397834,0.0
3969,-0.46236784935283914,0.0
3970,-0.9482888156649981,0.0
3971,0.6019401795548165,0.0
3972,-0.46451981324334646,0.0
3973,-0.012786988505290073,0.0
3974,-0.13071576690955922,0.0
3975,-0.029702022478442093,0.0
3976,-0.07869262761463162,0.0
3977,-0.11738784251835842,0.0
3978,-0.09708159561833546,0.0
3979,-0.11409243953564689,0.0
3980,-0.1308891499883915,0.0
3981,-0.10060918247998306,0.0
3982,-0.08639846445966194,0.0
3983,-0.018141732132804525,0.0
3984,3.473275719449526,0.0
3985,5.9899131519646795,0.0
3986,-2.8346379839699454,0.0
3987,0.9339850765970663,0.0
3988,-0.5213542293716479,0.0
3989,0.07539130723833973,0.0
3990,-0.12043163130862036,0.0
3991,-0.049602834722231925,0.0
3992,-0.02898227944754761,0.0
3993,-0.0803995109995973,0.0
3994,-0.07325063853261468,0.0
3995,-0.08363260653588156,0.0
3996,-0.05985280014076268,0.0
3997,-0.10010786325828697,0.0
3998,-0.05319696422447928,0.0
3999,-0.0979127325218275,0.0
4000,0.41684556537761513,0.0
4001,5.616804504506199,0.0
4002,3.1806138655844185,0.0
4003,-2.752350663621308,0.0
4004,1.6213483383111682,0.0
4005,-0.9761211773398588,0.0
4006,0.21544289133454986,0.0
4007,-0.1402078417042325,0.0
4008,-0.13565524662964323,0.0
4009,-0.15614157515120636,0.0
4010,-0.0342725931361909,0.0
4011,-0.07656358237890072,0.0
4012,-0.06986792877896073,0.0
4013,-0.0917518379290986,0.0
4014,-0.11946760552709895,0.0
4015,-0.1545410466578762,0.0
4016,-0.10456303188040994,0.0
4017,1.5765100765047946,0.0
4018,6.846433811370911,0.0
4019,-0.4179796577198036,0.0
4020,-0.9095208110315742,0.0
4021,0.6299443814836359,0.0
4022,-0.42259199960304134,0.0
4023,0.050572712241628855,0.0
4024,-0.07362368499037776,0.0
4025,-0.04433577106115597,0.0
4026,-0.12259704057229773,0.0
4027,-0.049402156661667265,0.0
4028,-0.047047453165172205,0.0
4029,-0.03732139403696751,0.0
4030,-0.05228974084922642,0.0
4031,-0.1427826706894063,0.0
4032,-0.04814451490953979,0.0
4033,-0.013600881286911962,0.0
4034,3.520444058883523,0.0
4035,6.079255890914881,0.0
4036,-2.8993906270594136,0.0
4037,0.959080242929187,0.0
4038,-0.4224076576836418,0.0
4039,0.07010138035474628,0.0
4040,-0.10361607003923412,0.0
4041,0.01801806959514253,0.0
4042,-0.00566415741666482,0.0
4043,0.03201130896829408,0.0
4044,0.004580590769595069,0.0
4045,-0.03711089290837231,0.0
4046,-0.049173771395104676,0.0
4047,-0.015359790099952916,0.0
4048,-0.014587409304587318,0.0
4049,-0.05191921875314895,0.0
4050,0.5858860697741222,0.0
4051,5.549236759083787,0.0
4052,3.19882409363121,0.0
4053,-2.641694961824252,0.0
4054,1.6100118148990756,0.0
4055,-0.8617607290951753,0.0
4056,0.18324030112026257,0.0
4057,-0.13962796705132602,0.0
4058,-0.016125995852896268,0.0
4059,-0.11887714424536823,0.0
4060,-0.0678391414379244,0.0
4061,-0.012612252452648895,0.0
4062,-0.08664078135713163,0.0
4063,-0.05967551860385496,0.0
4064,0.023968372676749554,0.0
4065,0.012192888705212394,0.0
4066,-0.1704759863115956,0.0
4067,1.5966896421442758,0.0
4068,6.917650086079071,0.0
4069,-0.48790386798064794,0.0
4070,-0.8572744001496564,0.0
4071,0.6083133807273545,0.0
4072,-0.41087185562719214,0.0
4073,0.1280209765643499,0.0
4074,-0.09275612715247945,0.0
4075,-0.049640612961433135,0.0
4076,-0.007657830656027438,0.0
4077,-0.06159242223536587,0.0
4078,-0.040368375307491516,0.0
4079,-0.10040490033919289,0.0
4080,-0.08415336643018241,0.0
4081,-0.005827695268051249,0.0
4082,-0.05177105337778104,0.0
4083,0.008855466530658412,0.0
4084,3.5344529106459563,0.0
4085,6.071074266030486,0.0
4086,-2.8030425949905577,0.0
4087,1.114329940407767,0.0
4088,-0.43518268543428434,0.0
4089,0.039540023362227436,0.0
4090,-0.11096773747832162,0.0
4091,-0.057405015424071025,0.0
4092,0.0025108506942491046,0.0
4093,-0.034469513571934805,0.0
4094,-0.0953462859739016,0.0
4095,-0.16123838884266628,0.0
4096,-0.06424529297582661,0.0
4097,-0.1116982679956876,0.0
4098,-0.06932005101203485,0.0
4099,-0.11551757551327081,0.0
4100,0.6257306737042179,0.0
4101,5.6612075831155995,0.0
4102,3.219172682445331,0.0
4103,-2.872126412574417,0.0
4104,1.5336385957281524,0.0
4105,-0.786680191530701,0.0
4106,0.30799702111663285,0.0
4107,-0.12099347085372496,0.0
4108,-0.007174239016218069,0.0
4109,-0.09742612216261812,0.0
4110,-0.057918854974024186,0.0
4111,0.029364724108530423,0.0
4112,-0.037770543822052804,0.0
4113,0.011301856456260823,0.0
4114,-0.0008591886262403585,0.0
4115,0.005365380198428343,0.0
4116,-0.08187764747223975,0.0
4117,1.6290075341919248,0.0
4118,7.0046910114164875,0.0
4119,-0.4545825809921221,0.0
4120,-0.8749443404038607,0.0
4121,0.6022304691170459,0.0
4122,-0.43641911344911716,0.0
4123,0.1445361079629985,0.0
4124,-0.1298362660066171,0.0
4125,-0.033620676281530405,0.0
4126,-0.034054866957496495,0.0
4127,-0.05152663508127932,0.0
4128,-0.10024842941458866,0.0
4129,-0.061348697153310025,0.0
4130,-0.014004751623497395,0.0
4131,-0.05260823547930357,0.0
4132,-0.03554615821487765,0.0
4133,0.041357529577936224,0.0
4134,3.568755805820804,0.0
4135,6.064850161721297,0.0
4136,-2.8734675079706755,0.0
4137,1.1043253877302623,0.0
4138,-0.4577105637952518,0.0
4139,0.13399873456913453,0.0
4140,-0.054077240962591554,0.0
4141,0.03659834091256367,0.0
4142,-0.0072851932296734145,0.0
4143,-0.0032217281410805605,0.0
4144,-0.025194546181012717,0.0
