timestamp,value-0,is_anomaly
0,0.27235417977365917,0
1,4.496513193056752,0
2,5.016355415694635,0
3,-3.002586491380554,0
4,1.502419231137376,0
5,-0.7839872494382769,0
6,0.22227817271188605,0
7,-0.1238159908761953,0
8,-0.025653042110709793,0
9,-0.018155174232770122,0
10,-0.04596357915811472,0
11,-0.06570412227820331,0
12,0.007048904489294516,0
13,0.051775146455847264,0
14,-0.04197854534043808,0
15,-0.04864816309339497,0
16,-0.030206945214537092,0
17,1.0007717739573827,0
18,6.448397430222613,0
19,1.4956233048991274,0
20,-1.9954315010836892,0
21,1.252203017254236,0
22,-0.7966385902352193,0
23,0.2769733246753082,0
24,-0.10446765555450067,0
25,0.01463473350954296,0
26,-0.05877473964694257,0
27,0.009695542328958352,0
28,-0.010464370956788413,0
29,-0.0058260567322931415,0
30,-0.03160054632944852,0
31,0.05491839523312228,0
32,-0.08799651648292389,0
33,-0.03328171883107821,0
34,2.529212561220828,0
35,6.850231662546586,0
36,-1.8108795299243823,0
37,0.12411394769150738,0
38,0.18478546001299487,0
39,-0.07264683374755003,0
40,0.009488034609134895,0
41,0.040965749384359325,0
42,-0.00458688036269346,0
43,-0.08268220079826763,0
44,-0.0017057324394231521,0
45,0.021681913237794326,0
46,-0.0034939419819590284,0
47,-0.07538416041286508,0
48,-0.05779058508541335,0
49,-0.0494243651308687,0
50,0.2491319369244558,0
51,4.60480137572965,0
52,4.968783197092468,0
53,-3.0155235750945586,0
54,1.5026071024519783,0
55,-0.7677703580143764,0
56,0.3296863328779325,0
57,-0.11258299669331813,0
58,-0.037609943317746926,0
59,-0.02531354790216659,0
60,-0.044531824149603175,0
61,0.022033016382446834,0
62,0.04190049762963033,0
63,-0.04018147148638222,0
64,-0.0018651894613889476,0
65,-0.062074132190367656,0
66,-0.07194836924570251,0
67,0.9561888135730827,0
68,6.52560549718841,0
69,1.4875549294183177,0
70,-2.0238734012066226,0
71,1.252094687911189,0
72,-0.6762683188052805,0
73,0.19105082988840832,0
74,-0.12464679960991949,0
75,0.02535007256921016,0
76,0.02474458958282994,0
77,-0.09904695411176309,0
78,-0.0030464908187270295,0
79,-0.05606491420573969,0
80,-0.08001668549287642,0
81,-0.07205192262745981,0
82,0.06690331967524106,0
83,-0.02403728061764266,0
84,2.4221660797365288,0
85,6.8467021585036205,0
86,-1.945126167669442,0
87,0.17183212221172942,0
88,0.12896028283850147,0
89,-0.07926656079918963,0
90,-0.1490061670249523,0
91,-0.03972828025115561,0
92,-0.025006252936343683,0
93,-0.05774763735795373,0
94,0.003449113210030129,0
95,-0.04968002691907168,0
96,-0.07938417262969066,0
97,0.033100273152145455,0
98,-0.051300000709475685,0
99,-0.15714028785087644,0
100,0.27292007763497333,0
101,4.505791165742173,0
102,5.005985092387476,0
103,-2.976184129907635,0
104,1.5168301975494132,0
105,-0.8178705541803158,0
106,0.21307685366678614,0
107,-0.030386173659670723,0
108,-0.00525633519293375,0
109,0.006472872455707053,0
110,-0.033735345562098895,0
111,0.008277717943474783,0
112,-0.021634677346962353,0
113,0.03679620292934357,0
114,-0.08034337738517584,0
115,-0.05411867229814114,0
116,-0.02397538949147023,0
117,0.9310119494127347,0
118,6.481424297430016,0
119,1.5624351993826684,0
120,-1.9394180523382984,0
121,1.1898482037114884,0
122,-0.5599264331968244,0
123,0.21857513845822604,0
124,-0.11988683504835888,0
125,-0.019521806951875022,0
126,-0.024905627367778297,0
127,-0.11662296315596397,0
128,-0.014991213263664364,0
129,-0.09250123677541225,0
130,0.0031118584559546546,0
131,-0.025858780982274183,0
132,-0.0934911649846277,0
133,0.07528117198981059,0
134,2.443500911712317,0
135,6.836768288684477,0
136,-1.8313433462624684,0
137,0.09045255156798698,0
138,0.11975448468792264,0
139,-0.00651617026460477,0
140,0.02115025953111381,0
141,-0.023495561825252337,0
142,0.05095027741665097,0
143,0.01842686183327654,0
144,0.05582628775100258,0
145,0.026066210412034146,0
146,0.02937728555965054,0
147,0.032253714372982537,0
148,0.030590758278627214,0
149,-0.05328337941378846,0
150,0.2977781659388018,0
151,4.605455543431057,0
152,4.997824853487034,0
153,-2.963382354242537,0
154,1.5903024999360134,0
155,-0.7462354567801622,0
156,0.23832109540022337,0
157,-0.1333153838849197,0
158,0.07018771998318021,0
159,-0.03315532234211828,0
160,0.02406271152175875,0
161,0.048427746963550386,0
162,-0.04087377931131836,0
163,0.03868404152834942,0
164,-0.059482104873206244,0
165,0.03715361750605258,0
166,0.09693800690352475,0
167,0.9947342984454359,0
168,6.324384660171125,0
169,1.4919678595211276,0
170,-1.905087869964551,0
171,1.2945498555533115,0
172,-0.49360513190422395,0
173,0.23831693386069086,0
174,-0.07686123905198358,0
175,-0.03167775847899521,0
176,0.002668800416416845,0
177,0.01895079289297915,0
178,-0.05111159060979329,0
179,0.0705426536350836,0
180,0.040650416717019154,0
181,0.05855311683928347,0
182,-0.05798667361609267,0
183,0.07292421301130479,0
184,2.4400443160957868,0
185,6.90055248358484,0
186,-1.8463193681054801,0
187,0.2177411310724538,0
188,0.20116171296384983,0
189,-0.06414396116345307,0
190,0.10821142115720676,0
191,0.06423830181278439,0
192,-0.002360781970220889,0
193,0.029200281605522092,0
194,0.03903376250549549,0
195,0.03829698622691255,0
196,0.09387273887608497,0
197,0.02152823716212804,0
198,0.012008728837059793,0
199,0.002678923004142568,0
200,0.36754933353716984,0
201,4.660750553158462,0
202,4.920852906214528,0
203,-3.046636024969268,0
204,1.573624590689853,0
205,-0.6629097775783024,0
206,0.22647810301043675,0
207,-0.07094987417300168,0
208,0.1401712404094953,0
209,0.0892620861616786,0
210,-0.00878145565635826,0
211,-0.02342927728120519,0
212,-0.0034655281994706265,0
213,0.041439688659885954,0
214,0.003174768796746656,0
215,0.05468193024430557,0
216,0.04152068207841427,0
217,1.0730619046490903,0
218,6.465323925312725,0
219,1.521413160097612,0
220,-1.8254070025295883,0
221,1.295678147090865,0
222,-0.5528736130157593,0
223,0.34826015976904334,0
224,-0.05523285116997285,0
225,0.01370393224566873,0
226,0.12366938159941651,0
227,0.05979921148191088,0
228,0.0052560674487024325,0
229,0.052834612713956675,0
230,0.10704507587352441,0
231,0.02912418961918597,0
232,0.0038812860731502613,0
233,0.0655636529753955,0
234,2.578435950914075,0
235,6.925346769753235,0
236,-1.803956587319686,0
237,0.17884130276401328,0
238,0.1124494906035535,0
239,-0.10431236362690155,0
240,0.004483567441901426,0
241,0.03413124942962954,0
242,0.0626629905267656,0
243,0.1472500453883784,0
244,0.07265872781134788,0
245,0.017910733520356853,0
246,0.09361456682455133,0
247,-0.0560759127073521,0
248,0.04714450460304094,0
249,0.01991077427088606,0
250,0.2673089087100058,0
251,4.684354864134853,0
252,4.995823001610568,0
253,-3.0442081751465406,0
254,1.558494188623557,0
255,-0.7223817026489461,0
256,0.3023878091582836,0
257,-0.21144250445795215,0
258,-0.02932304282346687,0
259,0.027538768182302106,0
260,0.039331861851911516,0
261,-0.03231224944330104,0
262,0.027705643649172128,0
263,0.00022402200770087373,0
264,0.011253707830422186,0
265,0.013892144624314862,0
266,-0.010518788181983138,0
267,1.0196519530008348,0
268,6.529027537083059,0
269,1.4036094441053688,0
270,-1.9200663404951472,0
271,1.196427295144954,0
272,-0.7105622961298651,0
273,0.25995707715221933,0
274,-0.1433741604081985,0
275,-0.007849669101267494,0
276,-0.01920617982029505,0
277,-0.06685163576584686,0
278,0.01718177683142122,0
279,-0.08112394570720992,0
280,-0.12583938319242352,0
281,0.03649695844307141,0
282,-0.0873985450787182,0
283,0.054051443503821336,0
284,2.5096727101208414,0
285,6.826642806608225,0
286,-1.843004628379644,0
287,0.2663897569438093,0
288,0.0792355247404706,0
289,-0.1672359954918331,0
290,0.0010487803868852036,0
291,0.1141459485973037,0
292,0.004563248119215713,0
293,0.06464046867232168,0
294,0.039823638380003266,0
295,0.012922708225466182,0
296,0.07230814673141747,0
297,0.02140741818287986,0
298,0.06365961598372763,0
299,0.15387420423264125,0
300,0.3510027749399667,0
301,4.711585860711321,0
302,4.947228216630975,0
303,-2.9223846487940897,0
304,1.5670056216477983,0
305,-0.695162354938797,0
306,0.1764197307547185,0
307,-0.07747491452647327,0
308,0.12405941320226951,0
309,-0.03950146578451551,0
310,0.014133974765511748,0
311,0.004015632369010404,0
312,-0.018398754103387625,0
313,0.05117756775098915,0
314,-0.04312623948579776,0
315,-0.06526692963268248,0
316,0.05078395309641514,0
317,1.005831191462066,0
318,6.5000130747416165,0
319,1.3740962225458289,0
320,-1.9167571603608724,0
321,1.1966741547955384,0
322,-0.7033166330851274,0
323,0.23043447292569508,0
324,-0.11088651843881753,0
325,0.08248952163366577,0
326,0.07847736074354264,0
327,-0.03233451953668732,0
328,-0.01619104350640395,0
329,-0.04781419691478789,0
330,0.054314958257189454,0
331,-0.09051915042002401,0
332,0.06998351456149046,0
333,0.11411739959857503,0
334,2.6071592673347337,0
335,6.880873204673628,0
336,-1.827097561522068,0
337,0.2699265732772715,0
338,0.06941908459711407,0
339,-0.1764646491239945,0
340,-0.09452768597828676,0
341,0.04976154170221633,0
342,0.0050279708603982775,0
343,0.06923147001543929,0
344,0.01467170825719858,0
345,0.07069716452499436,0
346,-0.08367183932832131,0
347,-0.01057359986061975,0
348,-0.04516343476601764,0
349,-0.008766001931771551,0
350,0.284653519328075,0
351,4.63980616212187,0
352,4.943515317727453,0
353,-2.9480759829917664,0
354,1.4809818635715162,0
355,-0.7036586770518511,0
356,0.3991278165831742,0
357,-0.04041419707699702,0
358,0.10040939239262128,0
359,0.05089593026380447,0
360,0.06030268191305514,0
361,0.05636150158912148,0
362,0.09358863335460388,0
363,0.03994128746880312,0
364,0.10823127454401671,0
365,-0.007816995209041541,0
366,0.15828723381491105,0
367,1.116772559811511,0
368,6.587850912483106,0
369,1.4287640569442952,0
370,-1.842600160507897,0
371,1.3354764657708174,0
372,-0.49822916851973453,0
373,0.41026212884202257,0
374,0.0052524664497267115,0
375,0.11761294864486789,0
376,0.08148460313525638,0
377,0.10605198393252371,0
378,0.06658895020309405,0
379,0.09066934945994826,0
380,0.05748531183850598,0
381,0.06188252149494388,0
382,-0.02794591278308982,0
383,0.0557249354611143,0
384,2.6132099331845136,0
385,6.87646299470001,0
386,-1.811227238176151,0
387,0.2759328790600987,0
388,0.20063062024453657,0
389,-0.017457726209342647,0
390,0.04355215777283079,0
391,0.03404685904950209,0
392,0.01207000860400536,0
393,0.019224031141638905,0
394,0.017932947772394882,0
395,0.15043947909330463,0
396,0.08791954153681786,0
397,0.07011592480948213,0
398,0.05313973492152531,0
399,0.029312475706549303,0
400,0.27896152937424956,0
401,4.782416908022769,0
402,4.867807129421226,0
403,-2.922886890040147,0
404,1.5157001476009753,0
405,-0.7039070636888393,0
406,0.3365156997123745,0
407,-0.03804483967154676,0
408,0.1130203700051427,0
409,-0.012462709175224768,0
410,0.057335366152297645,0
411,0.07216745030300137,0
412,0.014527770792484261,0
413,0.009880075143730703,0
414,0.0668909883555136,0
415,0.07346978527285997,0
416,0.08677002062228434,0
417,1.1621761255742136,0
418,6.581376219769536,0
419,1.4042565383779448,0
420,-1.7669074845964299,0
421,1.3884111377943231,0
422,-0.46105038001246773,0
423,0.44847850472241646,0
424,-0.006437219204196676,0
425,0.15499588902696154,0
426,0.08424046500854679,0
427,0.08049626843202234,0
428,0.11092130917549915,0
429,0.0779928872514497,0
430,0.04855699072246484,0
431,0.030735597216212742,0
432,0.09271685262171486,0
433,0.12371994089118264,0
434,2.6377220876810314,0
435,6.8242716160863885,0
436,-1.8550019968956457,0
437,0.27710171795359767,0
438,0.21247068856144055,0
439,-0.11701172640706826,0
440,0.022659284469595815,0
441,0.08464799755092549,0
442,0.07161561737383758,0
443,0.04092302173338862,0
444,0.05419409669182095,0
445,0.04195540685703891,0
446,0.029265760258378213,0
447,0.07840883620488402,0
448,0.03776171266438854,0
449,0.08049644716210488,0
450,0.41217615426228493,0
451,4.783946643852596,0
452,4.8652318139245185,0
453,-3.0881114430175707,0
454,1.5900132563198364,0
455,-0.74485030894952,0
456,0.36599936795293536,0
457,-0.09432885128936928,0
458,0.07667399091403251,0
459,-0.035487605597732994,0
460,0.0013531922717624975,0
461,-0.007146027442792434,0
462,0.03409563340513121,0
463,0.16012890172298197,0
464,-0.04820515925399728,0
465,0.14997529088123268,0
466,0.08084640271535866,0
467,1.130671819591061,0
468,6.55559427478244,0
469,1.3986619508288007,0
470,-1.8178092810659892,0
471,1.2821892432889035,0
472,-0.5981083238323662,0
473,0.34262048124970484,0
474,-0.08215318565486451,0
475,-0.007628461293420492,0
476,0.005227444610085798,0
477,-0.02889187494310958,0
478,-0.10870251617292513,0
479,-0.09804905970908645,0
480,0.03363900619281941,0
481,-0.08545990755564761,0
482,-0.09816571504107122,0
483,-0.04192302700926395,0
484,2.639541933751695,0
485,6.808787734585796,0
486,-2.00141324198219,0
487,0.21165289884624988,0
488,0.15447112093658716,0
489,0.02136077075081779,0
490,0.11419584641578673,0
491,0.16105855809673472,0
492,0.012811996414538313,0
493,0.11665204190500057,0
494,0.0007692646843900711,0
495,0.013726452150525002,0
496,0.07686604551572526,0
497,0.001548517169299428,0
498,0.013667567901576014,0
499,0.026091579354681923,0
500,0.29841452609675956,0
501,4.757610595143365,0
502,4.859415699847377,0
503,-2.9277444397080026,0
504,1.5220922575423521,0
505,-0.7076527989601945,0
506,0.2968967459637545,0
507,-0.06302475662199775,0
508,0.23327327935184433,0
509,0.06460859998321838,0
510,-0.01249915336165016,0
511,0.005285085427489886,0
512,-0.02145209826772776,0
513,0.00926708212980579,0
514,0.0818347667446048,0
515,0.060205995862925576,0
516,0.05082709587437756,0
517,1.0822132788831305,0
518,6.640535574021945,0
519,1.3151228354389746,0
520,-1.8017040691094874,0
521,1.1600521598936522,0
522,-0.5272744221447866,0
523,0.27756551322356326,0
524,-0.03573397502075725,0
525,0.038970663753657,0
526,0.07618653323350791,0
527,0.0024917133349524195,0
528,0.091759028024039,0
529,0.02882063460074115,0
530,0.110428486123089,0
531,0.08943165265089972,0
532,0.07118454566023565,0
533,0.07851550489020523,0
534,2.6877672239469943,0
535,6.832426690960851,0
536,-1.7544131959013223,0
537,0.3325668414456071,0
538,0.04524000431061635,0
539,-0.06325809499850553,0
540,0.1596986053369503,0
541,-0.05785835713496168,0
542,-0.0015996917832486052,0
543,0.07311150929104336,0
544,-0.05196043608310046,0
545,0.036830949560531547,0
546,0.0713733484720856,0
547,0.04543774944676879,0
548,0.08346688654469597,0
549,0.02498137436197825,0
550,0.33755173587480625,0
551,4.7880919316448765,0
552,4.754548568093391,0
553,-2.974203863750003,0
554,1.6479052538528132,0
555,-0.6757175468300898,0
556,0.3919838714542464,0
557,-0.03307916968293455,0
558,0.15365942708058816,0
559,-0.022028585307798134,0
560,-0.06673813665870568,0
561,-0.04604100833848396,0
562,-0.07282030100472493,0
563,-0.07665124796531048,0
564,0.058181573464516224,0
565,-0.019156114335297854,0
566,0.0017106254005475018,0
567,0.9735661909896958,0
568,6.548996536578589,0
569,1.342892135486437,0
570,-1.831376287220607,0
571,1.170514714117235,0
572,-0.5742588443760398,0
573,0.3133304632931636,0
574,-0.03499066406271749,0
575,-0.01639994971044848,0
576,-0.031278765069640585,0
577,-0.019231758859247022,0
578,0.09955271636168515,0
579,0.02075815688686484,0
580,-0.024892885309473246,0
581,-0.09435668539755386,0
582,-0.04427429806479382,0
583,0.012965677124213093,0
584,2.6108768490958547,0
585,6.85312680669941,0
586,-1.9933876422780672,0
587,0.3062532810111006,0
588,0.08592843241323461,0
589,-0.1160566705279733,0
590,-0.023381911397286285,0
591,0.01236594315713736,0
592,0.03313403853921013,0
593,0.05774974442885449,0
594,0.005495080329098449,0
595,0.017884664436601146,0
596,0.04827534355975255,0
597,0.06870254358412577,0
598,-0.016640262286690556,0
599,-0.041963029160157386,0
600,0.28648651052689533,0
601,4.752903487795208,0
602,4.789008418523485,0
603,-2.980155612177551,0
604,1.604810551245052,0
605,-0.7924309025296539,0
606,0.28353121258324643,0
607,-0.14387183887335236,0
608,0.06403113191343471,0
609,-0.042429655142256606,0
610,-0.003920728507518966,0
611,0.08447859648279092,0
612,-0.023345803349992467,0
613,0.035489519564240256,0
614,-0.05498337762830212,0
615,0.09589630333960181,0
616,0.024193078630194504,0
617,1.0573373053572142,0
618,6.488193769321333,0
619,1.2462977391883414,0
620,-1.8105306648163402,0
621,1.07314337318873,0
622,-0.6258504879647037,0
623,0.3136392159091628,0
624,-0.05080539831972504,0
625,-0.05894728146009054,0
626,0.037116912095788226,0
627,-0.011019747481905014,0
628,-0.015344283446787461,0
629,0.03280776299146236,0
630,0.002789061389456145,0
631,0.012009618647061026,0
632,-0.05159058017528445,0
633,0.019924260895756486,0
634,2.6624544977807236,0
635,6.7885548624953955,0
636,-2.0619946241103104,0
637,0.2839107759373496,0
638,-0.015890755047729105,0
639,-0.06442362473402806,0
640,0.03978442673246586,0
641,0.026789137108416145,0
642,-0.07833049576507049,0
643,-0.0016181309406378998,0
644,-0.05845043566812404,0
645,-0.039095555458241074,0
646,-0.08813624964934094,0
647,-0.06150560256517609,0
648,-0.006347364619844115,0
649,-0.15378167884472133,0
650,0.3040209901296695,0
651,4.7183718967927515,0
652,4.807976261603654,0
653,-2.9587991361397856,0
654,1.513026481623863,0
655,-0.8125978952345441,0
656,0.28278070459827714,0
657,-0.17249288563883772,0
658,-0.06288687249921118,0
659,0.03689393637940147,0
660,0.019989209346849043,0
661,0.0032222209060672642,0
662,0.004698096381730667,0
663,-0.056826503786540805,0
664,-0.06577254042590348,0
665,-0.08443863512259425,0
666,0.019299090123817683,0
667,1.0858941130317206,0
668,6.450374160522757,0
669,1.1261958414737119,0
670,-1.824441213926406,0
671,1.0812933374527967,0
672,-0.6559235044887416,0
673,0.17124445881636305,0
674,-0.20398713486630632,0
675,-0.029803459349067536,0
676,-0.046303545550572686,0
677,0.0059242454934855405,0
678,0.08840407696049091,0
679,0.03559534850032204,0
680,0.0045252944098478545,0
681,0.005433257555478396,0
682,0.04566731453054247,0
683,0.07026871676297498,0
684,2.7367789824406175,0
685,6.827697439669963,0
686,-2.112870059645785,0
687,0.3363728284764058,0
688,0.10014801770201032,0
689,-0.09203953001411264,0
690,-0.03508736188180982,0
691,0.059013555285219746,0
692,-0.08780575054909093,0
693,-0.10970038465121776,0
694,-0.0429993969967081,0
695,-0.026242000562437452,0
696,-0.03368874269301051,0
697,-0.05867697566855096,0
698,-0.07183622777092982,0
699,0.01677068750905477,0
700,0.17662314762762688,0
701,4.734605614105078,0
702,4.59431220557825,0
703,-3.0335460590466323,0
704,1.6000561442034447,0
705,-0.836295576736089,0
706,0.3038623479908615,0
707,-0.12376472523939928,0
708,0.030363013680470403,0
709,-0.064312269450636,0
710,-0.01565694669738123,0
711,-0.02965136191194524,0
712,-0.06038168061880303,0
713,-0.017573525763397175,0
714,-0.035655565148370955,0
715,-0.012831412041681561,0
716,0.003226565657105371,0
717,1.019829579599678,0
718,6.5640944864169315,0
719,1.1868680487753336,0
720,-1.8922041066301443,0
721,1.1419994844686785,0
722,-0.5616000138127031,0
723,0.259065922183713,0
724,-0.17067751252378907,0
725,-0.005691524149891849,0
726,-0.05233706227177579,0
727,-0.020432331729044913,0
728,-0.10343119575454748,0
729,0.039261474143529686,0
730,-0.09766917992387275,0
731,-0.08813833901430017,0
732,0.0433607387634226,0
733,-0.026906746533665968,0
734,2.613314276404161,0
735,6.860127795799371,0
736,-1.9874246909353905,0
737,0.3588206772328821,0
738,-0.10318766148615592,0
739,-0.06348034067169595,0
740,-0.08603692344103513,0
741,0.002461921877421013,0
742,-0.025196482578834018,0
743,0.012426904873651286,0
744,0.033047012233911585,0
745,-0.00870961468115433,0
746,2.8765185541967248e-06,0
747,0.032536581718912584,0
748,-0.07373611772993292,0
749,-0.05290520900395397,0
750,0.2937331129752885,0
751,4.76943798699733,0
752,4.5567404545248005,0
753,-2.9815493083404325,0
754,1.5509935156572088,0
755,-0.8119362830368699,0
756,0.2631931096922615,0
757,-0.16839430334958255,0
758,0.032886642799759766,0
759,-0.057494692910474925,0
760,-0.07109898960558186,0
761,-0.030403696618526377,0
762,-0.0841655242208112,0
763,-0.04409370437253933,0
764,-0.0661645237415387,0
765,0.00037329790191077683,0
766,-0.01807057396392331,0
767,1.020530938672382,0
768,6.562396445226339,0
769,1.1188212326143867,0
770,-1.7792077746440322,0
771,1.2110774816280858,0
772,-0.661741295148748,0
773,0.17921749546935178,0
774,-0.10148766216893906,0
775,-0.044259470920863776,0
776,0.03555546984956763,0
777,-0.07593475752379382,0
778,-0.11095984655845989,0
779,0.0023444824431520586,0
780,-0.14049087271384458,0
781,-0.0021630335877733872,0
782,-0.01656203772691371,0
783,-0.004574891382984279,0
784,2.642749467415706,0
785,6.712331566293105,0
786,-1.9347199347041009,0
787,0.34414978723389333,0
788,-0.020658502423393628,0
789,-0.05340020567465308,0
790,-0.05797400030750142,0
791,-0.12352046721089174,0
792,0.04773818722350796,0
793,-0.15071404439984765,0
794,-0.05675707222475802,0
795,-0.11126919291330412,0
796,0.00942477181686225,0
797,0.021704180588532122,0
798,-0.14385818181129362,0
799,-0.09371222173140947,0
800,0.2642058736690312,0
801,4.726295326920433,0
802,4.594545513486975,0
803,-3.0484821288733057,0
804,1.531639101855093,0
805,-0.8435222095287791,0
806,0.21113263858699421,0
807,-0.14429557949307206,0
808,0.026398996565400998,0
809,-0.013464909073182672,0
810,-0.024783492330672723,0
811,-0.01370575497012973,0
812,-0.07524608982680152,0
813,-0.03383546302623389,0
814,-0.07951739704484621,0
815,0.041055102780662406,0
816,-0.06609954792231844,0
817,1.0141842968706176,0
818,6.5926586615635925,0
819,1.0057144270296987,0
820,-1.8655673611536459,0
821,1.0625648065812638,0
822,-0.5776486395331621,0
823,0.2376404583167382,0
824,-0.1802642503208859,0
825,-0.016420841249097384,0
826,-0.011544408738621989,0
827,-0.07623784817029289,0
828,-0.039584419382752326,0
829,-0.053155964694792536,0
830,-0.07406157443563555,0
831,-0.05572325027392022,0
832,-0.09877420289935937,0
833,-0.05505720940951128,0
834,2.7035499848214744,0
835,6.6868135385137135,0
836,-2.0818732593139515,0
837,0.33116271036324907,0
838,0.024949377855095822,0
839,-0.1056743848800582,0
840,-0.0775530710669606,0
841,0.09068926686813933,0
842,-0.058668064541239975,0
843,-0.05385791698939616,0
844,-0.1227191757534899,0
845,-0.032138711010056595,0
846,0.06708926972637139,0
847,-0.07788167635856005,0
848,-0.10743534709791336,0
849,-0.023758700410476386,0
850,0.18756290006966592,0
851,4.858228867707436,0
852,4.647004168662915,0
853,-2.961061035536233,0
854,1.477591466375051,0
855,-0.8180558430583516,0
856,0.2700161934448557,0
857,-0.1483163647312476,0
858,0.049892830175545015,0
859,-0.06654933510836622,0
860,-0.08323163496063939,0
861,0.047474266149509545,0
862,-0.003137635691303018,0
863,-0.07859642152807626,0
864,-0.03074632134187265,0
865,0.010936616952254685,0
866,-0.11561399479640679,0
867,1.1022311126743853,0
868,6.610733333334971,0
869,0.9993152747922202,0
870,-1.8207493831571353,0
871,1.035275132357006,0
872,-0.6050742671724243,0
873,0.149797479817239,0
874,-0.10478241072216796,0
875,-0.036256045271348764,0
876,-0.08476164308957392,0
877,-0.037432802199618594,0
878,-0.10424599521119193,0
879,-0.10346951490008065,0
880,-0.12000712443381298,0
881,-0.06002244814566261,0
882,-0.021217974688205465,0
883,-0.08629988131895262,0
884,2.677987485632858,0
885,6.707401210518512,0
886,-2.039584337645318,0
887,0.3748479533319095,0
888,-0.12503739481989923,0
889,-0.1335916293967624,0
890,-0.034292648162990484,0
891,-0.059781362237411706,0
892,0.0446333895731542,0
893,0.0019572503206505623,0
894,0.030420207401120683,0
895,0.10435104892392497,0
896,0.04367509935911055,0
897,0.03149697524257045,0
898,0.00951558174169504,0
899,0.05096564683484649,0
900,0.3606648949531245,0
901,4.827722852294335,0
902,4.663275728640905,0
903,-2.9487857934144492,0
904,1.650559736284425,0
905,-0.7338364268880119,0
906,0.29229215155686283,0
907,-0.01922409687459735,0
908,0.10454758234777518,0
909,0.11429900612171882,0
910,0.10656321041761468,0
911,0.07697696212996243,0
912,0.05962846575914034,0
913,0.014303918394782424,0
914,0.04882806686858753,0
915,0.03805581072167381,0
916,-0.07812249183657372,0
917,1.1176031034650746,0
918,6.526417469951068,0
919,1.090994875169613,0
920,-1.740408989475787,0
921,1.1313535049713759,0
922,-0.6978586978081153,0
923,0.3018427569035057,0
924,-0.22514217754318122,0
925,0.024858757036253565,0
926,-0.09790820113650571,0
927,0.02420443833497184,0
928,0.06891620518941215,0
929,-0.04727920171278671,0
930,-0.0055350035001726465,0
931,0.07096785124872856,0
932,-0.035498131631966405,0
933,0.03183940401038218,0
934,2.7338252184084455,0
935,6.77164527404712,0
936,-2.1007284451054984,0
937,0.47014400956207053,0
938,0.08269500553629466,0
939,-0.07598346593880287,0
940,-0.018964981265133192,0
941,0.061431550017382465,0
942,0.024105253816284738,0
943,-0.03815253994257183,0
944,0.009224245274805754,0
945,-0.021988790965313216,0
946,-0.08663092861804661,0
947,-0.1410637396839886,0
948,-0.17511790028751634,0
949,-0.11471232495427099,0
950,0.27961047930001437,0
951,4.697317715517199,0
952,4.604672648184364,0
953,-3.0244950434339524,0
954,1.5410613991461717,0
955,-0.7797562319261216,0
956,0.3173636554670354,0
957,-0.15626469870105578,0
958,-0.01120558050527029,0
959,-0.03806476440970841,0
960,0.02767146367417611,0
961,-0.017867788888777235,0
962,-0.07276452615962797,0
963,0.03859477271357982,0
964,0.05187939119854866,0
965,0.08139987846360723,0
966,0.009954784408916641,0
967,1.1576089231304532,0
968,6.630230304716199,0
969,1.085418612256397,0
970,-1.6313778631160385,0
971,1.126463652304914,0
972,-0.5817270281242528,0
973,0.21973662109384903,0
974,0.02176943942790527,0
975,0.09641593882145172,0
976,0.07456506846469207,0
977,0.09671367335173706,0
978,0.08379996679211141,0
979,0.09326234345254167,0
980,0.05863903501608654,0
981,0.03791504211514966,0
982,0.12010322241391312,0
983,0.1455556476241161,0
984,2.800841561885419,0
985,6.76648316242095,0
986,-2.1155508820098685,0
987,0.3759472186629404,0
988,-0.006802907702381157,0
989,-0.06259209593255197,0
990,0.01878794453825839,0
991,0.04963779010026044,0
992,-0.0730821778567875,0
993,0.08433079394142143,0
994,0.024536459314076966,0
995,-0.05274062415094663,0
996,0.011433382422616817,0
997,0.06566330142953195,0
998,0.043270365581706605,0
999,-0.06262372427947689,0
1000,0.364742181452768,0
1001,4.877121178969091,0
1002,4.629022587455671,0
1003,-3.033582351596443,0
1004,1.5150330619842864,0
1005,-0.762318130462429,0
1006,0.317186616511728,0
1007,-0.08107427270931185,0
1008,0.02760458247115796,0
1009,-0.04118096480622295,0
1010,0.03447470781762016,0
1011,0.0378400234545317,0
1012,0.03062153162764579,0
1013,0.023800993194863,0
1014,0.022054010143013326,0
1015,0.009703822536226626,0
1016,-0.023581451730108276,0
1017,1.1779699005443038,0
1018,6.719960647534924,0
1019,1.1129462078025505,0
1020,-1.690593601938017,0
1021,1.1195124887545942,0
1022,-0.5478977695989666,0
1023,0.2972546205151043,0
1024,0.03785499497107805,0
1025,-0.0021262184724321204,0
1026,0.05471064561261239,0
1027,0.06248021205793382,0
1028,-0.005748159686950742,0
1029,0.031100248788345355,0
1030,-0.03163774282511384,0
1031,0.023255157789821023,0
1032,-0.05763373567755442,0
1033,0.0999076131614258,0
1034,2.7931090809445354,0
1035,6.767132982738894,0
1036,-2.118234944681336,0
1037,0.4680783193517456,0
1038,0.12749158762783222,0
1039,0.06801010774640516,0
1040,0.002462131585671816,0
1041,0.12942898253433133,0
1042,0.000478198924886937,0
1043,0.05506459069866189,0
1044,0.02230314012840518,0
1045,0.014996957941895674,0
1046,0.02626840708077726,0
1047,0.09851939880760621,0
1048,-0.060646526162797317,0
1049,0.05247038481419393,0
1050,0.3503652695868614,0
1051,4.988117162319776,0
1052,4.710734792970316,0
1053,-2.8671855366851493,0
1054,1.6285235982434638,0
1055,-0.795873777403431,0
1056,0.2821693270644835,0
1057,-0.0781581401795082,0
1058,0.06050139585779449,0
1059,-0.09521221484504598,0
1060,-0.037478475046926515,0
1061,0.014500802851438968,0
1062,0.05857676267884436,0
1063,-0.0024381757304428025,0
1064,-0.01848526614171447,0
1065,0.013033548173024968,0
1066,-0.015303428979815712,0
1067,1.1540316173225855,0
1068,6.559103331513143,0
1069,1.0118466443278191,0
1070,-1.717048987408582,0
1071,1.1067368400108877,0
1072,-0.6116582679444962,0
1073,0.2170359645518999,0
1074,-0.04104747102980394,0
1075,0.030163811325182595,0
1076,0.10488467515564703,0
1077,-0.052919020180808116,0
1078,-0.003434583327057955,0
1079,-0.02506972177779631,0
1080,0.08543285235637714,0
1081,-0.019339805523981877,0
1082,-0.04577993411289252,0
1083,0.11214882246952623,0
1084,2.8844838997952316,0
1085,6.768131555349559,0
1086,-2.032882761450517,0
1087,0.46376675169731807,0
1088,0.06197669116949853,0
1089,-0.07731056339951461,0
1090,-0.025426747758784618,0
1091,-0.04759433868043921,0
1092,0.023939774936862467,0
1093,-0.0557940937112778,0
1094,0.0504905827662389,0
1095,-0.007124347427326351,0
1096,0.14287291394093873,0
1097,0.11717351860469868,0
1098,0.017900175270071553,0
1099,0.12579750002106282,0
1100,0.37935271896887013,0
1101,4.949018220023135,0
1102,4.644756853084288,0
1103,-2.9796155783653653,0
1104,1.6030479642865336,0
1105,-0.7185685066655514,0
1106,0.31112767791449514,0
1107,-0.08750111930318638,0
1108,0.08957924689037616,0
1109,0.0188963771583401,0
1110,0.04898221574790223,0
1111,0.0722220242274419,0
1112,0.09752128225259171,0
1113,0.029630364440938826,0
1114,-0.038881669522446684,0
1115,0.10006242939417619,0
1116,0.07628452201135534,0
1117,1.19022380257895,0
1118,6.648324321708768,0
1119,1.1581272874889375,0
1120,-1.6239246436285943,0
1121,1.165076230773457,0
1122,-0.4613204255424574,0
1123,0.31162452857236456,0
1124,0.05792236208418883,0
1125,0.0888205765474218,0
1126,0.0012552836598283754,0
1127,0.09734051536400508,0
1128,0.04000901859906601,0
1129,0.04033838474133855,0
1130,0.10753281309284796,0
1131,0.05525177071421207,0
1132,0.16743879939590445,0
1133,0.10476195944774885,0
1134,2.75454770012184,0
1135,6.802203847113995,0
1136,-2.10267119070121,0
1137,0.48266015324002864,0
1138,0.09148313382191528,0
1139,0.04831799857833419,0
1140,0.12068968196225799,0
1141,0.1114300919809445,0
1142,0.09087489361733303,0
1143,0.0394742757747596,0
1144,0.07399876150488693,0
1145,0.08729473674169147,0
1146,0.055754962054548524,0
1147,0.03419995157022023,0
1148,0.15896864014590387,0
1149,0.16930290463288453,0
1150,0.44195480821284794,0
1151,4.953080461573302,0
1152,4.668135738827898,0
1153,-2.931851672118733,0
1154,1.6763017882208935,0
1155,-0.7702155763154566,0
1156,0.31954597981844235,0
1157,0.002938201714538617,0
1158,0.12767723473895692,0
1159,0.01565061833727334,0
1160,0.015344629636337218,0
1161,0.047377166262537546,0
1162,0.0317998674763271,0
1163,0.05308124441792675,0
1164,0.15809627127559694,0
1165,0.06949681369107895,0
1166,0.09122734555231439,0
1167,1.2227549272197715,0
1168,6.679055535949211,0
1169,1.0933677535928001,0
1170,-1.5169594550495302,0
1171,1.1487138437744717,0
1172,-0.5444963569662569,0
1173,0.3332235807697444,0
1174,-0.03938688351211162,0
1175,0.1161535606665787,0
1176,0.056185036462036216,0
1177,0.047283004806124226,0
1178,0.021316623508826876,0
1179,0.05707969858712905,0
1180,0.0776923168833645,0
1181,-0.0660477859558621,0
1182,0.050993455388734926,0
1183,0.06727959774848657,0
1184,2.808853260285232,0
1185,6.70701035374266,0
1186,-2.118853042608403,0
1187,0.5158705704373711,0
1188,0.09799143705670918,0
1189,0.033928384072165564,0
1190,0.14500157022318672,0
1191,0.04089992001303121,0
1192,0.09309671010545827,0
1193,0.13006348778264823,0
1194,0.15313563154897383,0
1195,0.2350000912416289,0
1196,0.21116572353242047,0
1197,0.1890467557852547,0
1198,0.12732313407189855,0
1199,0.1894380934448741,0
1200,0.5296706999236616,0
1201,5.020692054270842,0
1202,4.73874147557555,0
1203,-2.7982743000412045,0
1204,1.6694788374300957,0
1205,-0.6412358670368815,0
1206,0.5072020960789337,0
1207,0.016161961566852907,0
1208,0.12556103626024873,0
1209,0.1359401379722946,0
1210,0.09241027695368467,0
1211,0.08143721080670367,0
1212,0.04914090223872476,0
1213,0.1331258291143628,0
1214,0.10864614763866239,0
1215,0.2305481905610054,0
1216,0.063089530947616,0
1217,1.2606367525364872,0
1218,6.770393385086915,0
1219,1.0654002354438898,0
1220,-1.4015193218464106,0
1221,1.2378355522587552,0
1222,-0.4620764370182968,0
1223,0.32952391950007426,0
1224,0.014888248958265099,0
1225,0.2140975597924799,0
1226,0.1099008969797855,0
1227,0.12941081218651143,0
1228,0.13495148048687464,0
1229,0.05833743531877785,0
1230,0.1443682223791291,0
1231,0.058621815747158273,0
1232,0.057224642636404595,0
1233,0.1794672961544537,0
1234,2.9887482077308776,0
1235,6.842706267687195,0
1236,-2.034394726288376,0
1237,0.6664640898618849,0
1238,0.1983925220032462,0
1239,0.09516315694713232,0
1240,0.14866637247714445,0
1241,0.11728485235781808,0
1242,0.1521994995504981,0
1243,0.21419444093184276,0
1244,0.0965344204442064,0
1245,0.10488462614490304,0
1246,0.09963550890350917,0
1247,0.22783828140244158,0
1248,0.05654108736092399,0
1249,0.13366784329989212,0
1250,0.3882808557759295,0
1251,5.015652695092403,0
1252,4.648413559742181,0
1253,-2.882496401086992,0
1254,1.6837605711511683,0
1255,-0.7333467833357816,0
1256,0.402146087737781,0
1257,-0.000531937415282794,0
1258,0.1649528323015923,0
1259,0.05479901758881874,0
1260,0.12853595721066327,0
1261,0.1121607438664281,0
1262,0.029129891480637216,0
1263,0.1356498324378513,0
1264,0.19414173729549816,0
1265,0.037630395936154165,0
1266,0.10688035953116518,0
1267,1.2494720919020033,0
1268,6.71172125588525,0
1269,0.9576328633615926,0
1270,-1.5413991990231577,0
1271,1.0908763273377238,0
1272,-0.49420839900424324,0
1273,0.28509705503627,0
1274,-0.12767888388549495,0
1275,0.050195572577280585,0
1276,0.14290574761106214,0
1277,0.11560533021021997,0
1278,0.12714554294679042,0
1279,0.10362880388497026,0
1280,0.05630143425701754,0
1281,0.08242660353194595,0
1282,0.0710643291458614,0
1283,0.11634666461360144,0
1284,2.791506515155654,0
1285,6.793541756072923,0
1286,-2.1766745921997437,0
1287,0.5160307152997544,0
1288,0.0020336467072301807,0
1289,0.07023570177166037,0
1290,-0.03176263888893646,0
1291,0.03575008361638511,0
1292,-0.027138398758610793,0
1293,0.054045835654269084,0
1294,0.015372705972351207,0
1295,0.0755132626561571,0
1296,-0.015750847486382516,0
1297,0.05838416526732907,0
1298,0.0020605363266272964,0
1299,0.08716405983779438,0
1300,0.4253646822662836,0
1301,5.001616036080152,0
1302,4.518355258776836,0
1303,-2.980144330503616,0
1304,1.6922096189000957,0
1305,-0.7147545581569921,0
1306,0.44387788713146487,0
1307,-0.13378688196339839,0
1308,0.14597757418208188,0
1309,0.09286644605272068,0
1310,0.10695179272911862,0
1311,0.11492649501085664,0
1312,0.07048496501334124,0
1313,0.046555062571687456,0
1314,0.08689136306077752,0
1315,0.07176226052622939,0
1316,0.07854830117329165,0
1317,1.204357020311892,0
1318,6.699949657233624,0
1319,0.9358482463484391,0
1320,-1.5425268679940192,0
1321,1.1539117538670525,0
1322,-0.5103197033360503,0
1323,0.34814331721455727,0
1324,-0.031124467033699376,0
1325,0.023694553558363685,0
1326,0.03258437166860482,0
1327,-0.04955744045596311,0
1328,0.04517587484604314,0
1329,0.041471466062839246,0
1330,0.08354786809024545,0
1331,0.0810816692599097,0
1332,0.18835690913987715,0
1333,0.22506275126951955,0
1334,2.8395772441703944,0
1335,6.721364649084353,0
1336,-2.24463366634034,0
1337,0.5172633667140041,0
1338,0.08361953258201638,0
1339,-0.04810294303622016,0
1340,-0.011604423930490462,0
1341,0.08170843496509023,0
1342,0.029364405574494663,0
1343,0.03781229192775693,0
1344,-0.02843408578507211,0
1345,-0.10545377167435027,0
1346,0.00616304100307603,0
1347,-0.026898386550096492,0
1348,0.07002146945090086,0
1349,0.1200927138865149,0
1350,0.39842538620883583,0
1351,4.953579975632812,0
1352,4.515324956744237,0
1353,-2.8483594914371735,0
1354,1.6943477114740413,0
1355,-0.7536772545541011,0
1356,0.35889354114739586,0
1357,-0.08884363849205504,0
1358,0.12854274781830577,0
1359,0.04181926250369837,0
1360,0.06635143884328173,0
1361,0.04471782904062358,0
1362,0.15646713520647199,0
1363,-0.020009084328179584,0
1364,-0.038012903491378106,0
1365,-0.03065706544527584,0
1366,0.037462561440927335,0
1367,1.220398950972277,0
1368,6.673267095738674,0
1369,0.8496553803908751,0
1370,-1.609688910056733,0
1371,1.1721425172418927,0
1372,-0.5524119417444456,0
1373,0.30872926599299955,0
1374,-0.018261987116680437,0
1375,-0.050122012202644,0
1376,-0.1134512232227019,0
1377,0.10135306060022185,0
1378,-0.09829067574678525,0
1379,-0.03718153066880823,0
1380,-0.0958857325291268,0
1381,-0.04122861938461711,0
1382,0.055503215555618206,0
1383,0.006496677406959292,0
1384,2.87619660326717,0
1385,6.655122377434233,0
1386,-2.220773030258332,0
1387,0.4924867787734393,0
1388,-0.13343730665278153,0
1389,-0.04909797908577687,0
1390,-0.04464924440660577,0
1391,-0.044411413143522385,0
1392,0.01045475916002287,0
1393,-0.07049992640344005,0
1394,0.05764019920887465,0
1395,-0.01707145625801576,0
1396,0.020335362776080338,0
1397,0.036691577747620704,0
1398,0.0499412710326728,0
1399,0.010472301413380318,0
1400,0.36262273087943403,0
1401,4.929874797553963,0
1402,4.479780722761751,0
1403,-2.9343426739685,0
1404,1.534245528398204,0
1405,-0.7909402698438717,0
1406,0.32711927745580105,0
1407,-0.08595511817167038,0
1408,0.05239753665334904,0
1409,-0.04620267909220316,0
1410,-0.03197411097321021,0
1411,-0.026907988562855492,0
1412,-0.054236802325172445,0
1413,-0.013626835054904213,0
1414,-0.029318979868953966,0
1415,0.07120929506941388,0
1416,-0.05216507498783834,0
1417,1.1923957681226136,0
1418,6.687803829191084,0
1419,0.8553860080508323,0
1420,-1.5040249541458954,0
1421,1.0044556802453366,0
1422,-0.4869296215437827,0
1423,0.24940428578855642,0
1424,-0.09566778460198701,0
1425,0.02511188966235329,0
1426,-0.026114840326743466,0
1427,-0.009195353995496855,0
1428,0.012148590385669806,0
1429,0.10656731562686757,0
1430,-0.012553993065277241,0
1431,0.04461952345671648,0
1432,0.10857341088391717,0
1433,-0.005392760390083226,0
1434,2.9288295016402963,0
1435,6.666413181008789,0
1436,-2.2462378939417684,0
1437,0.5690315580127133,0
1438,-0.06807135775417762,0
1439,-0.03263865196641495,0
1440,0.027104024185774254,0
1441,0.06986830939281197,0
1442,0.01630700434250656,0
1443,0.02754907611047378,0
1444,0.03217017893460633,0
1445,-0.04038215710727362,0
1446,0.017259223982486284,0
1447,-0.05346756161346633,0
1448,0.006077480060297064,0
1449,0.028965888156938843,0
1450,0.38797901991277967,0
1451,5.030916607691211,0
1452,4.442790553102361,0
1453,-3.039328314524634,0
1454,1.6456048731943118,0
1455,-0.7241936558652857,0
1456,0.3509323723837419,0
1457,-0.07081923100378738,0
1458,0.09220320837290874,0
1459,0.12730308442825414,0
1460,-0.06129204913815236,0
1461,-0.01113594451960086,0
1462,0.05801842526000927,0
1463,-0.024587543797354124,0
1464,-0.029720815511086972,0
1465,-0.043338287006979344,0
1466,-0.01946120649647597,0
1467,1.1628312329556416,0
1468,6.58657799488234,0
1469,0.8321852355083255,0
1470,-1.5729906933697766,0
1471,1.156606985786648,0
1472,-0.47692971081238655,0
1473,0.22152084016026152,0
1474,0.015788225088861234,0
1475,0.011800834930692724,0
1476,-0.03587215063903964,0
1477,0.047323650627330766,0
1478,-0.013531419507667355,0
1479,0.04550567577929117,0
1480,0.04010273431606427,0
1481,0.07025268203904333,0
1482,0.038376120818616646,0
1483,0.09889163881648386,0
1484,2.889927259032955,0
1485,6.7219298213834895,0
1486,-2.1897169645014296,0
1487,0.6457075295463645,0
1488,-0.10477992644180473,0
1489,-0.009626666522006992,0
1490,-0.10890754165759024,0
1491,-0.09935030236654013,0
1492,-0.04575400117984265,0
1493,-0.07148065367363005,0
1494,-0.1086493993010191,0
1495,-0.018119570963971557,0
1496,0.04662329863001441,0
1497,0.09562898535424112,0
1498,0.03611086184494846,0
1499,-0.04200707616279058,0
1500,0.35054428583654357,0
1501,5.011958041301612,0
1502,4.463534745405081,0
1503,-2.976032459986655,0
1504,1.5323522499560234,0
1505,-0.7507461593538961,0
1506,0.354425725420815,0
1507,-0.07946266524066588,0
1508,0.13705572431993795,0
1509,-0.03359718502394935,0
1510,0.05425473751442565,0
1511,-0.04204319223741455,0
1512,-0.008275727079939359,0
1513,0.03889824745367848,0
1514,0.058079659113690715,0
1515,0.10633075885185267,0
1516,0.017723939006759313,0
1517,1.1724879166498603,0
1518,6.593549429585348,0
1519,0.8880916993819367,0
1520,-1.5619005220904656,0
1521,1.0647455799509802,0
1522,-0.4589599034457536,0
1523,0.3103094893631796,0
1524,0.07273305970515954,0
1525,0.053590224502982384,0
1526,0.024708848038206416,0
1527,0.07798125872366166,0
1528,0.10607793383428078,0
1529,0.10218744724491038,0
1530,0.058700661959788104,0
1531,-0.0066434367623415674,0
1532,0.010104635496849666,0
1533,0.11885248415002252,0
1534,2.919047678434388,0
1535,6.744456298879834,0
1536,-2.1793103154707145,0
1537,0.5548388698974757,0
1538,-0.04646370149912016,0
1539,0.023189424398566957,0
1540,0.04792861232739942,0
1541,-0.040926996159344295,0
1542,-0.018312719486959582,0
1543,-0.019445117820164382,0
1544,0.014091969111632519,0
1545,0.07492347396310707,0
1546,-0.10685195515963333,0
1547,0.05439156080153981,0
1548,0.01716393933088377,0
1549,0.07538454039539055,0
1550,0.38146191593150447,0
1551,5.058279821952953,0
1552,4.43367355907898,0
1553,-2.9199776467669003,0
1554,1.6112994173031652,0
1555,-0.763905787167089,0
1556,0.34747407143447856,0
1557,-0.06927021887952269,0
1558,0.10486349255791087,0
1559,0.02789558785806649,0
1560,0.10865838363946538,0
1561,0.2660797912910672,0
1562,0.038008545767096294,0
1563,0.03458058363466813,0
1564,0.035926393613515774,0
1565,0.05675634411001679,0
1566,0.04664504330640871,0
1567,1.2229238674638283,0
1568,6.705928129634445,0
1569,0.814354599832692,0
1570,-1.4934529709108852,0
1571,1.0711303827026983,0
1572,-0.561065710902171,0
1573,0.2320044113886672,0
1574,-0.02750574042843084,0
1575,0.04049491481801565,0
1576,-0.005050727187981276,0
1577,0.03462115860070653,0
1578,0.022801948503784433,0
1579,0.015141164617357985,0
1580,-0.06151851384750769,0
1581,0.09886543293074672,0
1582,-0.00902503956417421,0
1583,0.06147301689032801,0
1584,2.9056097374998235,0
1585,6.7441770350041566,0
1586,-2.335231929909067,0
1587,0.6247687594406047,0
1588,-0.015613485273575381,0
1589,0.022435683042712717,0
1590,0.030345315980808092,0
1591,-0.006581416500871101,0
1592,-0.06744377477528915,0
1593,0.00046008979466848066,0
1594,0.019735856653867408,0
1595,0.01409996911029314,0
1596,0.07114087853192137,0
1597,0.0572490562519292,0
1598,0.040957849398494256,0
1599,-0.024407551807731936,0
1600,0.47708049932538255,0
1601,5.160541560291231,0
1602,4.416329535958128,0
1603,-2.8745215798982366,0
1604,1.5559558625946894,0
1605,-0.7338093580011061,0
1606,0.3716651870077499,0
1607,-0.08731129482254704,0
1608,0.014569825021605608,0
1609,-0.054278676488213225,0
1610,-0.12353904261496422,0
1611,-0.1380618475254065,0
1612,-0.013748915716118498,0
1613,0.010303683499918066,0
1614,-0.13946394603253814,0
1615,-0.13190042422058335,0
1616,-0.014061545760636928,0
1617,1.2835602236619321,0
1618,6.753409746402373,0
1619,0.8563721732864056,0
1620,-1.5254607277348295,0
1621,1.141463824260525,0
1622,-0.42187084258275526,0
1623,0.27436923716673767,0
1624,-0.046488087769869006,0
1625,0.04325482791775286,0
1626,0.03738339525663728,0
1627,0.03799867627716307,0
1628,0.12520761922008228,0
1629,0.08416834230083556,0
1630,0.00781760846329646,0
1631,-0.032259588292543426,0
1632,0.10278912910275095,0
1633,0.11661600040297465,0
1634,2.9454337836891433,0
1635,6.710534241721905,0
1636,-2.3266154040561755,0
1637,0.6515900422033177,0
1638,-0.08351097776584356,0
1639,0.04494028779515462,0
1640,0.002099048125615178,0
1641,0.018121282029095732,0
1642,0.027722285367383956,0
1643,-0.004637644071058784,0
1644,-0.011858950158252071,0
1645,0.10065895822427738,0
1646,0.0807651309961046,0
1647,0.015061503064380415,0
1648,0.10173612850522568,0
1649,-0.010338502549378147,0
1650,0.4368935876527013,0
1651,5.118115608838174,0
1652,4.337076114322078,0
1653,-2.926793514746777,0
1654,1.5388205714590912,0
1655,-0.8311699449297355,0
1656,0.3151997069396229,0
1657,-0.07995005893896673,0
1658,0.08601289729131846,0
1659,-0.01940623291936631,0
1660,-0.016121466957909624,0
1661,-0.004442689975952492,0
1662,-0.028770988627275375,0
1663,-0.1475440531370861,0
1664,-0.09933737707426282,0
1665,0.01671253597828703,0
1666,0.020723084652825595,0
1667,1.1981386194005712,0
1668,6.763866633052334,0
1669,0.7245762481113923,0
1670,-1.4529164612656855,0
1671,1.1159604168623145,0
1672,-0.5818181986222586,0
1673,0.20703188826753777,0
1674,-0.07139646525131613,0
1675,0.1148397964562057,0
1676,0.006456469574581325,0
1677,0.040005607619647415,0
1678,-0.05010148419514357,0
1679,-0.05705280765643477,0
1680,0.07244191877638817,0
1681,0.02618678851092322,0
1682,-0.009075697263389295,0
1683,0.0492409342328202,0
1684,2.896257667026423,0
1685,6.678819152098078,0
1686,-2.38502932322873,0
1687,0.566742046862243,0
1688,-0.08667364838960408,0
1689,-0.10365505157064603,0
1690,-0.11738392889058452,0
1691,-0.048659862502323875,0
1692,-0.049607219757279955,0
1693,-0.037943620111066376,0
1694,0.01218241418237203,0
1695,-0.051123092233666,0
1696,-0.027939743077386246,0
1697,-0.013625438100765906,0
1698,-0.08499935870492181,0
1699,-0.0031460857129626714,0
1700,0.30174490915923124,0
1701,5.076585189942133,0
1702,4.218374628565355,0
1703,-3.0481987537056514,0
1704,1.635937242232755,0
1705,-0.8448843953526384,0
1706,0.3217374296491671,0
1707,-0.1905110679797343,0
1708,0.05853354826847778,0
1709,-0.09383951667330412,0
1710,-0.03309449177498294,0
1711,-0.0016813989267117496,0
1712,-0.11991276655753022,0
1713,-0.07882307619526624,0
1714,-0.08002927165179051,0
1715,-0.056656700422414816,0
1716,-0.041178629158254515,0
1717,1.2395772969819154,0
1718,6.65047775278588,0
1719,0.6638672347768004,0
1720,-1.530905476953923,0
1721,1.1089876486064114,0
1722,-0.4969682178610042,0
1723,0.2600492151077307,0
1724,-0.19741126291728173,0
1725,0.01726978966600369,0
1726,0.0014589192323019064,0
1727,0.023801940113856185,0
1728,-0.08143938713201224,0
1729,0.019287248997591815,0
1730,-0.01573562338589125,0
1731,-0.05275930663750507,0
1732,-0.08686234184361055,0
1733,0.06821336193226946,0
1734,2.935806826283997,0
1735,6.65304203355656,0
1736,-2.3690228470075936,0
1737,0.5388043361791879,0
1738,-0.13293603730794565,0
1739,0.0040952319149082095,0
1740,-0.12881732541399651,0
1741,-0.06791870145322135,0
1742,-0.05212903865429023,0
1743,-0.140209153045719,0
1744,0.018828058856289777,0
1745,-0.08285141680601388,0
1746,0.02054444533173303,0
1747,-0.06063432670830225,0
1748,-0.0970309754674798,0
1749,-0.05182962989878298,0
1750,0.3047265490044116,0
1751,5.059390377813181,0
1752,4.221342561896866,0
1753,-2.953816885142637,0
1754,1.5542676296726081,0
1755,-0.8274531217340334,0
1756,0.35759184214973944,0
1757,-0.12427118736412059,0
1758,0.01667046893051431,0
1759,0.007198310185654442,0
1760,0.03512715165266478,0
1761,-0.018413768800782663,0
1762,0.06997770702681748,0
1763,-0.12490090629349886,0
1764,-0.05449995955075112,0
1765,0.009121557197365862,0
1766,-0.021834590389924566,0
1767,1.1950061746967944,0
1768,6.606480300484372,0
1769,0.6426737537029418,0
1770,-1.6032991038085356,0
1771,0.9239710824671515,0
1772,-0.6146306918704374,0
1773,0.1397759884004806,0
1774,-0.17732091248681822,0
1775,-0.08554697847906916,0
1776,-0.028096800427582724,0
1777,-0.09203455519028181,0
1778,-0.03784833053819275,0
1779,0.036583916024090384,0
1780,-0.08508665237695925,0
1781,-0.03135961489794432,0
1782,-0.0012670661700395873,0
1783,0.10245082485451712,0
1784,2.891258813672173,0
1785,6.71129496738093,0
1786,-2.316751086503914,0
1787,0.6341647884945871,0
1788,-0.10660597624946859,0
1789,-0.012444094938111711,0
1790,-0.08495598958802246,0
1791,-0.05376660269150015,0
1792,0.020272411424390624,0
1793,-0.034677721945639416,0
1794,0.008204927111807245,0
1795,0.007151464096429323,0
1796,-0.04913408547075784,0
1797,0.02159378242110763,0
1798,0.01125373553860055,0
1799,-0.09233910777151158,0
1800,0.4067137852467738,0
1801,5.123496640908177,0
1802,4.246291653510325,0
1803,-3.050749355907811,0
1804,1.540064073142861,0
1805,-0.7643015444033122,0
1806,0.22512696912579455,0
1807,-0.12934298367972777,0
1808,-0.021079515798430246,0
1809,-0.046021931322408685,0
1810,-0.10980653938488008,0
1811,-0.10603503075256585,0
1812,-0.024806508009117073,0
1813,-0.010685166500049914,0
1814,-0.12134864091574882,0
1815,-0.02450606329898239,0
1816,-0.1045764786612124,0
1817,1.220407321300442,0
1818,6.745810403455865,0
1819,0.609433159699957,0
1820,-1.5190283401882743,0
1821,0.9654209151216495,0
1822,-0.5840448515971361,0
1823,0.18794464307831546,0
1824,-0.149334995073696,0
1825,-0.08533998198478199,0
1826,-0.029884839660988156,0
1827,0.024566656360838025,0
1828,-0.04715329352395905,0
1829,-0.0055969456838113885,0
1830,-0.073767915588609,0
1831,-0.07285241946705713,0
1832,-0.07485191662280953,0
1833,-0.002314942854602475,0
1834,2.8787994451432812,0
1835,6.546401557477776,0
1836,-2.3794636257827904,0
1837,0.6316297743752167,0
1838,-0.10020579897395301,0
1839,0.10535372115677935,0
1840,-0.054928975904119964,0
1841,-0.060791069401245276,0
1842,-0.05593147743272657,0
1843,0.001221100662735005,0
1844,-0.007847878557385387,0
1845,-0.020100240345493858,0
1846,-0.044941876486042906,0
1847,0.039285619428587715,0
1848,-0.06822699250044728,0
1849,0.003703722879228717,0
1850,0.29055520522206507,0
1851,4.972099372228437,0
1852,4.2541645578550655,0
1853,-2.902740972720763,0
1854,1.5565788921883872,0
1855,-0.725480212426211,0
1856,0.31446617853149167,0
1857,-0.10907656885468762,0
1858,0.06521794116238139,0
1859,-0.025638238264990655,0
1860,0.00745487176746128,0
1861,0.07547895448217826,0
1862,-0.007753043186017307,0
1863,-0.036645529140798896,0
1864,-0.012728753194854418,0
1865,0.003142721808578771,0
1866,-0.08447180004198526,0
1867,1.2418627771019968,0
1868,6.650235975593527,0
1869,0.5580758606826158,0
1870,-1.5156307976328889,0
1871,1.0810355448805835,0
1872,-0.5818008962386884,0
1873,0.15694145501631176,0
1874,-0.2257724273846213,0
1875,-0.08047927063816354,0
1876,0.001603970483015582,0
1877,-0.15959853292113407,0
1878,-0.0001021677425160003,0
1879,-0.02746665156792712,0
1880,-0.11065459323574049,0
1881,0.0056799656446996985,0
1882,-0.03714391049727374,0
1883,-0.030356480915665812,0
1884,3.007611784796408,0
1885,6.59086324965143,0
1886,-2.28341152459833,0
1887,0.7414228408236293,0
1888,-0.16682134192961118,0
1889,0.026617536389420018,0
1890,-0.011237943008845034,0
1891,-0.021131115419107813,0
1892,0.04552488118239468,0
1893,0.027217334017498478,0
1894,0.05103700844184496,0
1895,-0.08015776319601225,0
1896,-0.07184125967994329,0
1897,-0.06638257832032862,0
1898,0.006136055055309619,0
1899,-0.023051304116498188,0
1900,0.309760574521849,0
1901,5.090555610416399,0
1902,4.163934414210144,0
1903,-2.950115463256424,0
1904,1.5391047432837437,0
1905,-0.8469325362582742,0
1906,0.2265435495011927,0
1907,-0.18554166529956867,0
1908,0.013612690037446744,0
1909,-0.04072654625498436,0
1910,-0.0022633215327241274,0
1911,0.0059537961212380724,0
1912,-0.012997997910494228,0
1913,-0.0827501393728382,0
1914,0.017713910276871286,0
1915,-0.07237191018028488,0
1916,0.010009815768881917,0
1917,1.3250922567727017,0
1918,6.74617940214886,0
1919,0.5991846768913078,0
1920,-1.4278107611273652,0
1921,1.0585944857520158,0
1922,-0.5125675548041511,0
1923,0.20565860273247877,0
1924,-0.020896935326189997,0
1925,0.018479097521630697,0
1926,-0.05399449821169094,0
1927,-0.045341779028429556,0
1928,0.028067349328259498,0
1929,-0.029143076875527835,0
1930,0.11716897102836221,0
1931,-0.03850514260061831,0
1932,-0.042850111315807335,0
1933,-0.02354736744959679,0
1934,2.964813374446967,0
1935,6.516567382294295,0
1936,-2.4634587702126116,0
1937,0.6764727694328007,0
1938,-0.26298449495944354,0
1939,-0.01803580142400514,0
1940,-0.10775482686158705,0
1941,-0.08919322322088541,0
1942,-0.09292402640757698,0
1943,-0.08439491661338194,0
1944,-0.04121972599379298,0
1945,-0.06437516418591982,0
1946,0.030410200527747754,0
1947,-0.07655585119223174,0
1948,-0.04403609853000071,0
1949,-0.026015045829391237,0
1950,0.31478356139409264,0
1951,5.122092494920447,0
1952,4.100527043949403,0
1953,-3.0483279169194684,0
1954,1.5124635543272766,0
1955,-0.8750469732401315,0
1956,0.29262784351632304,0
1957,-0.141753974713152,0
1958,0.06303882020938448,0
1959,0.059636305775409314,0
1960,0.03869913115398108,0
1961,-0.033266238901184235,0
1962,-0.08095097544965402,0
1963,0.036484781963677076,0
1964,-0.010825323545397898,0
1965,-0.006752470393832635,0
1966,-0.026913817433776945,0
1967,1.2171510190550854,0
1968,6.687077218059626,0
1969,0.49967622764826136,0
1970,-1.5567654616540103,0
1971,1.002183789159481,0
1972,-0.6636301641555554,0
1973,0.04683583926503691,0
1974,-0.13995585845493255,0
1975,0.013795376613114516,0
1976,-0.10462890847205988,0
1977,-0.10818613861260025,0
1978,-0.06798763617723763,0
1979,-0.05739118954537796,0
1980,-0.11207500582149363,0
1981,-0.07877971189562805,0
1982,-0.025400836091169686,0
1983,-0.012907536267720045,0
1984,2.9630898763980453,0
1985,6.492560540456535,0
1986,-2.323502360035629,0
1987,0.688132130132172,0
1988,-0.14466473114485195,0
1989,-0.030387756473835324,0
1990,-0.06801609581028172,0
1991,0.0054640798261826155,0
1992,0.07592471504440049,0
1993,-0.016028202902443757,0
1994,-0.019118934553395063,0
1995,-0.017435968387155044,0
1996,-0.09757182691472202,0
1997,-0.02298336019188236,0
1998,0.06786769493274955,0
1999,-0.03438710845905222,0
2000,0.415260047535233,0
2001,5.090744710970574,0
2002,4.243281617235295,0
2003,-2.8535219207225295,0
2004,1.551809736640903,0
2005,-0.7084092418496726,0
2006,0.31485799279628884,0
2007,-0.17254131093808145,0
2008,-0.07273209265316556,0
2009,-0.0023108944680583915,0
2010,-0.029449188190622796,0
2011,-0.01607599352340451,0
2012,-0.04449549028627725,0
2013,-0.036147647757479105,0
2014,-0.0464291492605685,0
2015,-0.05575346793051573,0
2016,-0.07268022770588256,0
2017,1.1605861800301673,0
2018,6.654316990878636,0
2019,0.4283618554974109,0
2020,-1.4821927582866352,0
2021,0.8585921248564724,0
2022,-0.6331206575711765,0
2023,0.2173316716259053,0
2024,-0.18138953526263307,0
2025,-0.041234014503459517,0
2026,-0.1515309356666033,0
2027,-0.014990764946448087,0
2028,-0.024789484629522164,0
2029,-0.06250893956729581,0
2030,0.009222887758470313,0
2031,-0.025310507526698507,0
2032,0.010999945367216137,0
2033,0.10147418622823569,0
2034,2.9308567937143684,0
2035,6.566412659911465,0
2036,-2.3767576683915626,0
2037,0.6494683470880435,0
2038,-0.19928829237167484,0
2039,-0.0698872186580088,0
2040,0.018435617643511495,0
2041,-0.01792265917469308,0
2042,-0.07057128254327745,0
2043,0.06640613651481332,0
2044,-0.1367493960401308,0
2045,-0.13879788008621446,0
2046,-0.036159817472298225,0
2047,-0.05248531746248919,0
2048,-0.03425079323250872,0
2049,-0.14486833368092233,0
2050,0.40121499474795236,0
2051,5.130002865388809,0
2052,4.152477195698758,0
2053,-2.838384324995544,0
2054,1.4877042100316156,0
2055,-0.8438633799801784,0
2056,0.288551199246198,0
2057,-0.16083866686975742,0
2058,-0.015692659680151343,0
2059,-0.00351813331157777,0
2060,-0.0311461624978544,0
2061,-0.03902941205338707,0
2062,-0.03946545810827482,0
2063,0.005816796024916866,0
2064,-0.03794400346475111,0
2065,-0.07318326385446688,0
2066,-0.046088925483880556,0
2067,1.242343343659754,0
2068,6.69794608604847,0
2069,0.4724493905994704,0
2070,-1.4017469286430848,0
2071,0.9424832122680914,0
2072,-0.5227602394505041,0
2073,0.16956358940943916,0
2074,-0.11368923644724706,0
2075,0.043185440981466615,0
2076,-0.0549575936582221,0
2077,-0.10543373643102555,0
2078,-0.0043667728602899,0
2079,-0.04590546181512249,0
2080,-0.08989475206666164,0
2081,-0.016298870619922676,0
2082,-0.0537921840080226,0
2083,-0.03607149137770778,0
2084,3.000742960309097,0
2085,6.591988292435089,0
2086,-2.443432672756739,0
2087,0.6505367647180758,0
2088,-0.2452572776252964,0
2089,-0.050009726301176116,0
2090,-0.05048328049597521,0
2091,-0.05864479172699697,0
2092,-0.04858831990736584,0
2093,-0.10857747987896044,0
2094,0.010314285890152528,0
2095,-0.010139290119662907,0
2096,-0.08519511260335721,0
2097,-0.15591230505515719,0
2098,-0.10653957357804933,0
2099,-0.05040600100088055,0
2100,0.3507370446136956,0
2101,5.156199781823186,0
2102,4.140083965461101,0
2103,-3.132485406116216,0
2104,1.6402526801277881,0
2105,-0.9145894147393077,0
2106,0.1818370115237749,0
2107,-0.1591812065401728,0
2108,-0.038021579195924735,0
2109,-0.025174358844970615,0
2110,0.009379462021708668,0
2111,-0.08222453393943563,0
2112,-0.07570134626710831,0
2113,-0.12716753442217066,0
2114,-0.0009394055721453215,0
2115,-0.05047906795140388,0
2116,-0.071452350860182,0
2117,1.2409191618273387,0
2118,6.685873646925374,0
2119,0.40032230829241744,0
2120,-1.4517116763057114,0
2121,0.8340615887226129,0
2122,-0.6118352436768096,0
2123,0.12745085540643583,0
2124,-0.1000798844026839,0
2125,-0.07728531484975311,0
2126,-0.13593622678140768,0
2127,-0.07318202323954266,0
2128,-0.09173384838579297,0
2129,-0.022778304552889345,0
2130,-0.06284927842950577,0
2131,-0.26082962300492474,0
2132,0.00021202336877795824,0
2133,0.047477628874359065,0
2134,3.010086346644892,0
2135,6.466835179923354,0
2136,-2.4675255451106923,0
2137,0.778998210389328,0
2138,-0.2064576480586132,0
2139,0.003871622848262434,0
2140,-0.09703636371211716,0
2141,0.0066575075288236515,0
2142,-0.05184380478617925,0
2143,-0.12997539829682214,0
2144,0.008248412659861176,0
2145,-0.10296647453726943,0
2146,-0.15036721068877576,0
2147,-0.052228412175660474,0
2148,-0.12599574028087154,0
2149,-0.07131415525015662,0
2150,0.3252747985013743,0
2151,5.066015592550928,0
2152,4.074485250158052,0
2153,-2.9894462942431623,0
2154,1.4093380116725183,0
2155,-0.8027026349396692,0
2156,0.2333289170266822,0
2157,-0.23126580234556102,0
2158,-0.12986241366767567,0
2159,-0.18323885767557196,0
2160,-0.12559226203662766,0
2161,-0.12480222012746642,0
2162,-0.09139921239707705,0
2163,-0.10019788351362918,0
2164,0.0281378340176216,0
2165,-0.10375754531872358,0
2166,-0.025930758393640285,0
2167,1.2992133880593297,0
2168,6.772026348936925,0
2169,0.4377682958265,0
2170,-1.4214284873047138,0
2171,0.9221617497420166,0
2172,-0.6007354684412803,0
2173,0.1730943545204372,0
2174,-0.0761690180120192,0
2175,-0.05271943881794561,0
2176,-0.07682593441275465,0
2177,-0.06551941442300425,0
2178,-0.0328413319949834,0
2179,-0.08374826635147649,0
2180,-0.04111401851562342,0
2181,-0.01620882949291722,0
2182,-0.08377252101655888,0
2183,0.07908046164518384,0
2184,2.9590547158901126,0
2185,6.670729031052251,0
2186,-2.5511035286557435,0
2187,0.7200959220421059,0
2188,-0.12963605083929733,0
2189,-0.05629524833597313,0
2190,-0.020384757606233744,0
2191,0.01951903020567887,0
2192,-0.048082609907327475,0
2193,-0.057621480698609444,0
2194,-0.03798337438499097,0
2195,-0.030098128296255282,0
2196,0.04418129191934898,0
2197,-0.07131431461305832,0
2198,0.04901251130713372,0
2199,-0.011676752345265013,0
2200,0.3584895819070594,0
2201,5.1428714200367835,0
2202,4.063348243055368,0
2203,-2.8461649834395457,0
2204,1.5353750317427537,0
2205,-0.8102092728657756,0
2206,0.35436369923001687,0
2207,-0.19895827359331852,0
2208,0.022189821989928096,0
2209,-0.010485404210193732,0
2210,-0.020732312691660447,0
2211,0.019657810929513075,0
2212,0.01771197389243431,0
2213,-0.028664006580060207,0
2214,-0.033628940103935606,0
2215,0.020384244109434988,0
2216,0.04123251119726132,0
2217,1.3568454544135236,0
2218,6.7922780703016095,0
2219,0.5109466597291568,0
2220,-1.3095361237775163,0
2221,1.0302219691649692,0
2222,-0.5463771856534232,0
2223,0.21213532755761894,0
2224,-0.0073737505110806345,0
2225,0.010897531275320735,0
2226,-0.0956999928027491,0
2227,0.008012958754021311,0
2228,-0.022491462239726787,0
2229,0.02022698488429764,0
2230,0.09045708597459919,0
2231,-0.038584299224493385,0
2232,-0.01899343904115257,0
2233,0.06661875149547435,0
2234,3.0574037885111545,0
2235,6.549360924878726,0
2236,-2.3930953747620145,0
2237,0.7017567663605884,0
2238,-0.17640322659370547,0
2239,0.10113731038542431,0
2240,-0.04999189168949916,0
2241,0.020057077083523667,0
2242,-0.03718495416648846,0
2243,0.06289434017619504,0
2244,0.12488173746547122,0
2245,-0.010268491359643285,0
2246,0.079010945798586,0
2247,0.07599181139648686,0
2248,0.023772893803153575,0
2249,0.06262637191751046,0
2250,0.42755043749155147,0
2251,5.257645769077756,0
2252,4.052997060656234,0
2253,-2.839738739471888,0
2254,1.6144976100033421,0
2255,-0.9056071869161637,0
2256,0.2686568363065439,0
2257,-0.22660575388687054,0
2258,0.09160555444137333,0
2259,-0.06021121744699029,0
2260,-0.04960289889598667,0
2261,0.040446352387407306,0
2262,0.006103303312552648,0
2263,-0.0761808936124912,0
2264,-0.06487035156948971,0
2265,-0.06462692006457735,0
2266,-0.11137166297925903,0
2267,1.359245368267732,0
2268,6.745866830006834,0
2269,0.442989255838075,0
2270,-1.412315500020237,0
2271,0.9905394136091386,0
2272,-0.5199277444685766,0
2273,0.2173164194120981,0
2274,-0.059970728168368785,0
2275,0.00931430622857906,0
2276,0.012530998531521998,0
2277,-0.002281522841120938,0
2278,0.00834851875667953,0
2279,-0.035637993833044924,0
2280,-0.002355321220841415,0
2281,0.06205396492622671,0
2282,0.012982130094155504,0
2283,-0.030935888139298692,0
2284,3.079270950407674,0
2285,6.495909609806412,0
2286,-2.577884259761376,0
2287,0.7451701549157891,0
2288,-0.10757035873504582,0
2289,0.04756984533292461,0
2290,0.12112968777980772,0
2291,0.15877056191479685,0
2292,0.02362563811735719,0
2293,-0.008323435500978207,0
2294,0.10533380444281396,0
2295,0.09205361498743656,0
2296,0.026738108895165147,0
2297,0.05062900768471544,0
2298,0.010611875365160901,0
2299,0.03580834637215372,0
2300,0.4905361564681592,0
2301,5.190323609617434,0
2302,4.16236216350386,0
2303,-2.8678247212545718,0
2304,1.5637058565021724,0
2305,-0.802105412074716,0
2306,0.22067786414672674,0
2307,-0.13031137816786642,0
2308,0.11477034553638453,0
2309,0.03178416046669767,0
2310,0.05603420243365188,0
2311,0.09814321182499164,0
2312,0.035258325836093216,0
2313,0.02120197211507718,0
2314,0.0747357413787799,0
2315,0.04801285209793663,0
2316,-0.049995479623620435,0
2317,1.2937844477037856,0
2318,6.922147920558724,0
2319,0.433835650774358,0
2320,-1.3239762308874496,0
2321,0.98425580267191,0
2322,-0.6129036733021104,0
2323,0.18447458560322721,0
2324,-0.05121003498459606,0
2325,0.05919207146646967,0
2326,0.04910839699961736,0
2327,0.00392651418417314,0
2328,-0.011056066683129567,0
2329,0.052076833607678466,0
2330,0.04174705329578812,0
2331,-0.13309888999047467,0
2332,0.04161195264854922,0
2333,0.09106505263706664,0
2334,3.068992557581309,0
2335,6.558965643410244,0
2336,-2.4646263916896936,0
2337,0.8290994102899356,0
2338,-0.23860226022858388,0
2339,0.029104249590556748,0
2340,-0.034488781389030054,0
2341,0.05756794717469809,0
2342,-0.004464291435803791,0
2343,0.10062844291858423,0
2344,0.08719421233102193,0
2345,0.0261017832502511,0
2346,0.004760889498161822,0
2347,0.08774089850407052,0
2348,0.01611897844523811,0
2349,0.07659811536371325,0
2350,0.37037242485205507,0
2351,5.249161499735658,0
2352,4.00917980426989,0
2353,-2.934127215363235,0
2354,1.6058594117973286,0
2355,-0.7411242001156417,0
2356,0.3530697842347541,0
2357,-0.06502055246545055,0
2358,0.10531037567328394,0
2359,-0.02654741145299598,0
2360,0.0762167092728717,0
2361,-0.0545996334456268,0
2362,-0.10895829496734635,0
2363,-0.06847568734682839,0
2364,-0.1262237791887969,0
2365,-0.04458113350687225,0
2366,-0.04490773271368355,0
2367,1.3092720538856784,0
2368,6.801087264074745,0
2369,0.3896924102780501,0
2370,-1.4030936341491445,0
2371,0.9256967842403596,0
2372,-0.49067715258085437,0
2373,0.229543718699571,0
2374,0.016902875232459882,0
2375,0.010380496921239598,0
2376,0.06605657993351696,0
2377,0.012272271587682317,0
2378,0.08494624001144116,0
2379,0.10213009457398356,0
2380,0.10801578338801318,0
2381,-0.0039666188959040505,0
2382,0.0689594019281754,0
2383,0.11583736139916795,0
2384,3.206664458174525,0
2385,6.575909757722972,0
2386,-2.43129974324138,0
2387,0.8019672567730914,0
2388,-0.16574198683604494,0
2389,0.1672682367512595,0
2390,-0.013627226104228342,0
2391,0.11087079063436026,0
2392,0.05641709840176201,0
2393,-0.023395708315112045,0
2394,-0.06012840729559848,0
2395,0.01101319943813274,0
2396,-0.09008629731840335,0
2397,-0.0689704212633844,0
2398,3.538766126617854e-06,0
2399,0.025980553018297062,0
2400,0.442275031510379,0
2401,5.275765401300276,0
2402,3.9795874532356956,0
2403,-2.8714613242995553,0
2404,1.5537425738077608,0
2405,-0.8195900875868011,0
2406,0.3819169475121396,0
2407,-0.13629400625742114,0
2408,0.1311995711582789,0
2409,0.01106274784923996,0
2410,0.0055972755821185535,0
2411,0.0427809585189093,0
2412,0.04674027035814582,0
2413,0.04127482515845786,0
2414,0.07436402469530756,0
2415,0.001431221601529739,0
2416,0.030987817053280006,0
2417,1.4477675063292803,0
2418,6.796015780667419,0
2419,0.30648206615191675,0
2420,-1.3599054060725315,0
2421,0.9254242896898114,0
2422,-0.5008223193675589,0
2423,0.23304713735155705,0
2424,-0.02543302577104392,0
2425,0.15001957383201253,0
2426,0.06749454654379158,0
2427,0.046191800016888954,0
2428,0.0879154858787086,0
2429,0.05069458263145675,0
2430,0.10969571355762556,0
2431,-0.0012424730406222217,0
2432,0.04617518823118541,0
2433,0.13670405463967963,0
2434,3.1573313295409724,0
2435,6.572754700858661,0
2436,-2.456579298952508,0
2437,0.8523512437671628,0
2438,-0.14587655727640145,0
2439,0.016559854678989003,0
2440,-0.0700674874263908,0
2441,-0.022983066829129803,0
2442,0.020052660984347534,0
2443,0.0002409953867830465,0
2444,0.1188296742634239,0
2445,-0.028737581636451657,0
2446,-0.023009843007636158,0
2447,-0.05856079321194463,0
2448,0.016172825292025503,0
2449,0.05294774724989463,0
2450,0.39731927825541996,0
2451,5.3062202875119295,0
2452,4.043828384573686,0
2453,-2.7950734992585935,0
2454,1.6141444149704867,0
2455,-0.6340215821042208,0
2456,0.28110479985870546,0
2457,-0.0989855164078351,0
2458,0.051986200695046815,0
2459,0.041993420271073806,0
2460,-0.053124363205113004,0
2461,0.03314047382661084,0
2462,0.012790722459907186,0
2463,-0.015497268759576265,0
2464,-0.007957551984206857,0
2465,0.018476572426350993,0
2466,0.06864549981361441,0
2467,1.302926835294474,0
2468,6.759547155985649,0
2469,0.2451198530029443,0
2470,-1.3051672631171418,0
2471,0.8557568560648381,0
2472,-0.5164203338048522,0
2473,0.11958629521572277,0
2474,-0.0843439043969906,0
2475,-0.052121956206034686,0
2476,-0.0493447716427825,0
2477,0.0018594296561657182,0
2478,-0.04399491124244763,0
2479,0.009434563117504416,0
2480,-0.062493278591925834,0
2481,0.0016541865871022706,0
2482,0.04440310165795807,0
2483,0.13326849289560438,0
2484,3.1527630213536724,0
2485,6.523669158310046,0
2486,-2.500342675404938,0
2487,0.8005532197627986,0
2488,-0.24122145791805782,0
2489,0.10167705664903604,0
2490,-0.025181000433930865,0
2491,-0.016051086529116576,0
2492,0.00996093151453422,0
2493,-0.09221397325886581,0
2494,-0.04128046897606391,0
2495,-0.051559138219406324,0
2496,-0.1104586079764151,0
2497,-0.07062057300646118,0
2498,-0.07553638250643573,0
2499,-0.05735413329518288,0
2500,0.40592804384511494,0
2501,5.296603914789733,0
2502,3.9065878584372276,0
2503,-2.8780836611737985,0
2504,1.5396392606536018,0
2505,-0.6950423573922675,0
2506,0.2632327124405428,0
2507,-0.131386794605222,0
2508,0.03563451752875157,0
2509,-0.10262091463374787,0
2510,-0.0013286700979731926,0
2511,-0.06984398742803663,0
2512,0.08949633524624909,0
2513,-0.06255049903783319,0
2514,-0.04728377303506738,0
2515,0.09361836138147697,0
2516,-0.03836756363282819,0
2517,1.412084259709709,0
2518,6.850146419002772,0
2519,0.33336265912525653,0
2520,-1.2847199399936065,0
2521,0.9619620097727799,0
2522,-0.39877631057995105,0
2523,0.0948511588991034,0
2524,-0.15511614703744664,0
2525,-0.012517343605296886,0
2526,0.03874193375130684,0
2527,-0.013036972848146394,0
2528,0.04326535078445109,0
2529,-0.013405196612891176,0
2530,0.009530959256739704,0
2531,-0.07544061434977035,0
2532,-0.05033471544051636,0
2533,0.010706066775615855,0
2534,3.144558836723758,0
2535,6.332597948774653,0
2536,-2.5442052482247046,0
2537,0.8200659862533684,0
2538,-0.3264015927216203,0
2539,0.024487241816733826,0
2540,-0.04460958454601012,0
2541,0.008565968161333015,0
2542,-0.016864656490541016,0
2543,-0.1157720152912351,0
2544,-0.04730736568456954,0
2545,-0.02071262823317989,0
2546,0.037942606536600004,0
2547,0.024640440709135004,0
2548,-0.039667174527137083,0
2549,0.05744682074371201,0
2550,0.4025531928778024,0
2551,5.212522586191081,0
2552,4.026683838510126,0
2553,-2.851162339759001,0
2554,1.5762618671602184,0
2555,-0.8777476199101886,0
2556,0.2830138926411568,0
2557,-0.05995265751904789,0
2558,0.021138841224816855,0
2559,-0.0724990169297674,0
2560,0.02247389066204114,0
2561,-0.026032555421258752,0
2562,0.04725563808943448,0
2563,-0.04164052266788804,0
2564,0.018145450142600977,0
2565,-0.10534555587032002,0
2566,-0.029528465906234647,0
2567,1.4065806247042365,0
2568,6.809780518272789,0
2569,0.2818974464401027,0
2570,-1.2590428025962723,0
2571,0.8322255630690122,0
2572,-0.5241001878429006,0
2573,0.1525510747404195,0
2574,-0.01679379374690458,0
2575,-0.10777842642225316,0
2576,0.0217304730215213,0
2577,-0.020533271603453175,0
2578,0.025679246244567855,0
2579,-0.0892826480727342,0
2580,-0.07884369731289154,0
2581,0.002843848362830654,0
2582,-0.05913630846223482,0
2583,-0.037978321621337144,0
2584,3.1698976791820495,0
2585,6.381561993349175,0
2586,-2.576348822814339,0
2587,0.8696387273160234,0
2588,-0.25788502827490595,0
2589,0.02033192059988053,0
2590,-0.009282078337182482,0
2591,-0.010752663170261814,0
2592,-0.024028823564632644,0
2593,-0.02404996352571772,0
2594,-0.09092337028193327,0
2595,-0.015474895842504274,0
2596,-0.0028028916726165936,0
2597,0.022596411552008307,0
2598,0.05618755872194254,0
2599,0.006760212634493688,0
2600,0.4127644477166649,0
2601,5.24420827805056,0
2602,3.99910082703556,0
2603,-2.894196859184965,0
2604,1.5279689460396295,0
2605,-0.7664945542566233,0
2606,0.2917773490480339,0
2607,-0.0230687816313261,0
2608,0.07891413196358495,0
2609,-0.04734844901673039,0
2610,0.06422977898266292,0
2611,-0.0395500538728934,0
2612,-0.015241770058150889,0
2613,0.10169847311650247,0
2614,-0.06978640225882568,0
2615,0.05335171787025975,0
2616,0.05154554522153001,0
2617,1.3862335900566936,0
2618,6.862419115468571,0
2619,0.23791396531164016,0
2620,-1.3263221163085164,0
2621,0.9764769570985833,0
2622,-0.4013072187581901,0
2623,0.2288375305971946,0
2624,0.0018389091889393638,0
2625,0.01970474968769622,0
2626,-0.001786557684203793,0
2627,-0.0031605424479545135,0
2628,0.02941062863152698,0
2629,-0.09961237548760479,0
2630,-8.208818652982166e-05,0
2631,-0.12641241718955912,0
2632,0.03192088493149868,0
2633,0.012255856302937837,0
2634,3.2781434446393285,0
2635,6.433186891639021,0
2636,-2.541509120909053,0
2637,0.772253912631255,0
2638,-0.17813079922099984,0
2639,0.07078409723990622,0
2640,-0.050683763974172805,0
2641,0.013536566180391759,0
2642,-0.036898477226360464,0
2643,0.02934181393983474,0
2644,0.02737123405236592,0
2645,-0.0073501039150149355,0
2646,0.0352998866946654,0
2647,-0.006885692572819301,0
2648,0.13554601489584597,0
2649,0.0984135093957509,0
2650,0.48433478998703017,0
2651,5.304145104119595,0
2652,3.8700502548099176,0
2653,-2.8485600972910214,0
2654,1.6121544231257978,0
2655,-0.768552185619823,0
2656,0.3823610963597563,0
2657,-0.11227893500325192,0
2658,-0.029926342583153853,0
2659,0.032859602518767836,0
2660,0.06257069490309784,0
2661,-0.05768042104517831,0
2662,0.0008590063859634442,0
2663,0.06403806585175806,0
2664,-0.010987980158552357,0
2665,-0.0736019163967666,0
2666,-0.03133714251046926,0
2667,1.4812228614036598,0
2668,6.860683796198655,0
2669,0.33916479611957995,0
2670,-1.2606701218620604,0
2671,0.859957040368951,0
2672,-0.49465090135559064,0
2673,0.18641999001768902,0
2674,-0.08840759143795004,0
2675,0.012968013490110857,0
2676,-0.004946624971148072,0
2677,-0.017155299304201205,0
2678,-0.022704346688223364,0
2679,0.05727960376899327,0
2680,0.046499294423633916,0
2681,0.056106469741829576,0
2682,0.12740383158916424,0
2683,0.19357756792433084,0
2684,3.1862963885409408,0
2685,6.5659733250181525,0
2686,-2.4663952763342003,0
2687,0.9357041054443034,0
2688,-0.23745828831242322,0
2689,0.0913541166413437,0
2690,0.03699247660059947,0
2691,0.10407109981150259,0
2692,0.0077326083565879555,0
2693,-0.00028514229937246643,0
2694,0.022419687848543375,0
2695,-0.019214695686250245,0
2696,0.032291779588443065,0
2697,0.039977265351196445,0
2698,0.05345951455112094,0
2699,0.01739380907594768,0
2700,0.4080113694849147,0
2701,5.324303916826316,0
2702,3.859152186960243,0
2703,-2.850774278184534,0
2704,1.5416117016302817,0
2705,-0.8787013077666279,0
2706,0.40890988342156853,0
2707,-0.08009631017507014,0
2708,0.06355531543132158,0
2709,0.07358890067962973,0
2710,0.051230529618741784,0
2711,0.04083571815598416,0
2712,0.042580909709656126,0
2713,0.06309253279102713,0
2714,0.05095951644790435,0
2715,0.06969516639031195,0
2716,-0.03209189172641816,0
2717,1.3601125986489082,0
2718,6.854852264288215,0
2719,0.21883604120754835,0
2720,-1.279363140577657,0
2721,0.9520745354569202,0
2722,-0.5076204967423387,0
2723,0.20521370706063605,0
2724,-0.06381223349066643,0
2725,0.07061650569923653,0
2726,0.022271334159329605,0
2727,-0.0025186135469610627,0
2728,-0.04112715812017698,0
2729,0.06258247310522276,0
2730,0.0007569905883595303,0
2731,0.07361387170453457,0
2732,0.08167025416342918,0
2733,0.03910897517622782,0
2734,3.227834318551667,0
2735,6.548881164015564,0
2736,-2.5768088781819887,0
2737,0.7700574943959113,0
2738,-0.1887204927414517,0
2739,0.0034914973746585087,0
2740,-0.0637741524892394,0
2741,-0.018993869356057364,0
2742,-0.002664237853195473,0
2743,0.05234727420320836,0
2744,0.00044135828606474913,0
2745,0.05113098184770939,0
2746,-0.059485812803657515,0
2747,0.06501823878268469,0
2748,0.026275526241733977,0
2749,0.07307431575760165,0
2750,0.46969754932298025,0
2751,5.306837274832607,0
2752,3.81312698634366,0
2753,-2.854890851197812,0
2754,1.6480730498272698,0
2755,-0.7283527704693133,0
2756,0.39344587110300944,0
2757,-0.09518604970598075,0
2758,0.05049107111824236,0
2759,0.05438482771082334,0
2760,-0.004497905625726861,0
2761,0.04684302521220223,0
2762,0.01140716492247594,0
2763,0.07956020756378512,0
2764,0.04260414368638318,0
2765,0.06763317083858396,0
2766,0.05826462169905096,0
2767,1.5278420849258607,0
2768,6.837437187126063,0
2769,0.2052175293298138,0
2770,-1.1862960922320565,0
2771,1.0875182705275472,0
2772,-0.5024604612302066,0
2773,0.23433145035690905,0
2774,-0.10463674582966376,0
2775,0.040807811220369083,0
2776,0.0025748165626205202,0
2777,-0.00962238242347295,0
2778,0.05946168590514758,0
2779,0.09893222271570833,0
2780,0.09525813255704654,0
2781,-0.054630633048523315,0
2782,0.08808172671468173,0
2783,0.026921888810743103,0
2784,3.1540174351306365,0
2785,6.506212637594716,0
2786,-2.6335126101045545,0
2787,0.8959226516105009,0
2788,-0.19604261331158973,0
2789,0.07251625243819601,0
2790,0.016364724569073938,0
2791,0.028419571880021227,0
2792,-0.059166128689449864,0
2793,-0.04400500360233678,0
2794,0.04878037630720601,0
2795,0.025167752721772574,0
2796,-0.07161638569405974,0
2797,0.03409866236663882,0
2798,0.05083712844165933,0
2799,0.04273502614382718,0
2800,0.44178542837989127,0
2801,5.406215499008215,0
2802,3.817438554180669,0
2803,-2.8737427138207154,0
2804,1.646675491136062,0
2805,-0.7737092072251048,0
2806,0.33710152994198367,0
2807,-0.0799445801488894,0
2808,0.03516644760169082,0
2809,0.014839386413269179,0
2810,0.04711698391305438,0
2811,0.04628819394391975,0
2812,0.08068813614833813,0
2813,0.029517170321077327,0
2814,0.0836953112046886,0
2815,0.13319523213731047,0
2816,0.05652046161239642,0
2817,1.5068728068934627,0
2818,6.913631489868657,0
2819,0.21845795768791493,0
2820,-1.1952759480417583,0
2821,0.9224948488666629,0
2822,-0.47016011647820466,0
2823,0.14850593159863654,0
2824,-0.00989784893738642,0
2825,-0.03394055498775136,0
2826,-0.006859112908085153,0
2827,0.03845279995397698,0
2828,0.026397664281588105,0
2829,0.06373878628571003,0
2830,-0.028899780273965253,0
2831,-0.0026316963234153806,0
2832,0.09894741099973836,0
2833,0.14972878336504072,0
2834,3.2807136597638435,0
2835,6.506115945617251,0
2836,-2.6067654939060567,0
2837,0.9000886945452059,0
2838,-0.16677576467786487,0
2839,0.0870744052117157,0
2840,-0.004127536904602241,0
2841,-0.018388467282364387,0
2842,-0.03963536032682346,0
2843,-0.0029030644581270262,0
2844,-0.015792962228951123,0
2845,0.11570276613639516,0
2846,0.10958009391582577,0
2847,0.06895536110394056,0
2848,0.038250758021054654,0
2849,0.04464503260438299,0
2850,0.5218867847122282,0
2851,5.467260574955152,0
2852,3.830176429052602,0
2853,-2.820319394995615,0
2854,1.5902729936020186,0
2855,-0.5907792137436623,0
2856,0.40617703599636873,0
2857,-0.028826659151714607,0
2858,0.17676427757191354,0
2859,0.06616771053301357,0
2860,0.047859045293751484,0
2861,0.05917976793308788,0
2862,-0.03713971190547774,0
2863,0.013062043007714453,0
2864,0.03836578207161119,0
2865,0.13288622972752487,0
2866,-0.010077346482792248,0
2867,1.486657865984452,0
2868,6.860736206017972,0
2869,0.13465210884314507,0
2870,-1.2132566242660858,0
2871,0.9025827799679949,0
2872,-0.41485324435326243,0
2873,0.23586329819228738,0
2874,0.035153411696890714,0
2875,0.0013573859536296085,0
2876,0.10385371779746294,0
2877,0.08964086208130716,0
2878,0.12458469745031803,0
2879,0.061560457123297656,0
2880,0.09261760013252718,0
2881,0.07372159938722209,0
2882,0.13322037213355326,0
2883,0.14595291085406867,0
2884,3.3156309915467035,0
2885,6.545304894847143,0
2886,-2.4624260170902494,0
2887,0.9328702684021905,0
2888,-0.07589444456490019,0
2889,0.08256091824532713,0
2890,0.009477448563872472,0
2891,0.12212720849182188,0
2892,0.01210727259229015,0
2893,0.06457091500681038,0
2894,0.07028137199073481,0
2895,0.09023885793878011,0
2896,0.06927089027330183,0
2897,0.13388687579113745,0
2898,0.06993786620986442,0
2899,0.11079041333049346,0
2900,0.5572390724095937,0
2901,5.5255153307585605,0
2902,3.8851468673551914,0
2903,-2.7073902397274496,0
2904,1.75508553882646,0
2905,-0.7320770694897452,0
2906,0.3542675727018195,0
2907,0.10970101066109206,0
2908,0.07089457664310747,0
2909,0.16037129217477353,0
2910,0.015132359715586866,0
2911,0.030621670818267777,0
2912,0.09391636257172406,0
2913,0.06507258203687209,0
2914,0.17559766641889812,0
2915,0.13118494533330308,0
2916,0.016877113116949824,0
2917,1.6365838504126844,0
2918,6.928811326979573,0
2919,0.22710937736265707,0
2920,-1.0400322606990968,0
2921,1.0486386298192687,0
2922,-0.2285546011104606,0
2923,0.2692263836357339,0
2924,0.028581559666745138,0
2925,0.17976427713441678,0
2926,0.025780095739711836,0
2927,0.04680806809776094,0
2928,0.13258334255568618,0
2929,0.08154334745828973,0
2930,0.11171734513064958,0
2931,0.11384189553469871,0
2932,0.06461284454786563,0
2933,0.04824543726466962,0
2934,3.2941707970617404,0
2935,6.479809676159805,0
2936,-2.552760644262695,0
2937,0.8950961223501132,0
2938,-0.214091026294911,0
2939,0.19187933264966767,0
2940,-0.042880768492357224,0
2941,0.09938916144903612,0
2942,0.042936249152276604,0
2943,0.09728555249709432,0
2944,0.08111816523199962,0
2945,0.12863358160226118,0
2946,0.04010358677714191,0
2947,0.11961377258909477,0
2948,0.08466318037675077,0
2949,0.14324993062220692,0
2950,0.5152364776993662,0
2951,5.586732916070969,0
2952,3.950863100531742,0
2953,-2.7865172702242527,0
2954,1.6635397133313272,0
2955,-0.677296433981823,0
2956,0.48252006208313425,0
2957,0.01703857647229813,0
2958,0.24668410700147061,0
2959,0.13057732140916573,0
2960,0.11531966503838897,0
2961,0.06870854684997724,0
2962,0.07509400085967924,0
2963,0.0746007935213897,0
2964,0.17358505885171704,0
2965,0.10942920460248765,0
2966,0.14332614629891854,0
2967,1.5980633136663802,0
2968,6.825703659913985,0
2969,0.2127442688684897,0
2970,-0.9517921831326436,0
2971,1.023660892393034,0
2972,-0.3576799394669789,0
2973,0.33257901913005977,0
2974,0.028007683605198543,0
2975,0.10836869135330629,0
2976,0.03754764396747795,0
2977,0.11214202170054438,0
2978,0.06262337572542837,0
2979,0.009383771041649183,0
2980,0.21841479934041458,0
2981,0.07568380705261966,0
2982,0.04667947600928664,0
2983,0.13958860311946336,0
2984,3.284864371972592,0
2985,6.504578912961051,0
2986,-2.504768872315153,0
2987,0.9762479708307037,0
2988,-0.20728478884560164,0
2989,0.16190010962089307,0
2990,0.07813345567161145,0
2991,0.13725350724500676,0
2992,0.03380622674317035,0
2993,0.06981764595148801,0
2994,0.13843911370374737,0
2995,0.03121018208652815,0
2996,0.01585837062800323,0
2997,-0.05659852362979566,0
2998,-0.06321428854848282,0
2999,0.12304045081372997,0
3000,0.440981947352919,0
3001,5.4750409704447875,0
3002,3.7916373786565427,0
3003,-2.681550462443795,0
3004,1.619772391183315,0
3005,-0.8053753451392736,0
3006,0.38151358816997516,0
3007,-0.08774057817461496,0
3008,0.06256252954280535,0
3009,0.055011592357602085,0
3010,0.016330850984304097,0
3011,0.09130568043782453,0
3012,0.054859219996476055,0
3013,0.05003930563739819,0
3014,0.11721562017863174,0
3015,0.07132071469721743,0
3016,0.14735781701819853,0
3017,1.5376938173648265,0
3018,6.941153236865111,0
3019,0.13751268794081095,0
3020,-1.103137583076046,0
3021,0.8948313755685472,0
3022,-0.4734746270291375,0
3023,0.19884624426453487,0
3024,-0.0005023830149574297,0
3025,0.08420530997059533,0
3026,0.04327329136456572,0
3027,0.06681144127860256,0
3028,-0.008734682848967647,0
3029,0.04778282308163625,0
3030,0.05735200273396498,0
3031,0.1082793281550073,0
3032,0.05113936944739174,0
3033,0.1498138016326413,0
3034,3.2851970164589432,0
3035,6.479956723011207,0
3036,-2.641881751428562,0
3037,1.0053943507710403,0
3038,-0.1903839481828774,0
3039,0.1653612208537215,0
3040,0.004344857618062827,0
3041,0.0446765798368882,0
3042,0.0003336210980361756,0
3043,0.14116108995972806,0
3044,0.07203663202864094,0
3045,0.1183659231306958,0
3046,0.02127619711082285,0
3047,0.06762540390743656,0
3048,0.17744263927974857,0
3049,0.11827652304850796,0
3050,0.5980545783954624,0
3051,5.4689875568222925,0
3052,3.7463830225124903,0
3053,-2.8253129165335036,0
3054,1.6529521356186614,0
3055,-0.7718585149843618,0
3056,0.3619774828604134,0
3057,-0.04713855753617184,0
3058,0.05643682487738333,0
3059,0.10003121294012365,0
3060,0.0019455440559274229,0
3061,0.04343343489970298,0
3062,-0.023717575078500877,0
3063,0.06226627901874915,0
3064,-0.01487038556715932,0
3065,0.008066510751304597,0
3066,0.023196501752739237,0
3067,1.4793418813915111,0
3068,6.934520851390152,0
3069,0.08180511107341959,0
3070,-1.1393880776753544,0
3071,0.9119953040071591,0
3072,-0.43875019921696923,0
3073,0.2627300875526833,0
3074,0.04603635147178372,0
3075,0.08418721530296222,0
3076,-0.011484406648194837,0
3077,0.009584219054839613,0
3078,0.11425890989915798,0
3079,0.03092744509570279,0
3080,0.041198010788347464,0
3081,-0.06177703873841482,0
3082,0.0522637513621093,0
3083,0.03102640800712951,0
3084,3.215347126645919,0
3085,6.3606559874133675,0
3086,-2.604868882042013,0
3087,0.9125375095032362,0
3088,-0.22211622907912815,0
3089,0.0696432147309366,0
3090,-0.038558906061493196,0
3091,-0.009955036998181184,0
3092,-0.07489956949958614,0
3093,-0.05855230726514386,0
3094,-0.02350894304769276,0
3095,-0.09883858229477958,0
3096,-0.09212547910638563,0
3097,-0.015525016176774023,0
3098,0.028204487098696246,0
3099,0.025580060682803586,0
3100,0.5087508342477748,0
3101,5.412741776504455,0
3102,3.8235377323409594,0
3103,-2.7854858284681283,0
3104,1.6146912941342964,0
3105,-0.7250994002142563,0
3106,0.3716901458039377,0
3107,-0.02562299705082193,0
3108,0.14183535683734488,0
3109,0.03848869133540489,0
3110,0.10380393802885443,0
3111,-0.015809482868537922,0
3112,-0.03310194896388814,0
3113,-0.032170884836960026,0
3114,0.028272683879622496,0
3115,-0.0335450705191193,0
3116,-0.04695502724139933,0
3117,1.5500079709884083,0
3118,6.908579574999557,0
3119,0.0362785504855464,0
3120,-1.0997813095556044,0
3121,0.8779226084731698,0
3122,-0.4127132093966251,0
3123,0.2733631246334458,0
3124,-0.0926856320620338,0
3125,-0.03662265423475947,0
3126,0.07918989040859886,0
3127,0.06884806488982559,0
3128,0.07414076088150183,0
3129,0.07727220895667605,0
3130,0.05173731778596512,0
3131,0.09363297533718892,0
3132,0.06293382621018055,0
3133,0.1733410978555386,0
3134,3.4112139129554557,0
3135,6.447501936424803,0
3136,-2.6843029506816336,0
3137,0.9462938785895899,0
3138,-0.2739874965950486,0
3139,0.10030753381786008,0
3140,-0.05053993175786657,0
3141,0.10259260643209442,0
3142,0.055804517101007416,0
3143,-0.09382670010922407,0
3144,0.012010642081120713,0
3145,-0.005413567074843492,0
3146,0.006511503403851615,0
3147,0.06572180543250256,0
3148,0.04817828062078441,0
3149,-0.02779968837158814,0
3150,0.5345685038112835,0
3151,5.426014087528508,0
3152,3.7473591881054342,0
3153,-2.7037680318731883,0
3154,1.5286309459921943,0
3155,-0.7748410637553682,0
3156,0.32793861330795393,0
3157,-0.029255473029276446,0
3158,0.09842632169585504,0
3159,-0.04401440562643503,0
3160,0.01016733605307931,0
3161,-0.029864976464429725,0
3162,-0.025581239567479375,0
3163,-0.07254260643785235,0
3164,0.019473835747863398,0
3165,0.052328538145356415,0
3166,-0.07742647401103286,0
3167,1.5122038259392974,0
3168,6.847616582394279,0
3169,-0.01767775056528942,0
3170,-1.0756772099223502,0
3171,0.8596556713505482,0
3172,-0.5108928651827643,0
3173,0.17117949086350243,0
3174,-0.06308871156513911,0
3175,-0.01274622786309483,0
3176,0.017306366363822545,0
3177,-0.016355997248975827,0
3178,0.15919340990477285,0
3179,0.03527443795989414,0
3180,0.09154586352549457,0
3181,0.08926160596494102,0
3182,0.00017012229475430601,0
3183,0.16018117443625537,0
3184,3.411570367516283,0
3185,6.402136439120067,0
3186,-2.554742068703431,0
3187,1.0885627377296776,0
3188,-0.17609938298529992,0
3189,0.19622392172897535,0
3190,0.010182364453236274,0
3191,0.09739429630629909,0
3192,0.0933655010125589,0
3193,-0.029857024008033334,0
3194,0.06938473940053658,0
3195,0.020933895708637462,0
3196,0.08645876542585619,0
3197,0.07711455143890131,0
3198,0.11069890012200287,0
3199,-0.014251619569174756,0
3200,0.5413143259548047,0
3201,5.543751778517533,0
3202,3.691571024725619,0
3203,-2.798143563407848,0
3204,1.5789608093022696,0
3205,-0.7432434082737477,0
3206,0.4161870159705689,0
3207,-0.0483890017260043,0
3208,0.08842066747284981,0
3209,0.005337731700741345,0
3210,0.05391156926955814,0
3211,0.02089828043895322,0
3212,0.06536326819482566,0
3213,0.08209183162187582,0
3214,0.029345433117971362,0
3215,0.016662656603063625,0
3216,0.02585561509263597,0
3217,1.6349646132523379,0
3218,6.853837687659504,0
3219,0.020686415162609148,0
3220,-1.0737164855312111,0
3221,0.7977824355786965,0
3222,-0.4565329662888179,0
3223,0.29117809452744864,0
3224,0.03701841936656286,0
3225,0.025597454171803577,0
3226,0.09677853281967003,0
3227,0.03212664594892631,0
3228,-0.04126093570996676,0
3229,0.032058452677720214,0
3230,-0.03374785718988644,0
3231,0.15776608751864052,0
3232,0.054647327847070465,0
3233,0.20868261293064955,0
3234,3.3152556803761173,0
3235,6.391765693284453,0
3236,-2.640181885757965,0
3237,0.9949079766754397,0
3238,-0.29267805516476914,0
3239,0.21140170698218305,0
3240,0.030225025845316538,0
3241,0.10205589159024635,0
3242,-0.041357151024014716,0
3243,0.1306222670639012,0
3244,0.09247562189116718,0
3245,0.09401897079799297,0
3246,0.10894933759670723,0
3247,0.07525632611069272,0
3248,-0.046581222916400024,0
3249,0.04798253825052645,0
3250,0.4991100701166507,0
3251,5.462367134994492,0
3252,3.6501001466349163,0
3253,-2.73333220818244,0
3254,1.6648177051084747,0
3255,-0.7210137149741959,0
3256,0.29589648424122694,0
3257,-0.17676582898565651,0
3258,-0.012855015195132144,0
3259,0.00592931493180196,0
3260,0.06737829987674682,0
3261,0.0381950766961824,0
3262,0.03891572358024134,0
3263,0.020299985766863697,0
3264,0.05758963069380442,0
3265,0.030914371682975866,0
3266,0.0315391391460881,0
3267,1.4686194231860965,0
3268,6.8251488027073455,0
3269,0.043002522635959946,0
3270,-1.0283236486392342,0
3271,0.9317153161624724,0
3272,-0.4254329930336105,0
3273,0.11807943225713052,0
3274,-0.028741681974449138,0
3275,-0.05653806539644775,0
3276,-0.018577197381045664,0
3277,0.03954899350002419,0
3278,-0.036166247953047695,0
3279,0.023209754869651354,0
3280,-0.07623051507817208,0
3281,0.015309499240812742,0
3282,-0.04332228924417335,0
3283,0.01880730719207936,0
3284,3.3546790286990484,0
3285,6.344315149075445,0
3286,-2.7286694000581795,0
3287,1.0545347155568365,0
3288,-0.3757070493921997,0
3289,0.12267049059110155,0
3290,-0.0821297501755627,0
3291,0.002106605891003418,0
3292,-0.06953030833321137,0
3293,-0.10773457256221389,0
3294,-0.06106022538769214,0
3295,-0.046716086125576,0
3296,-0.018935268301800853,0
3297,-0.002680911664601146,0
3298,-0.05057156359672681,0
3299,-0.09379895204811481,0
3300,0.4013508532833291,0
3301,5.324938867764914,0
3302,3.53735818525322,0
3303,-2.8576270595047473,0
3304,1.4201853530444424,0
3305,-0.900253035213739,0
3306,0.24535372293084762,0
3307,-0.12218458117106312,0
3308,-0.06617962278526167,0
3309,-0.016603566285765793,0
3310,0.027582056454826122,0
3311,0.020019367836554725,0
3312,0.06117351628304998,0
3313,-0.028110480650671156,0
3314,0.0006396408270977552,0
3315,-0.0009541347948255549,0
3316,-0.10366568232571399,0
3317,1.4939734097371433,0
3318,6.827274445550353,0
3319,-0.04803029393816176,0
3320,-1.0898986811926816,0
3321,0.7706457208685358,0
3322,-0.47299540476868585,0
3323,0.17026701677094985,0
3324,-0.1443419373108034,0
3325,-0.07527219816213104,0
3326,-0.09300990531492954,0
3327,-0.14183872862323127,0
3328,0.019769388550395922,0
3329,-0.08734592921032377,0
3330,-0.09406954148330353,0
3331,0.03968508722231913,0
3332,0.028034026718069524,0
3333,0.046843654816605046,0
3334,3.355402232539429,0
3335,6.216481701681199,0
3336,-2.7445244117655543,0
3337,0.9465966546572486,0
3338,-0.3579502593243371,0
3339,0.09618377199617324,0
3340,-0.08500534394809339,0
3341,0.05558308853931594,0
3342,-0.043617020993023364,0
3343,-0.06590905888413406,0
3344,-0.02268671798315404,0
3345,-0.0364106421264737,0
3346,-0.04108278465677843,0
3347,-0.11165346306789559,0
3348,-0.045844298567951865,0
3349,-0.061986172775708344,0
3350,0.4230580137062142,0
3351,5.490937615345353,0
3352,3.5351806982677645,0
3353,-2.8781010626243426,0
3354,1.4977376376942766,0
3355,-0.843365132437011,0
3356,0.2795236222404951,0
3357,-0.15114703198397209,0
3358,-0.08331347476251502,0
3359,-0.002994724475487244,0
3360,-0.1153371508887421,0
3361,-0.051808493606217,0
3362,-0.11371492385056817,0
3363,-0.08399606804561661,0
3364,-0.059630726588857104,0
3365,0.03358109479286735,0
3366,-0.006054928896109743,0
3367,1.3785645642986422,0
3368,6.854125752292117,0
3369,-0.12481079630877638,0
3370,-1.0545554096993814,0
3371,0.6927291035566285,0
3372,-0.612680161901256,0
3373,0.07227211788992953,0
3374,-0.15963875403432135,0
3375,-0.0812708681719282,0
3376,-0.12906573416380104,0
3377,-0.10084349382997673,0
3378,-0.04099878268449901,0
3379,-0.010913115960432797,0
3380,-0.09481579977857416,0
3381,-0.13905774398929516,0
3382,-0.027784011459673852,0
3383,-0.03456339165091862,0
3384,3.3717661384598085,0
3385,6.256365060157576,0
3386,-2.8470249720294527,0
3387,0.9311269549493916,0
3388,-0.4823986657670892,0
3389,0.07421640649494152,0
3390,-0.10255896837684894,0
3391,0.011924083979941554,0
3392,-0.03605537334031898,0
3393,-0.051286741782824344,0
3394,-0.060738869744208064,0
3395,-0.03142662986353008,0
3396,-0.09352315603617806,0
3397,-0.04766767949409913,0
3398,-0.08490023202525196,0
3399,0.007501233764683892,0
3400,0.4743214905720267,0
3401,5.499401832018592,0
3402,3.5218034442936674,0
3403,-2.7208000216069426,0
3404,1.518222824741603,0
3405,-0.8958249838977319,0
3406,0.31495907231499654,0
3407,-0.09156438033063818,0
3408,-0.011418627229129813,0
3409,-0.00416305455125747,0
3410,-0.04684907385003503,0
3411,0.1053159277543551,0
3412,0.006966705973516639,0
3413,0.03825246413130498,0
3414,-0.05767524382433767,0
3415,0.030228848627554372,0
3416,0.013126048020353942,0
3417,1.4938974287152493,0
3418,6.824531548260611,0
3419,-0.09918200807979738,0
3420,-1.110138256956031,0
3421,0.7200841700091712,0
3422,-0.5391940088245502,0
3423,0.09992026872291826,0
3424,-0.1583457566541296,0
3425,0.0023986430744035274,0
3426,0.064789362831373,0
3427,-0.02006957432172568,0
3428,-0.03196062330992958,0
3429,-0.010514558942834477,0
3430,0.06430706451556399,0
3431,0.03898539807002675,0
3432,0.055404086742782674,0
3433,0.20354367266625928,0
3434,3.4249951326844914,0
3435,6.31553223879292,0
3436,-2.6526569358775025,0
3437,1.0934845792106855,0
3438,-0.3354700880491653,0
3439,0.16545672833228323,0
3440,-0.013025854297157701,0
3441,-0.13101239801257988,0
3442,0.0172536547359964,0
3443,0.007429910132658653,0
3444,0.011708063190399735,0
3445,0.0003018718282701491,0
3446,-0.004089466965060767,0
3447,-0.012303964585340166,0
3448,-0.12550980588699182,0
3449,-0.0651018593141448,0
3450,0.4036450235515081,0
3451,5.453829048019524,0
3452,3.4461340202948634,0
3453,-2.7546560704677536,0
3454,1.559109681650988,0
3455,-0.794831668316111,0
3456,0.2711803262337034,0
3457,-0.05767591992624603,0
3458,-0.09533106350523943,0
3459,0.012925384335186148,0
3460,-0.03510263937288092,0
3461,-0.029711102013933722,0
3462,0.001999499167725332,0
3463,-0.00848090886575872,0
3464,-0.08059204487278845,0
3465,0.013569387827165422,0
3466,-0.023005210148555617,0
3467,1.5191488681434244,0
3468,6.8877931591184725,0
3469,-0.07593295670171626,0
3470,-0.9447685004300257,0
3471,0.7742075045543282,0
3472,-0.40339817677403955,0
3473,0.14027682218196258,0
3474,-0.08062162314125344,0
3475,-0.059035023099341555,0
3476,-0.06678632592089169,0
3477,0.02107837395170061,0
3478,-0.04650391580642413,0
3479,-0.05142952947972657,0
3480,-0.09369342949168277,0
3481,0.01858170240418696,0
3482,0.002450268867188278,0
3483,-0.00494034868927181,0
3484,3.4038825130494748,0
3485,6.200679711930121,0
3486,-2.755032512352331,0
3487,0.9293305396152732,0
3488,-0.3726266485122858,0
3489,0.09320166847831346,0
3490,-0.08197311429038917,0
3491,0.1110562648676181,0
3492,0.052017053467994775,0
3493,0.0789734832974037,0
3494,0.013514625498430298,0
3495,0.040424851255464855,0
3496,-0.007648104972677577,0
3497,-0.06780288045335878,0
3498,0.027573220136137284,0
3499,0.01396891801958483,0
3500,0.44824533676068945,0
3501,5.410502271601106,0
3502,3.458208010840621,0
3503,-2.8359863661121953,0
3504,1.4603055186782452,0
3505,-0.9053922522193288,0
3506,0.19944302106551584,0
3507,-0.12408466474283698,0
3508,0.08248242226501493,0
3509,-0.016865391359652426,0
3510,0.012493430651577275,0
3511,0.03229019160819849,0
3512,0.02770806738316162,0
3513,-0.0015134619843447002,0
3514,-0.06423751532407232,0
3515,-0.013597373777513423,0
3516,0.01253663978138412,0
3517,1.4999657122085333,0
3518,6.913862145524862,0
3519,-0.1037907837890818,0
3520,-0.947243799939275,0
3521,0.7568402968960357,0
3522,-0.5101656433119738,0
3523,0.134926607047562,0
3524,-0.18207327937240037,0
3525,-0.003980504077091558,0
3526,-0.07280862888329126,0
3527,-0.12336932568105587,0
3528,-0.11577181850228233,0
3529,-0.17974434945482393,0
3530,0.00839310456992702,0
3531,-0.07004691344667394,0
3532,-0.08182314486132228,0
3533,0.03020395621556951,0
3534,3.4112480003209975,0
3535,6.241101429728308,0
3536,-2.7716284638055795,0
3537,0.999260923142836,0
3538,-0.4150399332743945,0
3539,-0.02576232008619013,0
3540,-0.09275634032047173,0
3541,-0.007675890587556494,0
3542,-0.07166442763708179,0
3543,-0.003239633211417778,0
3544,-0.12242852661655645,0
3545,0.01058471393455207,0
3546,-0.09719455618269711,0
3547,-0.11689071968512915,0
3548,-0.11585837586501822,0
3549,-0.09210098139642967,0
3550,0.5085554619999202,0
3551,5.427222216440201,0
3552,3.375880411274229,0
3553,-2.8438088623975792,0
3554,1.4316646349833377,0
3555,-0.8824798745469323,0
3556,0.3330111431008642,0
3557,-0.21703033351345183,0
3558,-0.061824974414305504,0
3559,-0.08558537545698298,0
3560,-0.12498386447634754,0
3561,-0.04000204001813146,0
3562,0.009179667550694659,0
3563,-0.057130185760368005,0
3564,-0.05713383105598253,0
3565,-0.08453197595026436,0
3566,0.054667336396003775,0
3567,1.625074619907334,0
3568,6.808304994506366,0
3569,-0.24992689423979217,0
3570,-1.0657154003836156,0
3571,0.6821821318478223,0
3572,-0.5255252171578224,0
3573,0.0912931285409269,0
3574,-0.1450388301904955,0
3575,-0.08097681612574968,0
3576,-0.057536291598128605,0
3577,-0.01874278531183443,0
3578,-0.013912318631274345,0
3579,0.035294359071713244,0
3580,-0.01881913846251406,0
3581,0.040282436208948155,0
3582,-0.06489839253022109,0
3583,0.1292094381257721,0
3584,3.3500367357655967,0
3585,6.306123329899827,0
3586,-2.8230961447233227,0
3587,1.0361028878135872,0
3588,-0.40267886498329913,0
3589,0.053239428778723216,0
3590,-0.10068237087530132,0
3591,-0.04747591868365666,0
3592,0.016549034848141103,0
3593,0.0808332545896987,0
3594,-0.06848567671575001,0
3595,-0.1185219441375883,0
3596,-0.11196103027443914,0
3597,-0.040614603850817756,0
3598,-0.03681797940181637,0
3599,-0.008625498269816956,0
3600,0.5232831733190417,0
3601,5.4876939159585545,0
3602,3.36310850115071,0
3603,-2.7888338957062215,0
3604,1.4763455176676556,0
3605,-0.8202740636000478,0
3606,0.2111024222056772,0
3607,-0.16967641921988635,0
3608,-0.15871969540404057,0
3609,-0.05090306911129996,0
3610,-0.09856515990788003,0
3611,-0.07304342210838942,0
3612,-0.05323409495398915,0
3613,0.06734165655632668,0
3614,-0.05214705061293088,0
3615,-0.07168485284369439,0
3616,0.019538433750268397,0
3617,1.5776922802774398,0
3618,6.868491078383587,0
3619,-0.2702995248346485,0
3620,-1.0268740439285902,0
3621,0.6223621602392783,0
3622,-0.46131054799470933,0
3623,0.11751810636176624,0
3624,-0.08143224474014511,0
3625,-0.013973224711013858,0
3626,-0.1229534681576389,0
3627,-0.20571427647016302,0
3628,-0.11950923144436487,0
3629,-0.08171190926954724,0
3630,-0.19440180475888957,0
3631,-0.08676410758398176,0
3632,-0.11060428574862645,0
3633,-0.017048096377582585,0
3634,3.395308923012212,0
3635,6.13394773397176,0
3636,-2.842538143438082,0
3637,0.9223686978733199,0
3638,-0.44951120723110427,0
3639,0.044391598367861385,0
3640,-0.1471876995110771,0
3641,0.0032968983529360757,0
3642,0.016850763109283226,0
3643,-0.04494915376028647,0
3644,-0.04811999687749819,0
3645,0.037424708574331,0
3646,-0.03468196913087767,0
3647,0.008674175041493294,0
3648,-0.0699391028993501,0
3649,-0.12143632253525333,0
3650,0.41519322627642163,0
3651,5.56127094463552,0
3652,3.3718788226484664,0
3653,-2.7830531053022063,0
3654,1.42861194972966,0
3655,-0.8029087887995977,0
3656,0.30220163324548516,0
3657,-0.12694714198163903,0
3658,-0.006175989666115628,0
3659,-0.16575560820511082,0
3660,-0.13778053513948874,0
3661,0.0668648360777961,0
3662,-0.03837127701096584,0
3663,-0.09481247391835579,0
3664,-0.05164350245514765,0
3665,0.011001327111363132,0
3666,-0.03202599908871971,0
3667,1.581139106226734,0
3668,6.808119242313579,0
3669,-0.33079411279305404,0
3670,-1.0159682740138027,0
3671,0.7215778347731524,0
3672,-0.405779038441733,0
3673,0.06762762685482018,0
3674,-0.024168692000886505,0
3675,-0.0036842687119751014,0
3676,-0.012089400002731475,0
3677,-0.05761195490301515,0
3678,-0.041232260464285804,0
3679,-0.04671937973778907,0
3680,-0.025590100681203237,0
3681,-0.11455345396143274,0
3682,-0.02366197914010043,0
3683,0.07182414887267298,0
3684,3.4683852744817814,0
3685,6.131464200346054,0
3686,-2.809438000448339,0
3687,1.0129680904071734,0
3688,-0.48060694181367636,0
3689,0.05798996592847136,0
3690,-0.1755642780061369,0
3691,-0.03650402919498577,0
3692,-0.10541445907473034,0
3693,-0.03217220453686826,0
3694,-0.09843337780165842,0
3695,-0.062029782930804335,0
3696,-0.0604813351851152,0
3697,-0.16975354498761236,0
3698,-0.0613796960592323,0
3699,-0.06103231759892552,0
3700,0.5127022892974388,0
3701,5.47628169769568,0
3702,3.3376163863681287,0
3703,-2.7667940904242436,0
3704,1.4394855850026558,0
3705,-0.948665478789866,0
3706,0.24705339830548195,0
3707,-0.11480064585521951,0
3708,0.03541277007603047,0
3709,-0.014328821808246552,0
3710,0.018271785738169698,0
3711,-0.06355888181362138,0
3712,-0.08721992837914698,0
3713,-0.0033665316625387798,0
3714,-0.08233344596454387,0
3715,0.027944004690656745,0
3716,-0.07559848131492276,0
3717,1.6217984096090823,0
3718,6.903983862305801,0
3719,-0.26758807392927947,0
3720,-0.9831109951706734,0
3721,0.6731793519560061,0
3722,-0.4511083606194507,0
3723,0.06879460108801926,0
3724,-0.07588293718287661,0
3725,-0.03231667075169122,0
3726,-0.0981927260350168,0
3727,-0.06958980466539605,0
3728,-0.10520296164275669,0
3729,-0.17492384670089992,0
3730,-0.12097461781827709,0
3731,-0.11129874446357074,0
3732,-0.11834008054228853,0
3733,0.010393270344320011,0
3734,3.426699995524222,0
3735,6.162479730920885,0
3736,-2.8829148605136354,0
3737,0.9787720378251221,0
3738,-0.4434187917357903,0
3739,-0.01771408261915207,0
3740,-0.12042906050578349,0
3741,-0.019548468982428048,0
3742,0.007876031054310229,0
3743,-0.014600383711761929,0
3744,-0.10169442864220875,0
3745,-0.11243422625633898,0
3746,-0.054236621295578186,0
3747,0.055456868255223425,0
3748,-0.08798587590194082,0
3749,-0.09359551362438412,0
3750,0.5414125655580391,0
3751,5.705505535104655,0
3752,3.2262027728967393,0
3753,-2.7796713760955836,0
3754,1.5390878749833559,0
3755,-0.7233661257697043,0
3756,0.27531391496282603,0
3757,-0.11891384253329966,0
3758,0.008563920417750386,0
3759,0.011710135984172074,0
3760,-0.06880271398692804,0
3761,-0.03159397805661945,0
3762,0.06256937900595685,0
3763,-0.07985642939929813,0
3764,-0.044227548081616615,0
3765,0.011919142366776256,0
3766,-0.10083292216662222,0
3767,1.4826554804679872,0
3768,6.786387929954454,0
3769,-0.38121167043600135,0
3770,-0.919681427339318,0
3771,0.6639321534143239,0
3772,-0.4856670633097374,0
3773,0.1330006635867826,0
3774,-0.14067020294462024,0
3775,-0.06662648785201652,0
3776,-0.03410285691295019,0
3777,-0.04722196002919928,0
3778,0.047767900367656255,0
3779,-0.09041290869803069,0
3780,-0.13268441545630308,0
3781,-0.0726391363739416,0
3782,0.016490302685096263,0
3783,0.003738740455080755,0
3784,3.5490967350973746,0
3785,6.168647492505028,0
3786,-2.730369105563128,0
3787,0.9880958496968867,0
3788,-0.4009749779257399,0
3789,0.16832571588095566,0
3790,-0.023986027741645138,0
3791,0.09856141753841798,0
3792,0.10846744859785666,0
3793,0.10768160994851386,0
3794,-0.015956051546084822,0
3795,0.07425336499564555,0
3796,0.0420011594804906,0
3797,0.022140119157417627,0
3798,0.0525305886907744,0
3799,0.010658081185131403,0
3800,0.6137646061078139,0
3801,5.602787321939912,0
3802,3.318283468791886,0
3803,-2.752515255848414,0
3804,1.5210286421341301,0
3805,-0.7827715978931434,0
3806,0.19528849675279505,0
3807,-0.0588823846702528,0
3808,0.08265861834930519,0
3809,0.06827633661917665,0
3810,0.051838986272993465,0
3811,0.0011199942933866544,0
3812,0.1212532406909107,0
3813,0.07802267428140339,0
3814,0.0892479339895276,0
3815,0.07447725300485916,0
3816,0.012166568347501704,0
3817,1.6119388479836965,0
3818,7.04102689038934,0
3819,-0.2631551705866922,0
3820,-0.8693069778061464,0
3821,0.7182957407056869,0
3822,-0.36744704487741103,0
3823,0.061242069908355096,0
3824,-0.15291077950261917,0
3825,0.0015456920527077422,0
3826,0.02898043617004601,0
3827,-0.07130024151351592,0
3828,-0.007947221478338718,0
3829,-0.08492350798264267,0
3830,0.030760098808772087,0
3831,0.04259239074804451,0
3832,-0.012387227822924838,0
3833,0.1263161653275382,0
3834,3.577620201281625,0
3835,6.24338927588595,0
3836,-2.684991899822388,0
3837,1.1423428073981685,0
3838,-0.32563589352315864,0
3839,0.23823196404825808,0
3840,0.049617914088424295,0
3841,-0.059187274870053964,0
3842,0.004105351999459617,0
3843,0.07152827373774762,0
3844,-0.0020082320695555232,0
3845,-0.037179831728696065,0
3846,0.03927915487064194,0
3847,0.01889957190542313,0
3848,-0.025786567241668543,0
3849,-0.015427834210309067,0
3850,0.5877157505340547,0
3851,5.588530601517001,0
3852,3.3170584781560555,0
3853,-2.7219614002151777,0
3854,1.5211457491735623,0
3855,-0.7838613078992298,0
3856,0.35009040233752986,0
3857,-0.14867447443079918,0
3858,0.05479311826079058,0
3859,0.030798705177968955,0
3860,-0.007923097670679535,0
3861,0.05149617690947553,0
3862,0.05479255557222318,0
3863,-0.02121931251199251,0
3864,0.012230406041602646,0
3865,-0.05489308435318763,0
3866,0.09447450587549262,0
3867,1.6907229217996769,0
3868,6.97287979780925,0
3869,-0.18536263432737304,0
3870,-0.8210570799039856,0
3871,0.7310862104837815,0
3872,-0.38780807761464764,0
3873,0.11402565624859767,0
3874,0.030624506423845614,0
3875,0.0453300342028606,0
3876,0.050325361611582346,0
3877,0.04787280078052608,0
3878,0.09256376332259506,0
3879,0.05473635375696187,0
3880,0.03183674436347219,0
3881,0.07816994513512597,0
3882,-0.04219122112412228,0
3883,0.2631291228365745,0
3884,3.5077085234871457,0
3885,6.2295475156250015,0
3886,-2.7298088038110797,0
3887,1.0922287557139227,0
3888,-0.3817591866122334,0
3889,0.1402473625390735,0
3890,-0.09651241740013315,0
3891,0.06562692147687427,0
3892,-0.008933455149156817,0
3893,-0.043889816625654665,0
3894,-0.06244408478283839,0
3895,0.08423945785230666,0
3896,-0.02232539129831785,0
3897,-0.0025666312702146594,0
3898,0.004133966930848516,0
3899,0.03072244701132841,0
3900,0.6164815219931601,0
3901,5.645235869423057,0
3902,3.3564160807205266,0
3903,-2.629016677500235,0
3904,1.6024060073922872,0
3905,-0.7021218722383983,0
3906,0.3989752089011792,0
3907,-0.14099902742786674,0
3908,0.104051206852654,0
3909,0.023543110393696925,0
3910,0.02244058125976464,0
3911,-0.07569264067907562,0
3912,-0.04953367440501127,0
3913,0.016384185404332768,0
3914,0.005744335972767418,0
3915,0.05340719466573996,0
3916,-0.09767295244505872,0
3917,1.628668706706937,0
3918,6.963480393772637,0
3919,-0.3831997943917732,0
3920,-0.8359073948399616,0
3921,0.7722876473458005,0
3922,-0.3845128830545378,0
3923,0.15746560641301366,0
3924,-0.0627186623619507,0
3925,-0.03423414833157812,0
3926,0.09026685244125901,0
3927,0.06189387756865489,0
3928,0.023259187303923456,0
3929,-0.015947994158283844,0
3930,-0.036281341655909884,0
3931,0.0008037775676655312,0
3932,0.043338757629373496,0
3933,0.17545194257557348,0
3934,3.5137351178207656,0
3935,6.148204393050637,0
3936,-2.7099048423453596,0
3937,1.2369058038171254,0
3938,-0.3155247251627545,0
3939,0.1223555595902025,0
3940,0.05268774515437657,0
3941,0.03745551685553849,0
3942,-0.05516654893770841,0
3943,-0.014200318788272995,0
3944,-0.03325739056595527,0
3945,0.03063541124008091,0
3946,0.029787709665985873,0
3947,0.023479957725543454,0
3948,-0.07623304525557875,0
3949,0.04820701985451943,0
3950,0.603810119547358,0
3951,5.69268808925773,0
3952,3.3675992168791624,0
3953,-2.6419378877366,0
3954,1.6360599576773769,0
3955,-0.6395190480084323,0
3956,0.4441648387852222,0
3957,-0.048329585859748204,0
3958,0.1377589583172546,0
3959,0.0951524737477881,0
3960,0.030940631823206773,0
3961,0.07336167877111692,0
3962,0.03695791768818241,0
3963,0.017125242519636992,0
3964,0.1188759854237108,0
3965,0.09169118501880602,0
3966,-0.003578695685780866,0
3967,1.6662684960422318,0
3968,6.92811197298438,0
3969,-0.37880381583074657,0
3970,-0.826561636956888,0
3971,0.6975688404221407,0
3972,-0.39899661504228895,0
3973,0.16137968454288776,0
3974,-0.05486336612068708,0
3975,0.0014492286496832277,0
3976,0.05712198270488814,0
3977,-0.02874862346537023,0
3978,-0.018411137760442634,0
3979,0.04914190546560322,0
3980,-0.03061068236682865,0
3981,0.05432322661324849,0
3982,0.028241989867869105,0
3983,0.1564053003952135,0
3984,3.643936713387437,0
3985,6.101250246958549,0
3986,-2.8210105245171424,0
3987,1.1439844102016261,0
3988,-0.32637011005977024,0
3989,0.1398954310701917,0
3990,0.03832555757345356,0
3991,-0.023363829887680678,0
3992,-0.08965981372253845,0
3993,0.010112419972551741,0
3994,-0.008293387382463912,0
3995,-0.08863987803402139,0
3996,0.022415722036997526,0
3997,0.0064858351611393975,0
3998,-0.0888129236783085,0
3999,0.07497926110318878,0
4000,0.5272149966628719,0
4001,5.677233058777563,0
4002,3.3171277277193236,0
4003,-2.6657040971683674,0
4004,1.5706598804441854,0
4005,-0.8183285976253092,0
4006,0.25621427763147486,0
4007,-0.18867600672448012,0
4008,0.02848114240293883,0
4009,0.0009397907754719638,0
4010,-0.07671818627938295,0
4011,0.019988620501269067,0
4012,-0.011079892510821351,0
4013,-0.0484140166554629,0
4014,-0.08042259036276572,0
4015,0.06897570519555038,0
4016,-0.12712693650457324,0
4017,1.6103126588107979,0
4018,6.85922982750096,0
4019,-0.37168634133412054,0
4020,-0.8637157589273282,0
4021,0.6743587860962078,0
4022,-0.394486673074489,0
4023,0.1711544327251192,0
4024,-0.13560279041810563,0
4025,-0.08754431237768777,0
4026,-0.040587394707684646,0
4027,-0.04116279097566099,0
4028,0.011018492156585152,0
4029,0.060728996614142314,0
4030,0.02632409108246381,0
4031,-0.060830120640464454,0
4032,-0.030151587334471413,0
4033,0.12675756301182,0
4034,3.455961789116699,0
4035,6.07378630247048,0
4036,-2.770941023175842,0
4037,1.186776510526494,0
4038,-0.45917334842684965,0
4039,0.13323208121902227,0
4040,-0.08010123112349198,0
4041,0.01663603521031619,0
4042,0.032853339034164535,0
4043,-0.11268745556264369,0
4044,-0.05304130228297173,0
4045,-0.10649839879675321,0
4046,0.056692252367244775,0
4047,-0.017454363805286168,0
4048,-0.028732904373406545,0
4049,-0.027862536860436216,0
4050,0.6586849582300306,0
4051,5.707405048063178,0
4052,3.266708221829693,0
4053,-2.691735684136717,0
4054,1.546917353909619,0
4055,-0.8033877407244038,0
4056,0.32237004284291526,0
4057,-0.06147050039006969,0
4058,0.03392451215307398,0
4059,-0.032882737754858685,0
4060,0.035371961376691435,0
4061,-0.011479183886347132,0
4062,0.01693156080728407,0
4063,0.02120405639900478,0
4064,-0.10040756178734654,0
4065,-0.12236421689556315,0
4066,0.07599727458981777,0
4067,1.5146939848876033,0
4068,6.883985592189305,0
4069,-0.3837535364921282,0
4070,-0.7988484974653001,0
4071,0.7264479623156286,0
4072,-0.3907568034147622,0
4073,0.1399272574003013,0
4074,-0.06036114765549236,0
4075,0.08746169010419451,0
4076,0.11765264899933081,0
4077,0.004208240756151479,0
4078,0.00421005697704703,0
4079,0.09593799975522578,0
4080,-0.04246686517577926,0
4081,0.053845100032137334,0
4082,-0.03259983930327494,0
4083,0.11614843250443835,0
4084,3.5420762360668148,0
4085,6.081942765430341,0
4086,-2.868345794259685,0
4087,1.2099397331942572,0
4088,-0.3380772220281923,0
4089,0.1272782973015172,0
4090,-0.0038257848548242657,0
4091,-0.07445781128098673,0
4092,0.012097724689652312,0
4093,-0.08965898388172847,0
4094,-0.001573014840477508,0
4095,-0.0818755612311077,0
4096,-0.06338617597755691,0
4097,0.11557271830265271,0
4098,-0.0479301839197622,0
4099,-0.04364204351229793,0
4100,0.5791814124161329,0
4101,5.75090092186843,0
4102,3.171383607166108,0
4103,-2.740562098545799,0
4104,1.4111294186468981,0
4105,-0.717102490692432,0
4106,0.32830726879038,0
4107,-0.18779596741126536,0
4108,-0.04546332524433872,0
4109,-0.022570136742038484,0
4110,0.05157674889997323,0
4111,-0.07047534019617974,0
4112,-0.07492380932728081,0
4113,-0.023921377283520315,0
4114,0.01954553318800873,0
4115,-0.007567564378315291,0
4116,-0.09741317093268011,0
4117,1.724143565488574,0
4118,6.944318064740234,0
4119,-0.40998964403896226,0
4120,-0.8714102151175384,0
4121,0.6166748839715785,0
4122,-0.3502106573802522,0
4123,0.15743518427591235,0
4124,-0.026431479646955396,0
4125,-0.024906179389646003,0
4126,-0.03324529911540946,0
4127,0.055270617516189766,0
4128,-0.03738479859742708,0
4129,0.07969953377905967,0
4130,-0.058251312226218724,0
4131,0.021654019480057723,0
4132,0.017778084173060177,0
4133,0.19649840679582387,0
4134,3.5344002069374163,0
4135,6.0910729837174316,0
4136,-2.877176894653746,0
4137,1.2103235524163274,0
4138,-0.4271567605526569,0
4139,0.1837665370670701,0
4140,-0.08762619708143735,0
4141,-0.07579675183048151,0
4142,-0.024807388351103514,0
4143,0.014081209075048014,0
4144,0.007255181660831049,0
4145,0.0369553883042479,0
4146,-0.1680512681669874,0
4147,-0.05360096011886869,0
4148,0.0015371318402372693,0
4149,-0.07098291656042932,0
4150,0.49870487920305834,0
4151,5.680512875142018,0
4152,3.205881981603854,0
4153,-2.6636177462725192,0
4154,1.4553133096354953,0
4155,-0.8344508181008286,0
4156,0.3111663455670228,0
4157,-0.15846647403330305,0
4158,0.03382170849219601,0
4159,-0.10069116868571942,0
4160,-0.06540903420291,0
4161,0.0129739042280408,0
4162,-0.029257598889737457,0
4163,0.028525699720373537,0
4164,-0.00432271773345019,0
4165,-0.06646851448979645,0
4166,0.09024460399380496,0
4167,1.695004680163716,0
4168,7.0408458230180395,0
4169,-0.4707224078225343,0
4170,-0.7739389901456761,0
4171,0.602782005155752,0
4172,-0.4722085750976005,0
4173,0.08139413315133025,0
4174,-0.03559004868212945,0
4175,-0.03275442244957113,0
4176,-0.03561754967201161,0
4177,-0.014435764879126695,0
4178,0.052868522250410374,0
4179,-0.07890264807747634,0
4180,-0.06236357980612331,0
4181,0.0676658731437813,0
4182,-0.05315717965665874,0
4183,0.15596796437616928,0
4184,3.709094199534635,0
4185,6.102520477829425,0
4186,-2.815962331726998,0
4187,1.1225153636677316,0
4188,-0.46206746330168363,0
4189,0.1711855235369375,0
4190,-0.10165734607407832,0
4191,0.04585889847470088,0
4192,0.012736333649998478,0
4193,0.01782019261651957,0
4194,0.03737359195962729,0
4195,0.06286899290277968,0
4196,0.0759251296578543,0
4197,-0.05635872205537437,0
4198,0.13136605215559663,0
4199,-0.04654874496418134,0
4200,0.646614001865344,0
4201,5.700012545981368,0
4202,3.257546976675565,0
4203,-2.6705579178993726,0
4204,1.4946633069670225,0
4205,-0.7686228971692431,0
4206,0.2937656645329168,0
4207,-0.0499581197088822,0
4208,0.034284382542477315,0
4209,-0.018963280787527535,0
4210,0.0030328993509076557,0
4211,-0.0014868041286948653,0
4212,0.008543293067505443,0
4213,0.13820016912381783,0
4214,-0.07618498723968672,0
4215,0.07444227480469977,0
4216,0.018986426181621725,0
4217,1.6692034132854074,0
4218,7.014680436021372,0
4219,-0.3663468980196532,0
4220,-0.8426308981299214,0
4221,0.7094786970710714,0
4222,-0.3202977553884774,0
4223,0.11219697700659431,0
4224,0.029689705394928392,0
4225,0.06506234818260091,0
4226,0.06744319831458948,0
4227,0.08132656680926637,0
4228,0.10394527135919046,0
4229,0.06446272388407337,0
4230,0.003415499113666967,0
4231,0.05174575077503841,0
4232,0.0008349220025833035,0
4233,0.1058306263335161,0
4234,3.704128960459572,0
4235,6.103712293769955,0
4236,-2.783837465792971,0
4237,1.2144442949695948,0
4238,-0.4627256271886529,0
4239,0.1228004271624234,0
4240,-0.07514697484454316,0
4241,-0.047659886448886364,0
4242,0.04836359332481634,0
4243,-0.012036179595150243,0
4244,-0.009706738254113313,0
4245,0.09204679219193644,0
4246,0.13442351194622307,0
4247,0.027859420221278828,0
4248,0.013941274491644173,0
4249,0.03996248339703934,0
4250,0.5820978059080325,0
4251,5.748347243509904,0
4252,3.203578380558375,0
4253,-2.6378157397433637,0
4254,1.4742583049595577,0
4255,-0.7352376541799583,0
4256,0.3047511339245506,0
4257,-0.1078851767750403,0
4258,0.0790041578068223,0
4259,-0.01413936293953635,0
4260,-0.06790515731535812,0
4261,0.0002281900053293165,0
4262,0.04362314778982139,0
4263,0.10640074917408975,0
4264,0.04371357974748382,0
4265,0.03558552631089831,0
4266,0.008578893781868963,0
4267,1.7993407936269963,0
4268,7.08860636355412,0
4269,-0.390451329487354,0
4270,-0.7249668556197433,0
4271,0.7592112056697432,0
4272,-0.3230671851821301,0
4273,0.2264993889378048,0
4274,-0.0915545683067304,0
4275,0.023784524120031583,0
4276,-0.004496080070542938,0
4277,-0.03441662581265723,0
4278,-0.05636060533251752,0
4279,0.013661856150862859,0
4280,-0.0016146080338127087,0
4281,-0.09551608942160843,0
4282,0.04818777319786574,0
4283,0.11728140924224464,0
4284,3.59886096576263,0
4285,6.0469420589361755,0
4286,-2.812115085205895,0
4287,1.2683506058609733,0
4288,-0.4364371853730957,0
4289,0.0963166687871809,0
4290,-0.07382503295754121,0
4291,-0.03268806027008185,0
4292,0.014170621319553729,0
4293,-0.012192129505826464,0
4294,0.054494913530157035,0
4295,0.010223242029035153,0
4296,0.05141120453442341,0
4297,-0.030137938831010912,0
4298,0.026774796366153958,0
4299,-0.040209982045259884,0
4300,0.6051334818389043,0
4301,5.809419947348997,0
4302,3.2721258688715293,0
4303,-2.589628749532935,0
4304,1.5981236729037862,0
4305,-0.7245740503157961,0
4306,0.3280447058735982,0
4307,-0.16081314857781442,0
4308,0.07288123797331564,0
4309,0.04058426602286997,0
4310,0.00403889384954691,0
4311,0.057686933165402056,0
4312,0.06105405845925467,0
4313,-0.003630314459718386,0
4314,0.010943133981845224,0
4315,-0.06559443165552119,0
4316,-0.0324914276355579,0
4317,1.655677715497825,0
4318,6.940476501022633,0
4319,-0.4421177555863815,0
4320,-0.8563750101554015,0
4321,0.6433117227760736,0
4322,-0.3022243570918792,0
4323,0.16299013153025002,0
4324,0.03486858451110314,0
4325,0.051081636819908016,0
4326,0.10930271036728537,0
4327,0.08120673971766854,0
4328,0.08548375513633377,0
4329,0.1278237484468314,0
4330,0.10792782042832152,0
4331,0.14472268293475188,0
4332,0.20367410491966506,0
4333,0.351285862051476,0
4334,3.8075320236725556,0
4335,6.208192019121873,0
4336,-2.6980754792787143,0
4337,1.2547013205663349,0
4338,-0.343714289593797,0
4339,0.3247360969522054,0
4340,0.06997065420092363,0
4341,0.026591101995417185,0
4342,0.011666701898267334,0
4343,-0.005628516386932162,0
4344,-0.0929431310176083,0
4345,0.011579766482486908,0
4346,-0.10930874689036517,0
4347,-0.009204995835157964,0
4348,0.0734714929794775,0
4349,-0.034247800576966456,0
4350,0.5545838894364242,0
4351,5.652647556964084,0
4352,3.0282356862843436,0
4353,-2.604670869797344,0
4354,1.5426077211569786,0
4355,-0.7759557287433845,0
4356,0.36382556347030387,0
4357,-0.2141955473419736,0
4358,0.016240574042122907,0
4359,-0.0656988735772109,0
4360,0.01776591338435708,0
4361,0.03390975394755069,0
4362,0.0379513364698609,0
4363,0.03536590092457774,0
4364,0.03281567704420518,0
4365,0.005500071967361214,0
4366,0.059157515567550716,0
4367,1.7504585561071764,0
4368,7.068719357197625,0
4369,-0.5158713015312709,0
4370,-0.6073516016355888,0
4371,0.5380749128009051,0
4372,-0.30950072191179956,0
4373,0.03979681312480085,0
4374,-0.13621821608634,0
4375,0.06889410170390016,0
4376,0.009385556428153594,0
4377,-0.05510829594833401,0
4378,-0.008624039845705561,0
4379,-0.030101802687003812,0
4380,-0.004897297982948915,0
4381,0.11579254061056789,0
4382,-0.016481743205297394,0
4383,0.09327769684028267,0
4384,3.6237709394398325,0
4385,6.093762098034656,0
4386,-2.943953928923929,0
4387,1.1602602237888886,0
4388,-0.5066281930354206,0
4389,0.11325062050377724,0
4390,-0.035260335290727814,0
4391,0.0013774185723154017,0
4392,0.02712115469666121,0
4393,0.04139496264638337,0
4394,-0.07599345162564998,0
4395,-0.04216165603878694,0
4396,-0.03764241988597292,0
4397,0.09669919612353808,0
4398,-0.00474754684550213,0
4399,0.014231108802857308,0
4400,0.5900753437781368,0
4401,5.680063162246979,0
4402,2.9953207875194305,0
4403,-2.5653466260817996,0
4404,1.4697376152198194,0
4405,-0.7396820991666428,0
4406,0.2644763792922376,0
4407,-0.16190970771038626,0
4408,0.06861860222413031,0
4409,-0.045627065300770306,0
4410,0.04293703076548074,0
4411,0.03412565829330756,0
4412,-0.07451189800320673,0
4413,0.09031481452005158,0
4414,-0.024302520429180373,0
4415,-0.07418117989564534,0
4416,-0.008090538364332123,0
4417,1.7810406164724621,0
4418,6.954341621927359,0
4419,-0.5831973329240223,0
4420,-0.828952742170297,0
4421,0.5786984216941815,0
4422,-0.4668225038247734,0
4423,0.09700495063677164,0
4424,-0.03997362457348458,0
4425,-0.02066773434186367,0
4426,-0.02598890602176629,0
4427,-0.008056577892752763,0
4428,-0.02917734856450401,0
4429,0.06821718127571845,0
4430,-0.06452743857017645,0
4431,-0.009293577023608661,0
4432,0.03296959985843124,0
4433,0.1330205755295644,0
4434,3.8356431145035788,0
4435,6.092249192169631,0
4436,-2.8425226974550126,0
4437,1.250763196823454,0
4438,-0.2657183000100235,0
4439,0.1583445294243998,0
4440,-0.08519048884634021,0
4441,0.03480063334525785,0
4442,-0.05348836280987008,0
4443,0.041805955806410486,0
4444,-0.04540028909180503,0
4445,-0.03602592647049124,0
4446,-0.04187791935482452,0
4447,0.016077588874808563,0
4448,0.02731018035627543,0
4449,-0.05858703918011721,0
4450,0.6610906942292901,0
4451,5.718854587323409,0
4452,3.0447668752893566,0
4453,-2.5457267695993817,0
4454,1.5100303177750862,0
4455,-0.7296763388837144,0
4456,0.45360935473459385,0
4457,-0.1950889492866159,0
4458,-0.06841046929514054,0
4459,-0.03721804878295952,0
4460,-0.05502978474552323,0
4461,0.07906472069481965,0
4462,-0.034277458268297256,0
