timestamp,value-0,is_anomaly
0,0.2464105789401842,0
1,3.5380248304340522,0
2,6.908422462511688,0
3,-0.10788441494427072,0
4,-1.8438746192617705,0
5,1.6961789872532937,0
6,-0.710036307757037,0
7,0.22080479958489369,0
8,0.17491502778592666,0
9,0.057032407536973084,0
10,0.01470730303900726,0
11,0.07732929448377733,0
12,0.02440620673765858,0
13,0.10348784047454991,0
14,0.011160349436192846,0
15,0.008330105076875018,0
16,0.07283457904846391,0
17,0.026843605268093367,0
18,0.015876220113536406,0
19,0.08741537211562464,0
20,0.22606602733863942,0
21,3.629897254017697,0
22,6.886167992368386,0
23,-0.241765244711656,0
24,-1.9409878538358982,0
25,1.5869809636341017,0
26,-0.6691902757021492,0
27,0.1214287773192429,0
28,0.10707431867805206,0
29,0.01875227098960687,0
30,0.03460850026092168,0
31,0.1169217444739631,0
32,0.023286694740574113,0
33,0.10520816488773665,0
34,0.06377558119410799,0
35,0.04001880430467245,0
36,0.11833527598925975,0
37,0.12284739526835128,0
38,0.05497547033944854,0
39,0.10757404321100722,0
40,0.3304461540713185,0
41,3.487107084883205,0
42,6.922213057486572,0
43,-0.21955082188233327,0
44,-1.8718977578552525,0
45,1.6271374668390013,0
46,-0.617131426581,0
47,0.1311693475957275,0
48,0.030955960417285704,0
49,-0.05748974486687804,0
50,0.03767733670171525,0
51,0.013294225229603187,0
52,0.12328756527568048,0
53,0.06578842556604451,0
54,0.0709432488844444,0
55,0.021175392012881294,0
56,0.039908242851898104,0
57,0.07298969986899123,0
58,-0.023761060148488874,0
59,-0.011286842229252657,0
60,0.3628024018809596,0
61,3.575011396891799,0
62,6.965393798026783,0
63,-0.20258564202957255,0
64,-2.029396790229794,0
65,1.5080438246042627,0
66,-0.6962942453099713,0
67,0.14795911468889458,0
68,0.022657036575282605,0
69,-0.06633638713651331,0
70,0.03516659101499568,0
71,0.038162237419928094,0
72,0.07194258935829337,0
73,0.061913193207842665,0
74,-0.0025313614508169283,0
75,0.0209406857362549,0
76,0.007344162939002941,0
77,0.05669503457428482,0
78,-0.047927950101602654,0
79,0.019592302788853776,0
80,0.34816734508048525,0
81,3.547605431581564,0
82,6.874237826499733,0
83,-0.19299235201653187,0
84,-1.821685624073181,0
85,1.6195531992119592,0
86,-0.7226743779807443,0
87,0.23423985494923102,0
88,0.11499056244135739,0
89,-0.011104570670215488,0
90,0.13348607682311467,0
91,0.1483014299032448,0
92,0.08363745351153848,0
93,0.08109623606848897,0
94,0.0671901749360811,0
95,0.027488273328207385,0
96,0.04656678287278856,0
97,0.028111889407809815,0
98,-0.001933628491543521,0
99,0.045628836415538936,0
100,0.370872466108467,0
101,3.5911757773911184,0
102,6.960376623717489,0
103,-0.2308556157978375,0
104,-1.9087627397496172,0
105,1.5416695615489764,0
106,-0.5873416979618198,0
107,0.09668485822975346,0
108,0.09078839028398648,0
109,-0.008698780168881395,0
110,0.03700980088948887,0
111,0.000589615764382212,0
112,0.0622013034216455,0
113,0.09516333653222572,0
114,0.07445149407805374,0
115,0.10627523452524712,0
116,0.16695832172577763,0
117,0.11704829446918022,0
118,0.00901879746019122,0
119,0.042271905474098224,0
120,0.29101327627321893,0
121,3.486062971838308,0
122,6.937832827678789,0
123,-0.31796970828953014,0
124,-1.8706143167793754,0
125,1.6003606858534438,0
126,-0.6469763335165192,0
127,0.12789363125261674,0
128,0.14326370960092816,0
129,-0.031189223021537836,0
130,-0.0008117133466375367,0
131,-0.009512375791935541,0
132,0.028041691601912038,0
133,-0.051705089443754244,0
134,-0.019674111278145306,0
135,-0.11181820815378724,0
136,0.03068846015781221,0
137,-0.03339873985567273,0
138,0.023983879511677898,0
139,-0.03860848744576735,0
140,0.1890248806547209,0
141,3.5930351236394347,0
142,6.928763184160678,0
143,-0.28119383915330626,0
144,-1.9006788799848169,0
145,1.5591050854015502,0
146,-0.8031605955146078,0
147,0.15834683804634977,0
148,0.11960701331574529,0
149,-0.11566803370118334,0
150,0.0007074667505118683,0
151,-0.028272507839146026,0
152,0.01598707063642478,0
153,0.07580428597436349,0
154,-0.013333673234716722,0
155,0.047838851163030854,0
156,-0.020553840591652942,0
157,-0.009734796602068848,0
158,-0.01179163152407594,0
159,0.007160140047527488,0
160,0.10125329348076237,0
161,3.5806734608109756,0
162,6.844065463857041,0
163,-0.25768694143633714,0
164,-1.9157816020518386,0
165,1.529800237078448,0
166,-0.8441971103557526,0
167,0.050210151379773,0
168,-0.005403074742572886,0
169,-0.16194725683520939,0
170,-0.1051484779145814,0
171,-0.06842703017968549,0
172,-0.13811992934188527,0
173,-0.078601008569017,0
174,-0.10838509679725622,0
175,0.0008264595930919799,0
176,-0.06529424172670889,0
177,-0.11580426591627713,0
178,-0.1200958109301822,0
179,-0.015650570662605577,0
180,0.16033274106368575,0
181,3.4656721127091643,0
182,6.831885507667734,0
183,-0.37038460161798803,0
184,-1.9337079812751858,0
185,1.5200764129489208,0
186,-0.7146257505384306,0
187,0.033893599540916676,0
188,-0.026071335993883532,0
189,-0.013748738550396308,0
190,0.0034234488804740296,0
191,-0.03039482582222635,0
192,-0.11977808947779914,0
193,-0.002134544938993503,0
194,-0.12089324265145865,0
195,0.03467361220338598,0
196,-0.10642230499250577,0
197,-0.05398335455805645,0
198,-0.07004328898039897,0
199,-0.03206666998066125,0
200,0.255304419089841,0
201,3.4810411245126627,0
202,6.789435135224245,0
203,-0.37252755179343244,0
204,-2.046668998839882,0
205,1.4952016866604225,0
206,-0.9206916818581867,0
207,0.07629083810696516,0
208,-0.10535594068987666,0
209,-0.11902099654914765,0
210,-0.06425378663923736,0
211,0.01407569640004687,0
212,-0.03771898158460221,0
213,-0.028671391943558472,0
214,0.012578734517081164,0
215,0.029518195936061226,0
216,-0.15324929709102048,0
217,-0.11719660711033009,0
218,-0.15484142836340692,0
219,-0.10658661091828317,0
220,0.18916162871383768,0
221,3.523517796385631,0
222,6.79116969117401,0
223,-0.3613068728213244,0
224,-2.003308609563197,0
225,1.4525733436817556,0
226,-0.7530619226759359,0
227,0.04058145534508954,0
228,-0.1285027886104031,0
229,-0.05306075535983909,0
230,-0.15327329695313877,0
231,-0.04652047910907293,0
232,-0.06421851300313357,0
233,-0.14298854671954692,0
234,-0.05612223701269982,0
235,-0.09404469247015822,0
236,0.023533853992228737,0
237,0.007953470745217295,0
238,-0.1521952877589708,0
239,-0.0076430311520596025,0
240,0.31018605429498575,0
241,3.4911666105306653,0
242,6.881308480675289,0
243,-0.3197530562432949,0
244,-1.920548019747769,0
245,1.5969594715333975,0
246,-0.7299434186421861,0
247,0.04439638630288837,0
248,-0.03732149930960213,0
249,-0.07011043487882412,0
250,0.035812254608037844,0
251,-0.04077093282741593,0
252,-0.0160910734518373,0
253,0.007931904037526201,0
254,-0.010294032428650023,0
255,-0.10305226056681752,0
256,-0.07821771134738692,0
257,-0.04271233518298212,0
258,-0.01693990724560366,0
259,-0.03640324944198123,0
260,0.2809110579110101,0
261,3.5056091157691744,0
262,6.799688460865623,0
263,-0.391711685350861,0
264,-1.9054154639979026,0
265,1.5890824213367087,0
266,-0.8256229459446636,0
267,0.1572900289956559,0
268,-0.01444683541008094,0
269,-0.07006919375042206,0
270,0.017051544321972267,0
271,-0.04578610205767463,0
272,-0.04155489837366048,0
273,0.0350373902374633,0
274,-0.027417759812784062,0
275,-0.0850980766292766,0
276,-0.06868320297581856,0
277,0.034967285142636736,0
278,-0.06341609337708212,0
279,0.003152702222175778,0
280,0.2149758435327624,0
281,3.529130768457462,0
282,6.859787399155471,0
283,-0.3270653714164151,0
284,-2.073119889029265,0
285,1.512062661948081,0
286,-0.8745985758472222,0
287,0.05939895280706396,0
288,0.1003115193796551,0
289,-0.23003252985099304,0
290,-0.06824990961829094,0
291,-0.12089472424505229,0
292,0.06167259856415573,0
293,-0.046987960954016625,0
294,-0.09866331501258427,0
295,-0.11583452806392804,0
296,-0.050303679463117985,0
297,-0.07804423180595918,0
298,-0.06846521762082595,0
299,-0.026916234403587022,0
300,0.2661095804294244,0
301,3.5866985163104967,0
302,6.810179618476066,0
303,-0.3672326280254274,0
304,-1.909405509189812,0
305,1.5378027028361356,0
306,-0.8575706676147794,0
307,0.1234339240633148,0
308,-0.059029394235426004,0
309,-0.08136872883040797,0
310,0.06053338453958029,0
311,0.02265875662262913,0
312,-0.07671798868226848,0
313,-0.015766097622337237,0
314,0.009593449599668388,0
315,-0.02578140673392457,0
316,-0.03301591220945546,0
317,0.018761259588190943,0
318,-0.09447849618518395,0
319,-0.012620966829024763,0
320,0.2121662237939193,0
321,3.5424840493974905,0
322,6.892286906448187,0
323,-0.38493927806958317,0
324,-2.004254251372622,0
325,1.5264150497422078,0
326,-0.7352487643591562,0
327,0.10577369080054543,0
328,-0.007405931998380023,0
329,-0.07119515340952183,0
330,-0.10358714270939438,0
331,-0.10088962690543712,0
332,-0.018693730597191344,0
333,0.016258067934261183,0
334,-0.11589467524584067,0
335,0.0254918103339251,0
336,-0.06767854106242352,0
337,-0.09671905680937029,0
338,-0.06729997275305377,0
339,-0.11400300316442283,0
340,0.2524791163844522,0
341,3.4432218594947335,0
342,6.805030373660351,0
343,-0.4269170304020003,0
344,-1.8619859975984105,0
345,1.5494510547016453,0
346,-0.6626359028024472,0
347,0.16740250286937303,0
348,0.041932507481522656,0
349,0.00345301127649799,0
350,0.0378818065101815,0
351,-0.03928239457613258,0
352,-0.028404971455646,0
353,0.0323182650987399,0
354,-0.0030954952074038517,0
355,0.0456780804091605,0
356,0.0055184254316303465,0
357,0.03925503463297536,0
358,0.02955518943714801,0
359,-0.025929996782394497,0
360,0.2122159068199128,0
361,3.5219993849595457,0
362,6.787492949905836,0
363,-0.37455450049858696,0
364,-2.005583172679691,0
365,1.496092989193286,0
366,-0.6535772891924208,0
367,0.09916834543549012,0
368,-0.08722077484212173,0
369,-0.0377539979402621,0
370,-0.008365766589986164,0
371,-0.08656251047901403,0
372,-0.08382226370214563,0
373,-0.05124333515666134,0
374,-0.037947397568259586,0
375,-0.0020857307530333866,0
376,-0.09002721494023125,0
377,0.044004116761673345,0
378,-0.06792973385487208,0
379,-0.08317411844261664,0
380,0.2578851712521848,0
381,3.533128559931796,0
382,6.7875878778071215,0
383,-0.44000146690689246,0
384,-1.9514547193372547,0
385,1.4477117177359322,0
386,-0.7058216534376904,0
387,0.09573529440872153,0
388,-0.012749374133717057,0
389,-0.093128189366631,0
390,-0.014624670513448441,0
391,-0.14448452642499038,0
392,-0.035659414097845156,0
393,0.043949460725976115,0
394,-0.06552014960310362,0
395,-0.05800193923205642,0
396,-0.06854147388350897,0
397,0.007928240194563042,0
398,-0.04961727659194545,0
399,0.010154570846884502,0
400,0.2833938011787626,0
401,3.4733693410925737,0
402,6.770573098900779,0
403,-0.5248068564330887,0
404,-1.9427096463361497,0
405,1.4793208654843644,0
406,-0.864916654246169,0
407,0.04378436395856314,0
408,0.003592303033408547,0
409,-0.034723144282658755,0
410,-0.03973714221621422,0
411,-0.09579742119823151,0
412,-0.030245421639929614,0
413,0.056485768053005814,0
414,-0.03289850770643781,0
415,-0.03931879598561665,0
416,0.02413545603611821,0
417,-0.021062236334766612,0
418,-0.0866810242858684,0
419,-0.022864623723324876,0
420,0.25161373806288395,0
421,3.5462702260806696,0
422,6.771349472384872,0
423,-0.38926813768204044,0
424,-1.985366303139817,0
425,1.556386728661612,0
426,-0.7644745364053771,0
427,0.1790886844370561,0
428,0.018373068964699302,0
429,-0.19474203256792944,0
430,-0.027120028704346856,0
431,-0.043434975212348625,0
432,-0.11141910651621562,0
433,-0.10375755083190538,0
434,-0.06920122099896839,0
435,-0.11075059673783491,0
436,-0.09730596065908134,0
437,-0.10727197259808505,0
438,-0.03276479018267295,0
439,-0.09778607848867307,0
440,0.19921949691112842,0
441,3.5867345196486142,0
442,6.782674408955867,0
443,-0.3010181540290219,0
444,-1.9122919171165123,0
445,1.4566087760194908,0
446,-0.7911008658153283,0
447,0.10929520027065097,0
448,-0.012211270617488352,0
449,-0.13845914458676928,0
450,-0.06282841132775283,0
451,-0.1262659678746586,0
452,-0.0174149327185483,0
453,-0.10154097886213759,0
454,-0.03687603190595733,0
455,-0.05624576103760583,0
456,-0.032743186228166035,0
457,-0.11811443896699189,0
458,-0.03983044852893683,0
459,-0.09679177255471955,0
460,0.2669278754584565,0
461,3.5930875165334006,0
462,6.810277211061838,0
463,-0.4352158550716804,0
464,-2.0105295951250977,0
465,1.5794844112072708,0
466,-0.746259126715814,0
467,0.10709891144266678,0
468,-0.05466979562556343,0
469,-0.04535422711507646,0
470,0.06547655272962226,0
471,-0.010690863376079678,0
472,0.11083986347828761,0
473,-0.08294137995946556,0
474,0.0044244611451283895,0
475,0.018520377326857688,0
476,-0.09544533322473675,0
477,0.00036170655439356214,0
478,-0.0026679015909888,0
479,-0.09048177512822234,0
480,0.23898190406855374,0
481,3.520897153779956,0
482,6.78791263545935,0
483,-0.3925395912072754,0
484,-1.7865568544618078,0
485,1.4849822891462179,0
486,-0.8183734615554878,0
487,0.14007759273672798,0
488,0.015609939839774628,0
489,-0.056776434356212435,0
490,-0.06712802074160266,0
491,0.00024304972625396187,0
492,-0.0541613318658975,0
493,-0.0059517565583309395,0
494,0.015224031987907151,0
495,0.008430777613571964,0
496,-0.04015889458294723,0
497,-0.043112496261753286,0
498,-0.09110480044210068,0
499,-0.09895860548026547,0
500,0.1972168291336184,0
501,3.5176342467670034,0
502,6.787827465233228,0
503,-0.4892611837324111,0
504,-2.0162261789309226,0
505,1.518198279246066,0
506,-0.8534372392682529,0
507,0.09151046778802277,0
508,-0.008480023301993801,0
509,-0.05759251703752381,0
510,0.06502282749734484,0
511,-0.04554083866760787,0
512,-0.0305392870305286,0
513,0.003743728939372043,0
514,0.04191028466617095,0
515,0.05146896714082244,0
516,-0.02297301502405986,0
517,0.020571201213887034,0
518,0.023338361998068796,0
519,0.008619101774803871,0
520,0.2750758830952221,0
521,3.5982664440532233,0
522,6.860042970401846,0
523,-0.3639415820181222,0
524,-1.8156889038139559,0
525,1.5539615489869956,0
526,-0.6023371277685021,0
527,0.1464211983547925,0
528,-0.0422570962382466,0
529,-0.010559629596453755,0
530,0.002715037352636819,0
531,-0.04142599609856855,0
532,-0.05827429515881236,0
533,0.040928668679616025,0
534,0.051148237145141315,0
535,-0.034463956252484156,0
536,0.03810526346562277,0
537,0.014529989930545887,0
538,0.04516575763847646,0
539,-0.07212943900842045,0
540,0.24156777047285743,0
541,3.6282680293855583,0
542,6.807110462257474,0
543,-0.4077227963139526,0
544,-1.8009009992306673,0
545,1.585824088730661,0
546,-0.669670754357143,0
547,-0.025101580482259134,0
548,-0.10874001071499645,0
549,-0.019953486127377032,0
550,0.051457372115317174,0
551,-0.04473680833523543,0
552,0.05444946674702559,0
553,0.03210637214893866,0
554,-0.03051690963336141,0
555,-0.021569955615903746,0
556,-0.027901146815964697,0
557,0.07769158008990028,0
558,0.003074617943910809,0
559,0.026875750663905018,0
560,0.41302164230286675,0
561,3.5595326148973956,0
562,6.806449838478805,0
563,-0.44263460729109205,0
564,-1.84700065787584,0
565,1.5395823610539718,0
566,-0.6921674501306692,0
567,0.13983261822233164,0
568,0.07127492550072294,0
569,-0.01332263992983067,0
570,-0.006498252875711284,0
571,0.031009629608836242,0
572,0.03033580813236148,0
573,-0.0040254285756729236,0
574,0.010303494932516682,0
575,-0.030556794972752807,0
576,0.03238516619000142,0
577,0.011530470313078174,0
578,-0.06047011205146271,0
579,-0.07271631703270132,0
580,0.36431792829872833,0
581,3.5975546513229686,0
582,6.886636021404972,0
583,-0.4216198793925084,0
584,-1.8733415787976146,0
585,1.4557933443882474,0
586,-0.8394107635445658,0
587,0.07988303339387541,0
588,-0.07380372913078806,0
589,-0.09660238301909581,0
590,0.016953715048417264,0
591,-0.05536246300767252,0
592,0.023487489016827734,0
593,-0.11548481685146259,0
594,0.020273427011745337,0
595,-0.041822376973820415,0
596,-0.07112036643121261,0
597,0.038073708727415015,0
598,-0.05700205008105898,0
599,0.024005981583443806,0
600,0.31662571725487076,0
601,3.6729624479659564,0
602,6.898238890458743,0
603,-0.40945112874693396,0
604,-1.9218044646710692,0
605,1.5299345395465216,0
606,-0.77812215929988,0
607,0.17018940610053873,0
608,-0.018755760711427368,0
609,-0.054138520850156364,0
610,-0.03177250494070978,0
611,-0.10290478751546431,0
612,0.043519219808248855,0
613,0.02735762396992577,0
614,0.037334819158021976,0
615,-0.07673345117019095,0
616,-0.021085415693451084,0
617,-0.006964264775922803,0
618,0.02384309458606988,0
619,0.00870246496284836,0
620,0.28659532630993334,0
621,3.6253418481474284,0
622,6.934601672630167,0
623,-0.3781452563905564,0
624,-1.8347892713854657,0
625,1.5908502333467571,0
626,-0.7470094786280769,0
627,0.13823481487679026,0
628,0.05004929598778067,0
629,-0.029928019279754862,0
630,0.02511214715858897,0
631,0.07401362214374432,0
632,0.030173731945465958,0
633,0.0025531595790863684,0
634,0.0005571918536318651,0
635,0.012053319596727806,0
636,0.017821392412488795,0
637,0.02756591557522276,0
638,0.0461139683195253,0
639,0.04393365532518495,0
640,0.28469129292499473,0
641,3.674912225984897,0
642,6.903257180828246,0
643,-0.3495614803128201,0
644,-1.7457647522064172,0
645,1.5289046527326828,0
646,-0.7116962736634993,0
647,0.16466822245967133,0
648,-0.0038250908447527363,0
649,0.024216437819986725,0
650,-0.04294692325938136,0
651,0.03612586783385333,0
652,-0.08670908351364862,0
653,0.02887689643030322,0
654,0.04367511915109053,0
655,0.027080820448636078,0
656,0.03965184340641581,0
657,0.08341029661110402,0
658,0.005860368756212431,0
659,0.05143105833682669,0
660,0.3778566353303163,0
661,3.7234943706749353,0
662,6.924384691550957,0
663,-0.3678006051225047,0
664,-1.7371959816719715,0
665,1.5858332363699006,0
666,-0.6933578623238374,0
667,0.23016756676950686,0
668,0.1240888344860076,0
669,-0.14034342410561523,0
670,0.08167440127160146,0
671,-0.08557095284187696,0
672,0.011946341580783608,0
673,0.08333061673711264,0
674,-0.024655415024899107,0
675,0.05894044837915623,0
676,-0.011178067713936646,0
677,-0.0443466943787293,0
678,0.031930605654339334,0
679,0.061925269596793564,0
680,0.4074258843565322,0
681,3.7245681821419634,0
682,6.9410628724436485,0
683,-0.34994891972293335,0
684,-1.6832919693899264,0
685,1.6144270727344996,0
686,-0.6926971221872678,0
687,0.2512791990164759,0
688,0.1176868953970752,0
689,0.07160177214374555,0
690,0.03781643710812461,0
691,0.01961296954673937,0
692,0.025962814043127898,0
693,0.04281250804983071,0
694,0.14930197725480668,0
695,0.15953684014669572,0
696,0.08729689845958408,0
697,0.12922396276721662,0
698,0.1658617658662726,0
699,0.06006573459671101,0
700,0.43899280949836433,0
701,3.790576616775511,0
702,6.9425029075870786,0
703,-0.3383513012208244,0
704,-1.6179390619952996,0
705,1.575427406165514,0
706,-0.5826252026233267,0
707,0.2430089621301487,0
708,0.18949615073590068,0
709,0.09338191682378609,0
710,0.20879998192971289,0
711,0.10810255797568366,0
712,0.1567565508816144,0
713,0.06314765633201937,0
714,0.08459358959439496,0
715,0.11978138020275514,0
716,0.13029024645154738,0
717,0.11929314025165352,0
718,0.1631429791790141,0
719,0.02706777849076953,0
720,0.3483481149911707,0
721,3.714711628467308,0
722,6.823718997511375,0
723,-0.3416130818197033,0
724,-1.7872994352388798,0
725,1.6467257755996088,0
726,-0.6666428865274509,0
727,0.12813772118380984,0
728,0.025498049964057246,0
729,0.01947256042279423,0
730,0.16812278398182323,0
731,0.002277027656017616,0
732,0.0947777440384431,0
733,0.06732464910557767,0
734,0.03194999781539501,0
735,0.059342613260825045,0
736,0.03739829357120829,0
737,0.036504411986591295,0
738,0.11230409048201015,0
739,0.16141635315178818,0
740,0.4165835639457856,0
741,3.8337745498013933,0
742,6.999100707478172,0
743,-0.2947222278658806,0
744,-1.7495548840346602,0
745,1.627391154831426,0
746,-0.5679888645510401,0
747,0.21132253907400161,0
748,0.10342718187974712,0
749,-0.033505087281584106,0
750,-0.01878644230772039,0
751,0.05939618326246415,0
752,0.03250576563931652,0
753,0.1682836022431571,0
754,0.06050729244548836,0
755,0.09560170619516808,0
756,0.16740988895393816,0
757,0.13185939523356513,0
758,0.03464759395500023,0
759,0.032421966429292605,0
760,0.3828115707858123,0
761,3.7484399209189827,0
762,6.840761320985753,0
763,-0.4107022004728274,0
764,-1.7574265695158893,0
765,1.5426604910478137,0
766,-0.6657237505746726,0
767,0.1416449824145461,0
768,-0.038132428942255325,0
769,-0.029403378237744263,0
770,0.03591259529717612,0
771,-0.025733201056332373,0
772,-0.05325107008743646,0
773,-0.08933368632092062,0
774,0.1341649637309154,0
775,0.02160579730630275,0
776,0.07947821548949678,0
777,0.18260243944143298,0
778,0.018337808548161562,0
779,0.05224677237714006,0
780,0.43462256098554286,0
781,3.7361670622027545,0
782,6.894704072507552,0
783,-0.3711862817154043,0
784,-1.7940873310050396,0
785,1.6180918666827353,0
786,-0.6641109277956916,0
787,0.08347330466749586,0
788,0.1466896080079156,0
789,-0.006483127404052838,0
790,0.0065491249339968,0
791,0.05576322502249773,0
792,0.1354874491895496,0
793,-0.03292377871867394,0
794,0.07674139165543975,0
795,-0.02233445437189908,0
796,-0.029590924297418216,0
797,0.018928568310356532,0
798,0.03923937497956324,0
799,-0.02038582527908857,0
800,0.37212438365235634,0
801,3.644545839814734,0
802,6.877115658669303,0
803,-0.4443611023086875,0
804,-1.8561145194350033,0
805,1.4887361924420934,0
806,-0.7602705963913781,0
807,0.20658053075330274,0
808,-0.04861935003256836,0
809,0.018737200265433643,0
810,-0.02596971497550425,0
811,0.08632596067929732,0
812,-0.043268339976528895,0
813,0.013218607927871237,0
814,-0.02277288483575609,0
815,0.03911778338533777,0
816,-0.018867116901663834,0
817,-0.00304157556070379,0
818,-0.011925752183911066,0
819,-0.01903833664808232,0
820,0.3384847043777215,0
821,3.593503859614842,0
822,6.841114548516627,0
823,-0.4439607404052144,0
824,-1.7940920192982572,0
825,1.5948056805466477,0
826,-0.7621098244208484,0
827,0.18169564728288198,0
828,-0.06458667405426824,0
829,-0.06217046137672187,0
830,0.12374185754792459,0
831,0.10065857536512997,0
832,0.038059581462962705,0
833,0.10104354133397364,0
834,0.04004503964383168,0
835,0.010197281250813595,0
836,0.08264797047263772,0
837,-0.06720930680006992,0
838,-0.0017716860174474443,0
839,0.061261084841799825,0
840,0.35883540692702925,0
841,3.769544237979077,0
842,6.879589215262158,0
843,-0.4057593019658363,0
844,-1.7803690444286269,0
845,1.5747556205037048,0
846,-0.6912946869732368,0
847,0.17577704569890362,0
848,0.11377793461502934,0
849,-0.07294966479625428,0
850,0.10966696874822877,0
851,0.15839238891928709,0
852,0.04665338840792332,0
853,-0.0332568804339471,0
854,0.00790021249104374,0
855,0.034877459863485664,0
856,0.07708570613946837,0
857,0.008601662155447939,0
858,-0.015511951668783271,0
859,0.027427781039516617,0
860,0.27928471663469207,0
861,3.575632849678513,0
862,6.8881828551599185,0
863,-0.48776435435375537,0
864,-1.737334800796825,0
865,1.5800353753432443,0
866,-0.7067131353016081,0
867,0.17751053518656737,0
868,0.038918637865125484,0
869,0.00463082252309471,0
870,0.03549172456659009,0
871,0.016040422570459893,0
872,0.06602431940311032,0
873,-0.04201884313071105,0
874,0.04027284892524663,0
875,0.014088601100942885,0
876,0.06751572668001381,0
877,0.019922441853099757,0
878,0.08138671415193416,0
879,-0.02020913715834552,0
880,0.3707363800398536,0
881,3.6698106674548923,0
882,6.852890878331679,0
883,-0.47364335054362217,0
884,-1.7917056577684463,0
885,1.5122799879541415,0
886,-0.6464919681158338,0
887,0.11175470505063673,0
888,0.07536517791804304,0
889,-0.09119788789363822,0
890,-0.044148447039484395,0
891,-0.021003089530510943,0
892,-0.02184341265370867,0
893,0.02009463223187204,0
894,0.04287377512433056,0
895,-0.022799834400008746,0
896,0.03026833551374121,0
897,0.07264006623270478,0
898,0.0010527227970282618,0
899,-0.04907983638972595,0
900,0.3695357813824348,0
901,3.6303571709042877,0
902,6.848658957300253,0
903,-0.48599885947455357,0
904,-1.7645343140480445,0
905,1.509791727415402,0
906,-0.7569494315543492,0
907,0.21623162336948332,0
908,0.024962060896347647,0
909,-0.07762297463533091,0
910,0.09522630875104096,0
911,-0.06300787060335702,0
912,-0.032764475951946995,0
913,0.05236678208210727,0
914,-0.0825997087803372,0
915,0.020259886491120455,0
916,-0.009991244949690559,0
917,0.09831173180198885,0
918,-0.009005660074690985,0
919,-0.020348371401245846,0
920,0.30179826221686695,0
921,3.6759144072148766,0
922,6.836608774939227,0
923,-0.5140649965724643,0
924,-1.7508622865444026,0
925,1.584746649842411,0
926,-0.7137376010592057,0
927,0.18742242395579461,0
928,-0.13807828442986553,0
929,-0.04375416960287661,0
930,-0.029374493428069665,0
931,0.019042957415485312,0
932,0.01276496709587028,0
933,0.022868684870720413,0
934,-0.054047270154506076,0
935,0.01166756534090749,0
936,0.04260823242902605,0
937,-0.015263725816560582,0
938,0.07327254352719097,0
939,-0.023831085755228958,0
940,0.3292290646005527,0
941,3.760262773948963,0
942,6.836602057807511,0
943,-0.4497142643826937,0
944,-1.765481672498878,0
945,1.522464645117518,0
946,-0.7140649190436847,0
947,0.19299150035441712,0
948,0.04713436749497737,0
949,0.057962263756956386,0
950,0.01460461695318983,0
951,0.0041513140322845124,0
952,0.043999297244820115,0
953,-0.07297200387662395,0
954,0.04500589256248968,0
955,-0.02425877757179893,0
956,0.00485197636543239,0
957,0.02328042055168102,0
958,-0.019667094289851625,0
959,-0.04016669381275425,0
960,0.2174401932494982,0
961,3.6441110928026523,0
962,6.758243745672878,0
963,-0.5534272899005088,0
964,-1.9162893026892396,0
965,1.485948586331581,0
966,-0.6176584468922195,0
967,0.035945558428497726,0
968,0.07569979889549686,0
969,-0.057955228791149206,0
970,-0.012882220261242847,0
971,-0.007867765506731354,0
972,0.007497829516823443,0
973,-0.035990047003122576,0
974,-0.043437540902904324,0
975,0.08843900066196488,0
976,0.07251711704965125,0
977,-0.04076476187507552,0
978,0.05482536349873012,0
979,-0.05221321694997674,0
980,0.27428903912222086,0
981,3.647717338988117,0
982,6.824969787392496,0
983,-0.5270628917695134,0
984,-1.9050840562652016,0
985,1.4754393871036668,0
986,-0.7703518888727688,0
987,0.15156450032552798,0
988,0.08262601581250234,0
989,-0.1062943244784599,0
990,0.02556186135908957,0
991,-0.03876014110884987,0
992,-0.05705135701867303,0
993,0.046902065712674544,0
994,-0.007627910576259331,0
995,-0.0033184372889828147,0
996,-0.02043636440128148,0
997,-0.07551096659905822,0
998,-0.07603619413170261,0
999,-0.07415270242617887,0
1000,0.23032831875895454,0
1001,3.6406582997921335,0
1002,6.784954590170397,0
1003,-0.572787141731897,0
1004,-1.9030659131537206,0
1005,1.3608075384057916,0
1006,-0.7799326296560769,0
1007,0.07540765281591663,0
1008,-0.020645038568135543,0
1009,-0.046872430121583195,0
1010,-0.0003086586827175809,0
1011,-0.18402864558004037,0
1012,-0.05779010570080974,0
1013,-0.01059674575790922,0
1014,0.03344763779216445,0
1015,0.007927783677163206,0
1016,-0.09208506866245238,0
1017,-0.08330452530583618,0
1018,-0.03070424401674766,0
1019,-0.06123301767754632,0
1020,0.2560365239511524,0
1021,3.6493728965156453,0
1022,6.763702280386533,0
1023,-0.5500268373425456,0
1024,-1.846192250781308,0
1025,1.3945583934902712,0
1026,-0.6785925927250724,0
1027,0.1898227662985322,0
1028,0.04051486820638732,0
1029,-0.04012895323397028,0
1030,0.0445313252701644,0
1031,-0.0647011329842918,0
1032,-0.025765945842174842,0
1033,0.009457246572351623,0
1034,-0.06549841123923192,0
1035,0.04364774165937872,0
1036,-0.09655212764042917,0
1037,0.06393048206659521,0
1038,-0.01677999864948828,0
1039,-0.03069672615666366,0
1040,0.30366860184977534,0
1041,3.629695619657296,0
1042,6.831455818696342,0
1043,-0.5034032435435692,0
1044,-1.858256548980054,0
1045,1.4648948816103402,0
1046,-0.7882367525333487,0
1047,0.022576298449479074,0
1048,-0.026356502150959617,0
1049,-0.045866275817675814,0
1050,-0.04552887763842728,0
1051,-0.025492641669332995,0
1052,-0.03808057939178863,0
1053,-0.09246164768517338,0
1054,0.03989755332949553,0
1055,-0.043527803926553955,0
1056,0.006581367802755415,0
1057,0.057925474453678516,0
1058,-0.0992600389757679,0
1059,0.0033206730042360175,0
1060,0.3000556684438775,0
1061,3.6440662140327746,0
1062,6.735222270972087,0
1063,-0.625603945942725,0
1064,-1.7364226927315467,0
1065,1.5775324984286305,0
1066,-0.6769450209225122,0
1067,0.1928006564504715,0
1068,0.08162011120478739,0
1069,-0.04042807372130393,0
1070,0.08868474813438279,0
1071,-0.011741032409760635,0
1072,0.020161090971092,0
1073,0.014295487385399791,0
1074,-0.008450950340680285,0
1075,0.01791884951606415,0
1076,0.025986696852860564,0
1077,0.01531215862341306,0
1078,-0.061153338638349056,0
1079,-0.00043811298715381794,0
1080,0.3008892911070117,0
1081,3.6298979182037074,0
1082,6.757142419108209,0
1083,-0.5154671420668981,0
1084,-1.7923801275413016,0
1085,1.523471709890313,0
1086,-0.7820743046518167,0
1087,0.15466829681754518,0
1088,0.00673914162190601,0
1089,-0.15649297500914094,0
1090,-0.003213508008695496,0
1091,-0.07321475460595135,0
1092,-0.006522230588995898,0
1093,-0.1504519808278368,0
1094,-0.01640202831824405,0
1095,-0.06543236806721292,0
1096,-0.06124674853310868,0
1097,-0.08927074703190926,0
1098,-0.05298141851731197,0
1099,0.017553840148262286,0
1100,0.21692097779925362,0
1101,3.5567024636600264,0
1102,6.767167913874595,0
1103,-0.6097005501657179,0
1104,-1.8379335438572666,0
1105,1.61062968807413,0
1106,-0.7428705558878953,0
1107,0.14860413349005397,0
1108,0.04797301328122129,0
1109,-0.060811901755979496,0
1110,-0.014729033239365284,0
1111,0.0384816118844759,0
1112,0.018804748487362875,0
1113,0.014142002435837908,0
1114,-0.0531757638313226,0
1115,-0.04201926614143808,0
1116,0.005937613803557237,0
1117,-0.060684874084726836,0
1118,-0.01719403979798767,0
1119,-0.033597244435214536,0
1120,0.2609239185973956,0
1121,3.692540691013352,0
1122,6.8448981952476595,0
1123,-0.44871251690169894,0
1124,-1.8366777625177626,0
1125,1.488094980221562,0
1126,-0.6481667827885446,0
1127,0.06001498052264374,0
1128,-0.017248798175684154,0
1129,-0.02788845409221756,0
1130,-0.06013013112682582,0
1131,0.009903170856715333,0
1132,0.0313336087486917,0
1133,-0.06525414149929967,0
1134,-0.07574127738385286,0
1135,-0.06811377420682531,0
1136,-0.06490948948677185,0
1137,0.034714238116765044,0
1138,-0.023906179742049116,0
1139,-0.09333927235940359,0
1140,0.35883814472958175,0
1141,3.7091069209561267,0
1142,6.764940733603572,0
1143,-0.5925326644019857,0
1144,-1.800343969175519,0
1145,1.5525718482189197,0
1146,-0.7554901242050005,0
1147,0.1419030980172902,0
1148,-0.004097528276486335,0
1149,-0.062044725502356034,0
1150,-0.09922079772443182,0
1151,-0.01503482487551128,0
1152,-0.00710589575095247,0
1153,-0.03345460311310557,0
1154,-0.033495397843404606,0
1155,-0.018261178617983088,0
1156,0.07694409582392406,0
1157,0.05912454871292376,0
1158,-0.06164766547144376,0
1159,0.044236132201009026,0
1160,0.35103976305224505,0
1161,3.7401200969362494,0
1162,6.752330285512319,0
1163,-0.6329397103338612,0
1164,-1.800840526133092,0
1165,1.464341358962969,0
1166,-0.7747055128016018,0
1167,0.1372105956639052,0
1168,-0.10038842516398662,0
1169,-0.11118769760683604,0
1170,-0.02726312885957225,0
1171,-0.0915732542023708,0
1172,-0.1828039937135967,0
1173,-0.06361564589581017,0
1174,-0.09495231708753077,0
1175,-0.061431181069488555,0
1176,-0.052422373238329004,0
1177,0.04366066239024588,0
1178,-0.005995371677692266,0
1179,0.005340662604450937,0
1180,0.3593771491327597,0
1181,3.668114693785622,0
1182,6.803053405770357,0
1183,-0.46462186660168225,0
1184,-1.738509468702332,0
1185,1.5029675847453985,0
1186,-0.7408723403033257,0
1187,0.18009525221551176,0
1188,-0.01794522370412662,0
1189,-0.08080729785607613,0
1190,0.053520779862117854,0
1191,0.027685675802213424,0
1192,-0.036027452593739524,0
1193,-0.11308725998342106,0
1194,-0.02605232952795688,0
1195,-0.0065950950413751555,0
1196,0.08720104133142306,0
1197,-0.050884327103893526,0
1198,-0.0961974592309073,0
1199,-0.0012825229608531795,0
1200,0.23600558534442118,0
1201,3.659757790126456,0
1202,6.773780962700146,0
1203,-0.5936148394673617,0
1204,-1.831370272530996,0
1205,1.4845645059912502,0
1206,-0.7929628725792128,0
1207,0.087233027197035,0
1208,-0.07163170422533917,0
1209,-0.1402854553370703,0
1210,-0.00835177249140956,0
1211,-0.07339506043936622,0
1212,-0.1499450979250844,0
1213,-0.014286763745328543,0
1214,-0.13802577099399893,0
1215,-0.16078644920248364,0
1216,-0.15860430756295407,0
1217,-0.045312315755379154,0
1218,-0.10492537641159914,0
1219,-0.1651599236804716,0
1220,0.20505825125562013,0
1221,3.643799830005961,0
1222,6.793819517451687,0
1223,-0.6180299403668718,0
1224,-1.8707355268584716,0
1225,1.478274349127946,0
1226,-0.8408322109054952,0
1227,0.034009732229588516,0
1228,-0.03824818020537676,0
1229,0.02080619848586776,0
1230,0.02742111252342045,0
1231,-0.06422386323391746,0
1232,-0.046168234036596686,0
1233,-0.10158975550959312,0
1234,0.025503889593304838,0
1235,-0.0901491334586488,0
1236,-0.05300473294849662,0
1237,-0.11039499033268715,0
1238,-0.046619668762055116,0
1239,-0.044007983425508136,0
1240,0.287904067438812,0
1241,3.634868617338421,0
1242,6.725792562601662,0
1243,-0.6242738751566389,0
1244,-1.7448840095505367,0
1245,1.471334766911461,0
1246,-0.7992613740242228,0
1247,0.08817110739021332,0
1248,-0.051257905004647594,0
1249,-0.09326418605508968,0
1250,-0.1488589214693251,0
1251,-0.0717567538306009,0
1252,-0.13204515601508637,0
1253,-0.12516971505006563,0
1254,-0.10128732769095332,0
1255,-0.12283171777852081,0
1256,-0.04367449815977927,0
1257,-0.1441293776561539,0
1258,-0.09324747641152842,0
1259,-0.037099282733273925,0
1260,0.2562567935020735,0
1261,3.6551620815069916,0
1262,6.756827273470888,0
1263,-0.5554230768879753,0
1264,-1.783374046361194,0
1265,1.600912952124793,0
1266,-0.7990211326018174,0
1267,0.1791108202393408,0
1268,-0.05017381490027474,0
1269,-0.09481952805489509,0
1270,-0.062023971601825864,0
1271,-0.05482387252835625,0
1272,-0.0158010275238236,0
1273,-0.04832779697974727,0
1274,0.010325508974073978,0
1275,0.032655668761029676,0
1276,-0.0889250477009784,0
1277,0.044265369660747525,0
1278,-0.08067748895075336,0
1279,-0.0868796396806423,0
1280,0.29030112609264025,0
1281,3.6560313622849248,0
1282,6.778200293555722,0
1283,-0.6157894683213445,0
1284,-1.8260172941195651,0
1285,1.533033927327335,0
1286,-0.8081943947764091,0
1287,0.09001398958996902,0
1288,-0.1526675601014708,0
1289,-0.16474326833820824,0
1290,-0.05739370631017126,0
1291,-0.07629456936258353,0
1292,-0.09830500691925816,0
1293,-0.06238964122230937,0
1294,-0.14117657912166603,0
1295,-0.16400834259624938,0
1296,-0.10517607388810324,0
1297,-0.07031744096215709,0
1298,-0.07258353992159863,0
1299,-0.06106585708199792,0
1300,0.22641156219515945,0
1301,3.674054570274049,0
1302,6.765812340267325,0
1303,-0.6280193704806484,0
1304,-1.813840323370579,0
1305,1.474415723520631,0
1306,-0.8330160836384723,0
1307,0.17193002466162335,0
1308,-0.09045227449289198,0
1309,-0.14456941841046123,0
1310,0.01322312033263142,0
1311,-0.06759849749502818,0
1312,-0.02415730190433839,0
1313,0.04276310478275581,0
1314,-0.03411655856526086,0
1315,-0.01971301308521938,0
1316,-0.028849129414377356,0
1317,-0.06590536710675798,0
1318,0.0064387471544513145,0
1319,0.03467979778434131,0
1320,0.3307922559817866,0
1321,3.663715212115401,0
1322,6.663942047865795,0
1323,-0.6441981558838673,0
1324,-1.799848300608506,0
1325,1.4405213044868657,0
1326,-0.8021335690511578,0
1327,0.09150847871035095,0
1328,-0.039934234625036626,0
1329,-0.058985427466991494,0
1330,-0.05864175302410342,0
1331,-0.04755667621705747,0
1332,-0.09479385832359016,0
1333,-0.05170270748974121,0
1334,0.007662588676062759,0
1335,-0.09381602415275438,0
1336,-0.0003242763865052914,0
1337,-0.06523778773974526,0
1338,-0.02477116609961496,0
1339,0.05508126918209815,0
1340,0.2667978764647301,0
1341,3.7473913024686727,0
1342,6.837451235936456,0
1343,-0.6377603261112221,0
1344,-1.6658007633522156,0
1345,1.450758238194918,0
1346,-0.7219862495169321,0
1347,0.215506779011576,0
1348,0.024512548310824424,0
1349,0.0017953388785222103,0
1350,0.05527398967933378,0
1351,0.022172268635630366,0
1352,0.00787465282326489,0
1353,-0.03447662485315725,0
1354,0.012170388042945703,0
1355,-0.003816845410756043,0
1356,-0.07468021312317262,0
1357,0.023786795377753675,0
1358,-0.03975037142268142,0
1359,-0.0931071602667639,0
1360,0.30000641408600637,0
1361,3.67141075689938,0
1362,6.7446037712587525,0
1363,-0.7216513294580403,0
1364,-1.7480060083075548,0
1365,1.4391141155650327,0
1366,-0.6765908183544957,0
1367,0.14105730234278177,0
1368,-0.09960291536523559,0
1369,-0.14333545566267597,0
1370,-0.031051475518438156,0
1371,-0.15934143298233405,0
1372,-0.0009266197278760407,0
1373,-0.06883937722872055,0
1374,0.023512003981383173,0
1375,-0.06715805533632462,0
1376,-0.08065071343360729,0
1377,0.004507786360243363,0
1378,-0.19152306507132094,0
1379,0.027032237929646732,0
1380,0.3724137600204368,0
1381,3.6920408279862866,0
1382,6.8948178907580635,0
1383,-0.6245855389745496,0
1384,-1.7093998086104338,0
1385,1.536045170122944,0
1386,-0.7167631075047907,0
1387,0.10272736865928503,0
1388,0.018597995150641568,0
1389,0.00724644540858211,0
1390,0.02937653265886647,0
1391,0.02826012477184467,0
1392,0.021019697945279973,0
1393,-0.021079265967065327,0
1394,0.06935191600792957,0
1395,-0.02500783026935843,0
1396,0.06882314598851572,0
1397,0.055116520451601654,0
1398,0.03182002148826278,0
1399,-0.0033956543578009257,0
1400,0.36363991758163133,0
1401,3.7719902273441983,0
1402,6.835685965172444,0
1403,-0.6775299497933828,0
1404,-1.6080767007370806,0
1405,1.5608246642870836,0
1406,-0.7159177036085281,0
1407,0.18094580510282163,0
1408,0.014577243332977802,0
1409,0.06442942430929244,0
1410,0.10989283752942673,0
1411,0.016365035929343963,0
1412,-0.028118692914258073,0
1413,0.009179348592578684,0
1414,0.01593939905928491,0
1415,0.026451608049747184,0
1416,0.07585057952685743,0
1417,-0.027461563869331167,0
1418,0.10351194858326347,0
1419,0.018940571292878034,0
1420,0.3135015089069543,0
1421,3.8014936898455916,0
1422,6.777553763671998,0
1423,-0.5395457962235739,0
1424,-1.7957581089018453,0
1425,1.5615840865963517,0
1426,-0.6813325071395631,0
1427,0.09434677600843777,0
1428,-0.015319096247305965,0
1429,0.016892545879526943,0
1430,0.023215105909081456,0
1431,0.01381145355400421,0
1432,0.0448721706170582,0
1433,0.04693976352793737,0
1434,-0.03425498355405173,0
1435,0.03311403197887154,0
1436,-0.04093667793759036,0
1437,0.04938424385265204,0
1438,-0.03184788001733902,0
1439,-0.08501341909037424,0
1440,0.24741937567422487,0
1441,3.668449789053736,0
1442,6.706626499193979,0
1443,-0.6688406034734735,0
1444,-1.760160597386503,0
1445,1.4918163585298507,0
1446,-0.7955921420642257,0
1447,0.13265193582074658,0
1448,-0.1307148887321719,0
1449,-0.0720455939348075,0
1450,0.0224276354669295,0
1451,-0.010034623217416907,0
1452,-0.00566824379486568,0
1453,-0.004831964345839799,0
1454,-0.055041639890019464,0
1455,-0.11490344051741999,0
1456,0.04547071223764293,0
1457,0.025275424310679633,0
1458,-0.055735415777327775,0
1459,-0.04991853492988013,0
1460,0.23442649719250452,0
1461,3.826516334671472,0
1462,6.821546735890552,0
1463,-0.5710840879570575,0
1464,-1.8555269576036084,0
1465,1.5142378321846104,0
1466,-0.6952651994548146,0
1467,0.19673050091687258,0
1468,-0.024923012581784622,0
1469,0.06185209060851875,0
1470,0.114694218486877,0
1471,-0.019316569852165708,0
1472,-0.010797642238155663,0
1473,0.017537328636372782,0
1474,0.01498343508823765,0
1475,-0.035561671419639604,0
1476,-0.07266716826909912,0
1477,-0.1199736952165888,0
1478,-0.1093193825148459,0
1479,0.009430569549016315,0
1480,0.3230636714639654,0
1481,3.7787732168574797,0
1482,6.739183700205966,0
1483,-0.6733166748766646,0
1484,-1.6922874271228843,0
1485,1.5017744260256471,0
1486,-0.762702163936683,0
1487,0.16356336246453487,0
1488,-0.05396050404816007,0
1489,-0.06562912434723676,0
1490,-0.017935488432501364,0
1491,0.09985448647294387,0
1492,-0.0364626756715594,0
1493,0.059177824385210125,0
1494,0.07162577739558353,0
1495,0.017065865079736276,0
1496,0.10400075865258346,0
1497,-0.017080435418102936,0
1498,0.03689020083271999,0
1499,-0.017409820633836594,0
1500,0.3325728912572204,0
1501,3.8143283287964085,0
1502,6.666941492389951,0
1503,-0.6213533178804204,0
1504,-1.6981536622898803,0
1505,1.4795323754139282,0
1506,-0.7345040393063319,0
1507,0.14739332450969206,0
1508,-0.06393881571759073,0
1509,-0.02861346132163988,0
1510,0.10459511180306616,0
1511,0.0505164502924572,0
1512,-0.09152986778744797,0
1513,0.04107107740695119,0
1514,0.011820628346824751,0
1515,-0.15655417728130883,0
1516,-0.04809225463727816,0
1517,-0.04741268123632899,0
1518,-0.010116927988678264,0
1519,0.009780747416719755,0
1520,0.3495981212716819,0
1521,3.672569196608332,0
1522,6.875832421132329,0
1523,-0.6855309516608125,0
1524,-1.6848925923666735,0
1525,1.5105339467325827,0
1526,-0.72836333264871,0
1527,0.13397330494778356,0
1528,0.018221807039588932,0
1529,-0.06849504951239631,0
1530,0.022145077624536366,0
1531,-0.03684583129187866,0
1532,0.051475949931648765,0
1533,0.0885928344224814,0
1534,0.07479934870599673,0
1535,-0.05070673538883552,0
1536,0.017034244055912216,0
1537,-0.03211023917271648,0
1538,-0.00047843088161438757,0
1539,0.08623282652771158,0
1540,0.354348489464912,0
1541,3.751080697108877,0
1542,6.648307559014302,0
1543,-0.6999178927814034,0
1544,-1.6814305619050216,0
1545,1.5028260516192844,0
1546,-0.7115093293481367,0
1547,0.1459393056788192,0
1548,0.1253796996674368,0
1549,0.02781852249292998,0
1550,-0.02710049083802968,0
1551,0.06179962749490122,0
1552,0.09747990146504956,0
1553,0.02719700574908096,0
1554,-0.03455014955526116,0
1555,0.045891635422514045,0
1556,-0.04324510703208895,0
1557,-0.0003773250558879904,0
1558,-0.017482742687320432,0
1559,-0.057134182574851894,0
1560,0.25809407648386656,0
1561,3.7313608529620113,0
1562,6.712491242538411,0
1563,-0.6132895772096003,0
1564,-1.782966231629972,0
1565,1.5314739737044847,0
1566,-0.7707052822556718,0
1567,0.18483886808046954,0
1568,0.007460270257927306,0
1569,-0.06076494969298427,0
1570,0.04997717507257386,0
1571,-0.022181262557069183,0
1572,-0.10852603728653705,0
1573,-0.050128234736104005,0
1574,-0.02500032282001556,0
1575,-0.012464906285397958,0
1576,-0.06264112837503742,0
1577,-0.08739032676576461,0
1578,-0.012440766596617015,0
1579,-0.007834826301917742,0
1580,0.3267944925482759,0
1581,3.766051620537338,0
1582,6.773698674207279,0
1583,-0.6593024897826076,0
1584,-1.6419815263606738,0
1585,1.5234165462629994,0
1586,-0.7504727151800543,0
1587,0.15896037115076633,0
1588,-0.0372328043090404,0
1589,-0.09045991086020075,0
1590,-0.08379596887609712,0
1591,-0.11570226210751815,0
1592,-0.055877900605475456,0
1593,-0.04747938526962668,0
1594,-0.011376833759047984,0
1595,-0.05531086068643795,0
1596,-0.02231752234398546,0
1597,-0.03809676162750504,0
1598,-0.07257737210772172,0
1599,-0.11371246638951235,0
1600,0.2573359485985691,0
1601,3.722992008363835,0
1602,6.7280444091756335,0
1603,-0.6487235065913212,0
1604,-1.7312586247868293,0
1605,1.5302475567350968,0
1606,-0.6839879230984843,0
1607,0.16022516447156132,0
1608,-0.05289278404791582,0
1609,-0.06570905305806683,0
1610,-0.05421881963964232,0
1611,0.014681138403629255,0
1612,-0.03921185456261593,0
1613,-0.06438373836515436,0
1614,-0.05923493215643376,0
1615,0.10523640038235171,0
1616,-0.032288624538674995,0
1617,-0.04638126137899032,0
1618,0.021805378654435797,0
1619,-0.17229954614276818,0
1620,0.2708657465015171,0
1621,3.782831421173111,0
1622,6.776193676099001,0
1623,-0.6209370586521551,0
1624,-1.7112513408576406,0
1625,1.5443953519267088,0
1626,-0.7667053119806266,0
1627,0.10654950948984163,0
1628,-0.11381939149683364,0
1629,0.041197288903786794,0
1630,-0.04564892449995457,0
1631,-0.07418611748875724,0
1632,-0.002637525414614544,0
1633,0.0953504165215973,0
1634,0.022795496626042216,0
1635,-0.015610755432988456,0
1636,-0.07050713434861763,0
1637,-0.006519949584620207,0
1638,-0.00793046022249668,0
1639,0.012291592235864799,0
1640,0.30746135902402444,0
1641,3.845793557361023,0
1642,6.700498234681531,0
1643,-0.665636834572254,0
1644,-1.7188780480598793,0
1645,1.5167452912310322,0
1646,-0.6849687942724713,0
1647,0.18541381697664017,0
1648,0.008900958266204628,0
1649,-0.04838388221833398,0
1650,0.034240649259514325,0
1651,-0.022614605553407996,0
1652,-0.027508127987300485,0
1653,0.05805547660130947,0
1654,0.018299970564985942,0
1655,-0.026604481987461,0
1656,-0.08985238035605425,0
1657,0.04455611813944466,0
1658,0.052245432940789205,0
1659,0.06755582764605036,0
1660,0.310911462181155,0
1661,3.72098226231167,0
1662,6.781099658985232,0
1663,-0.6727170727053187,0
1664,-1.7538258363169354,0
1665,1.440251863925271,0
1666,-0.7204069791756467,0
1667,0.12342894949520726,0
1668,0.04967772210168106,0
1669,-0.08143027403496259,0
1670,0.015553080294918722,0
1671,-0.0018652536606810798,0
1672,-0.025911857564868246,0
1673,0.05709887070737038,0
1674,0.026843927575072743,0
1675,0.1791051937843072,0
1676,-0.026218709953761556,0
1677,-0.007260312422814018,0
1678,0.0457469086690784,0
1679,0.0755904747942107,0
1680,0.3836671345351968,0
1681,3.84774688527276,0
1682,6.927807959852087,0
1683,-0.6088327817169832,0
1684,-1.607948537450381,0
1685,1.5905222073601086,0
1686,-0.643277572946126,0
1687,0.27452551749437054,0
1688,0.09528659466600364,0
1689,-0.06997230583905743,0
1690,0.12315138820394861,0
1691,0.06171534888496941,0
1692,0.09947089571218605,0
1693,0.019077313666164372,0
1694,0.007266788292841969,0
1695,-0.053590893146619675,0
1696,-0.02564627528905557,0
1697,0.031023507097279718,0
1698,-0.0504028839554201,0
1699,-0.04179019939828185,0
1700,0.3061752945157372,0
1701,3.851539062286718,0
1702,6.660789380788438,0
1703,-0.7417456910192213,0
1704,-1.7224172040024515,0
1705,1.3945260831437836,0
1706,-0.768317842301305,0
1707,0.2799156572323643,0
1708,0.15832131996859017,0
1709,-0.05220229612756703,0
1710,0.03564650139709293,0
1711,0.04722032882287398,0
1712,0.02589896185295871,0
1713,0.14956150671938484,0
1714,0.10260998155816058,0
1715,0.13246688605716306,0
1716,0.07888684574771987,0
1717,0.01621358333937394,0
1718,-0.041233633749124414,0
1719,0.05447150619528565,0
1720,0.25654913156376746,0
1721,3.8442360510848235,0
1722,6.804692167122002,0
1723,-0.7534805314513443,0
1724,-1.622361478119978,0
1725,1.514894341920834,0
1726,-0.7148667269734842,0
1727,0.20896447150436984,0
1728,-0.004872225552853118,0
1729,0.008906584250680569,0
1730,0.00270471933951936,0
1731,0.04736818057004247,0
1732,-0.01356119080565367,0
1733,-0.018066305654592177,0
1734,-0.10292110653263886,0
1735,-0.05131904074053076,0
1736,0.016449122889269682,0
1737,-0.04798125751064938,0
1738,0.03775359905885722,0
1739,-0.05023021697845198,0
1740,0.4163235114916656,0
1741,3.8318655579516046,0
1742,6.741135686837374,0
1743,-0.7555466781666171,0
1744,-1.6570681297337655,0
1745,1.503071523961543,0
1746,-0.7510424441619773,0
1747,0.19622724910410974,0
1748,-0.01803005427950876,0
1749,-0.10100249563690812,0
1750,0.038645529179604045,0
1751,-0.06390786072031589,0
1752,-0.03735854678722496,0
1753,-0.023560861647534483,0
1754,-0.1287613506762659,0
1755,0.017589532220915177,0
1756,-0.003381846684327963,0
1757,-0.06571572815828089,0
1758,-0.016224218676407352,0
1759,0.006044400828962418,0
1760,0.39160498673106214,0
1761,3.7601407175153945,0
1762,6.700497378558085,0
1763,-0.7114368841407982,0
1764,-1.685788742646309,0
1765,1.4786953550277182,0
1766,-0.6966363390294134,0
1767,0.13590463909370715,0
1768,0.05050749505058977,0
1769,-0.0041516624023175824,0
1770,0.0033134480170817823,0
1771,0.03174676412200442,0
1772,-0.02229545675358844,0
1773,-0.08173307625540535,0
1774,-0.0670538516935022,0
1775,0.05979849612760552,0
1776,-0.005400312227625022,0
1777,-0.0965397209665268,0
1778,0.07995292554605177,0
1779,-0.01309620299818075,0
1780,0.27470612330535477,1
1781,2.1065439681597993,1
1782,3.955433951312498,1
1783,5.494649607059551,1
1784,5.9871432567859015,1
1785,2.027344384797732,1
1786,-0.8928625864721415,1
1787,-1.4469635766516695,1
1788,-1.018010777486296,1
1789,0.6309736573052986,1
1790,0.9061005572705442,1
1791,-0.3398464328389683,1
1792,-0.45345007056283965,1
1793,0.036537604254064125,1
1794,0.16544682388648185,1
1795,0.0688503534280333,1
1796,-0.07106903966456529,1
1797,0.008406801522351029,1
1798,-0.10203952834427163,1
1799,0.04294474586288069,1
1800,0.012704342394907975,1
1801,0.06873939308576824,1
1802,-0.03356832160396271,1
1803,-0.04418480134743112,1
1804,-0.172773932573913,1
1805,-0.0708796474814985,1
1806,-0.021620061962299427,1
1807,0.06971529708471565,1
1808,-0.0469081491693915,1
1809,0.06500214693672174,1
1810,0.31594661836758764,1
1811,3.7705688354147586,1
1812,6.667417761356551,1
1813,-0.8013460730315859,1
1814,-1.7000172068253776,1
1815,1.45435131633776,1
1816,-0.8121190522692919,1
1817,0.07155725819226336,1
1818,0.026479610705791544,1
1819,-0.22103251538685031,1
1820,-0.051121762052483,1
1821,-0.13063310341296525,1
1822,-0.13314346234423244,1
1823,-0.0841627499469019,1
1824,-0.1253212548430374,1
1825,-0.13355499483705197,1
1826,-0.1406149258193983,1
1827,-0.18723115200757207,1
1828,-0.18851977040032847,1
1829,-0.163859735350493,1
1830,0.2553930929694844,1
1831,3.6509893110618696,1
1832,6.548359880567003,1
1833,-0.9058270658987931,1
1834,-1.7533993331966515,1
1835,1.294997859800362,1
1836,-0.914515331033502,1
1837,0.10382548793114968,1
1838,-0.04793370333721979,1
1839,-0.027305068027715068,1
1840,-0.100902321938905,1
1841,-0.09518125304367697,1
1842,-0.001650792690003195,1
1843,0.01859690409586378,1
1844,-0.08615270853346459,1
1845,-0.0037515180329143714,1
1846,-0.08168279926716096,1
1847,0.032747119081216434,1
1848,-0.00980606553671675,1
1849,-0.07526440239150742,1
1850,0.32984489011894075,1
1851,3.7946044528222163,1
1852,6.687001957392352,1
1853,-0.7798497847499006,1
1854,-1.6432619665823422,1
1855,1.4155552209576832,1
1856,-0.8153963440780745,1
1857,0.17412950119838044,1
1858,-0.012888606122065946,1
1859,-0.11642284931909302,1
1860,-0.02768166693715317,1
1861,0.032966725646524114,1
1862,0.003936798763899004,1
1863,0.004902512956461499,1
1864,0.042506933920031215,1
1865,-0.07344092051926168,1
1866,-0.06751545316654917,1
1867,-0.04332250240634225,1
1868,-0.007318964563723638,1
1869,-0.038769184382690114,1
1870,0.25741266663827944,1
1871,3.867894025244227,1
1872,6.64893029867197,1
1873,-0.800591497041752,1
1874,-1.6371742987579903,1
1875,1.4489327068610809,1
1876,-0.7804182742877414,1
1877,0.1499390356659565,1
1878,-0.00897845326414947,1
1879,0.05536733792701641,1
1880,0.27801591886334365,0
1881,3.8774360701296238,0
1882,6.781853412511536,0
1883,-0.8262938927279261,0
1884,-1.6100678069738767,0
1885,1.4724012294308684,0
1886,-0.8037597413043447,0
1887,0.16871002804599444,0
1888,0.06174429791687444,0
1889,-0.06361709206946353,0
1890,-0.04387348567170157,0
1891,-0.08224802080016627,0
1892,-0.02831705340778437,0
1893,0.008389861951359372,0
1894,0.027797251039384456,0
1895,0.0008455190270025715,0
1896,-0.0196534319360621,0
1897,-0.03210560671204096,0
1898,-0.0379447854466265,0
1899,-0.02708275466242989,0
1900,0.3176642540667506,0
1901,3.851877160640016,0
1902,6.79305578179283,0
1903,-0.7853161286193105,0
1904,-1.6797335550325991,0
1905,1.5767784902907878,0
1906,-0.8832800632510412,0
1907,0.3006575943255556,0
1908,0.07602668244166913,0
1909,-0.0369660072277415,0
1910,0.0949907966319305,0
1911,-0.027377316012814804,0
1912,0.02558653722279838,0
1913,-0.04500215962243999,0
1914,0.048115839949033457,0
1915,-0.09755435071839182,0
1916,0.1617899483028042,0
1917,0.032262703424851234,0
1918,-0.05695125028351804,0
1919,0.07605315134158981,0
1920,0.3728238618880725,0
1921,4.0383630746119294,0
1922,6.755011352118952,0
1923,-0.7070550838242247,0
1924,-1.6025905855190496,0
1925,1.4500126783827507,0
1926,-0.8746862925534886,0
1927,0.1617012356385255,0
1928,-0.07439082278604718,0
1929,-0.01454812365448533,0
1930,0.03386055132480798,0
1931,0.07996810596174601,0
1932,-0.08039030933636422,0
1933,0.024670222624474308,0
1934,-0.008443203497674714,0
1935,0.04416936292726054,0
1936,0.0021869886653242262,0
1937,-0.021873247958222913,0
1938,0.07440213717729029,0
1939,-0.02149611484783645,0
1940,0.3479060636582773,0
1941,3.836305785186887,0
1942,6.70772653980954,0
1943,-0.8536891502093776,0
1944,-1.593097433600031,0
1945,1.4558645075306138,0
1946,-0.7060944577897145,0
1947,0.23321983180623163,0
1948,0.04843433981630671,0
1949,-0.003695503899741312,0
1950,0.04118440972342939,0
1951,0.050598957983428484,0
1952,-0.0002507400839055528,0
1953,-0.019469728835289808,0
1954,-0.04469387508624276,0
1955,-0.030678933650677493,0
1956,-0.053888243004679016,0
1957,-0.001246735340967007,0
1958,-0.05843756634846152,0
1959,0.024924110477845925,0
1960,0.3753371625639686,0
1961,3.92859509480881,0
1962,6.689732742078,0
1963,-0.729068209420431,0
1964,-1.6542423480362636,0
1965,1.4785230791633555,0
1966,-0.743640848320855,0
1967,0.16581525951248793,0
1968,-0.05343881591393317,0
1969,-0.06700525351323418,0
1970,-0.010625204891153185,0
1971,0.05986661903309581,0
1972,-0.05740876945286812,0
1973,0.007984627215166455,0
1974,0.12051316203380397,0
1975,0.13480149701249827,0
1976,-0.04131669715256575,0
1977,-0.0029083218772571195,0
1978,0.11754455423504037,0
1979,0.03679391004053864,0
1980,0.3257139434198689,0
1981,4.073382533057569,0
1982,6.77571091142581,0
1983,-0.6583406144348016,0
1984,-1.6640643411175235,0
1985,1.604915578574492,0
1986,-0.7438368393955013,0
1987,0.21948547433233995,0
1988,-0.007042775944835551,0
1989,0.008517743064392097,0
1990,0.004583653474607499,0
1991,0.0981952348784667,0
1992,-0.09504645603162179,0
1993,-0.028347955524066475,0
1994,0.0033981082104978366,0
1995,-0.006390540575704459,0
1996,-0.06564933370777229,0
1997,-0.06630023636168292,0
1998,0.005580232660974599,0
1999,-0.05144703990490494,0
2000,0.3337888632610079,0
2001,3.78505564596351,0
2002,6.7241517338526435,0
2003,-0.785393268422911,0
2004,-1.6527975956662853,0
2005,1.4187367241932325,0
2006,-0.7190052293951036,0
2007,0.21242797379092704,0
2008,0.03459672089599822,0
2009,-0.0168783767154764,0
2010,0.0003679769642844985,0
2011,0.0196149741281506,0
2012,0.14669469284323644,0
2013,0.037651747324336585,0
2014,-0.007893711038063588,0
2015,0.034500565278302135,0
2016,-0.015086982144148284,0
2017,0.08313804223277191,0
2018,0.0036932063240568466,0
2019,0.07845444896905249,0
2020,0.38284386182101443,0
2021,3.922463085011163,0
2022,6.799032690235952,0
2023,-0.8265552900437594,0
2024,-1.6981499508214377,0
2025,1.5548346781132933,0
2026,-0.7204166529441782,0
2027,0.1860158802401081,0
2028,0.07161466640081998,0
2029,0.028232986107231895,0
2030,-0.016156620591920946,0
2031,0.03798346641562999,0
2032,0.07867917487589929,0
2033,0.0032328228611539483,0
2034,0.04123599024131322,0
2035,-0.003841014148653777,0
2036,-0.017030612504836517,0
2037,-0.015906340610518516,0
2038,0.07573643382957664,0
2039,-0.11078444472608108,0
2040,0.3153891064128755,0
2041,3.8268039519198234,0
2042,6.7023565105969505,0
2043,-0.7952792543808505,0
2044,-1.66221260185129,0
2045,1.5036679480204689,0
2046,-0.6981485062347957,0
2047,0.1616322774369185,0
2048,0.05194915383475193,0
2049,-0.09284885433239798,0
2050,0.032548418320504605,0
2051,-0.06299773235501638,0
2052,0.03055643043436355,0
2053,0.031036239053558186,0
2054,-0.05601827612022065,0
2055,0.0421067354123372,0
2056,0.05825173479291153,0
2057,-0.03180725702842159,0
2058,-0.010459725818331298,0
2059,-0.05584690261279548,0
2060,0.3597880446928309,0
2061,3.7740904580530383,0
2062,6.71003370492349,0
2063,-0.8444842857160346,0
2064,-1.573395934895685,0
2065,1.447557466888423,0
2066,-0.8047891143854389,0
2067,0.23681359880817138,0
2068,-0.06450917007550686,0
2069,-0.06549696096578135,0
2070,0.03196479531045887,0
2071,0.054835634205954394,0
2072,0.09863905218682731,0
2073,0.06127350914524416,0
2074,-0.02246776435512542,0
2075,-0.007306159273609069,0
2076,-0.08901645950942393,0
2077,-0.005473308849124103,0
2078,-0.04323741439899121,0
2079,-0.032675380212788194,0
2080,0.3452505135943629,0
2081,3.9153853479025282,0
2082,6.664265476346787,0
2083,-0.8389292490337581,0
2084,-1.6790849212992376,0
2085,1.5021161564697345,0
2086,-0.6972417298833202,0
2087,0.19440778750458187,0
2088,0.05083722548706657,0
2089,-0.05242103664057343,0
2090,0.0345322762833131,0
2091,-0.07626373826164637,0
2092,0.07141727469737497,0
2093,0.03266004420852099,0
2094,-0.07303699006851067,0
2095,-0.001910729146426142,0
2096,-0.018336644763048117,0
2097,0.02543385464468823,0
2098,0.01694534265906262,0
2099,-0.00480805421903896,0
2100,0.2618302194073199,0
2101,3.890510637102381,0
2102,6.6759967565967715,0
2103,-0.900692715195236,0
2104,-1.6625910974655065,0
2105,1.4041974277687472,0
2106,-0.7988087222869324,0
2107,0.13222340435018953,0
2108,0.006560766783794607,0
2109,-0.08850800047406276,0
2110,0.0649910713906309,0
2111,-0.012704619404875585,0
2112,-0.024044179969252295,0
2113,-0.02025073323455662,0
2114,0.033994743354612764,0
2115,0.015440476724294497,0
2116,-0.04600676523629754,0
2117,-0.05695644173649229,0
2118,-0.0741221244954588,0
2119,-0.04859379729099668,0
2120,0.33686300597168783,0
2121,3.817580970136749,0
2122,6.659678041775851,0
2123,-0.8620338943754614,0
2124,-1.6770705929847534,0
2125,1.3757773731254637,0
2126,-0.7440019556486394,0
2127,0.14255453271763502,0
2128,-0.009454506428501548,0
2129,-0.024332279736859516,0
2130,0.018115690587368005,0
2131,-0.03621236457714092,0
2132,-0.13867597555224465,0
2133,-0.07478547151823431,0
2134,-0.08492909710188368,0
2135,-0.05379926608464847,0
2136,-0.02578642232975925,0
2137,-0.07980938988742624,0
2138,-0.023329810081899854,0
2139,-0.09354324046972173,0
2140,0.3127080823454813,0
2141,3.775247776411419,0
2142,6.665202913937961,0
2143,-0.9291230887090836,0
2144,-1.6290364229166603,0
2145,1.3903914122275738,0
2146,-0.8408792978611411,0
2147,0.06890270459853462,0
2148,-0.1260667848582386,0
2149,-0.15394976588489306,0
2150,0.01520280627060731,0
2151,-0.11673936255243046,0
2152,-0.05340870243327025,0
2153,-0.011147647274231688,0
2154,0.031760370241155605,0
2155,0.014532642763000335,0
2156,0.021302231100400665,0
2157,0.0439842990242811,0
2158,-0.029794553294034437,0
2159,-0.03807680034606338,0
2160,0.3177745912659685,0
2161,3.857633344430869,0
2162,6.657661493111426,0
2163,-0.7567082308425105,0
2164,-1.613987244661813,0
2165,1.5235173557809794,0
2166,-0.7592423415208505,0
2167,0.17359007649867625,0
2168,-0.16308217999815777,0
2169,-0.015128878164938409,0
2170,-0.06957552599168686,0
2171,-0.017323352048482833,0
2172,-0.008945556405189833,0
2173,-0.06981975469071555,0
2174,0.024676509470994847,0
2175,0.0371832957880856,0
2176,-0.03785063316983167,0
2177,-0.08554515069503679,0
2178,-0.10369219617614321,0
2179,0.029508246286586437,0
2180,0.3335955453707993,0
2181,3.859714235750988,0
2182,6.626176299366425,0
2183,-0.910872290683379,0
2184,-1.6209126813008674,0
2185,1.5085261131735075,0
2186,-0.8553237159744149,0
2187,0.2366334707704275,0
2188,-0.014064279194899498,0
2189,-0.1089160483324648,0
2190,-0.05612067523888176,0
2191,-0.048059906474510056,0
2192,-0.05733463081085497,0
2193,-0.043896923021022105,0
2194,0.009511474972893091,0
2195,-0.046100883712842974,0
2196,0.02356747937797014,0
2197,0.06235011288100328,0
2198,0.037289787258325546,0
2199,0.01614035214935135,0
2200,0.35562075984284375,0
2201,3.8107093364661564,0
2202,6.704064182430607,0
2203,-0.8921065700711891,0
2204,-1.5558941000355402,0
2205,1.3658409214291303,0
2206,-0.8012532775268429,0
2207,0.19408848530796347,0
2208,0.020170331081872148,0
2209,-0.11684250481901212,0
2210,-0.07020167923197079,0
2211,-0.015615849100844077,0
2212,-0.01894951558943076,0
2213,0.006511626533095484,0
2214,-0.1132123653933398,0
2215,-0.019836746789160913,0
2216,-0.061754018388347834,0
2217,-0.09933668553335831,0
2218,-0.11845935542437838,0
2219,-0.040817515279552075,0
2220,0.23993995719077435,0
2221,3.857287084084358,0
2222,6.749653346007445,0
2223,-0.8187733836876293,0
2224,-1.5527394835471782,0
2225,1.4546300412753952,0
2226,-0.7484990348440506,0
2227,0.18531555080102174,0
2228,0.021184411628207448,0
2229,-0.05142291245914655,0
2230,0.02501903467005647,0
2231,0.05665481805852152,0
2232,0.050233447992287766,0
2233,-0.0637747203253026,0
2234,-0.0011986410241125438,0
2235,0.034833476543094294,0
2236,0.045094468612621945,0
2237,-0.07279220615071026,0
2238,-0.0005804457308623001,0
2239,-0.07838245521627346,0
2240,0.3695811535576088,0
2241,3.8333948206728907,0
2242,6.660719632810327,0
2243,-0.9907541570586573,0
2244,-1.5277248731328152,0
2245,1.434497435557263,0
2246,-0.8793820934861978,0
2247,0.18866633200890584,0
2248,-0.03013736422463208,0
2249,-0.030288811556365435,0
2250,0.031071441426585883,0
2251,-0.04594225689685253,0
2252,-0.03468773710444984,0
2253,0.008913185892752331,0
2254,0.03908681230943864,0
2255,-0.07343527731986009,0
2256,-0.002589685709253199,0
2257,0.04035092272103591,0
2258,-0.0637593558355458,0
2259,0.05113094657739879,0
2260,0.42162052100520436,0
2261,3.947174520259945,0
2262,6.702278817743043,0
2263,-0.8500659329465685,0
2264,-1.5807636645749112,0
2265,1.3393021545822246,0
2266,-0.6919505259171124,0
2267,0.19669220567163806,0
2268,-0.07403670645743292,0
2269,-0.13539672830621913,0
2270,-0.041536134364488234,0
2271,-0.02839317892561852,0
2272,-0.05852930348227269,0
2273,-0.11090247479299334,0
2274,-0.07040758274678777,0
2275,-0.03927957537390822,0
2276,0.03686076132060391,0
2277,-0.029964039620406717,0
2278,0.01704587226252946,0
2279,-0.002327577079605304,0
2280,0.3500738348383045,0
2281,4.047355482615894,0
2282,6.617115827199497,0
2283,-0.8901434312656947,0
2284,-1.5771531808464652,0
2285,1.4573503777404406,0
2286,-0.7872386045820483,0
2287,0.18196881665793524,0
2288,0.013859256468451757,0
2289,-0.0341020853264292,0
2290,-0.04294621983182473,0
2291,-0.032347936000278736,0
2292,-0.012681983708843684,0
2293,0.049445782995051334,0
2294,-0.07714856662045148,0
2295,-0.03247135183603064,0
2296,0.16257925383712793,0
2297,-0.004759225041800106,0
2298,0.024116826383430223,0
2299,0.07727998263315232,0
2300,0.34472050009855265,0
2301,3.9387733164343977,0
2302,6.743452773408433,0
2303,-0.8627032767377179,0
2304,-1.5302481305223583,0
2305,1.5181990928768383,0
2306,-0.7929443345313053,0
2307,0.2102870903968531,0
2308,-0.09106960908824241,0
2309,-0.10096803167319757,0
2310,0.1063387264586461,0
2311,-0.027944346489894998,0
2312,0.023094156712370365,0
2313,-0.07415971282242101,0
2314,-0.21829192028777689,0
2315,-0.06064024692399628,0
2316,-0.08060067585012817,0
2317,-0.12800592465747618,0
2318,-0.06410263718510184,0
2319,-0.021363557999778154,0
2320,0.2855989044573479,0
2321,3.8676374969962897,0
2322,6.660934386068167,0
2323,-0.968664512160973,0
2324,-1.7425796337262074,0
2325,1.3930593734330716,0
2326,-0.8297607645173407,0
2327,0.2611220671563793,0
2328,-0.06153736344414798,0
2329,-0.08029318048879308,0
2330,-0.05153534488511734,0
2331,-0.08212548037240636,0
2332,5.9566951526927175e-05,0
2333,-0.0009572886756721924,0
2334,-0.04131679047310302,0
2335,0.008933967087020362,0
2336,0.021818184522116008,0
2337,0.035076102604024356,0
2338,-0.036978771137298395,0
2339,0.04951076673186716,0
2340,0.3510620940150214,0
2341,3.852609038921887,0
2342,6.695705968394107,0
2343,-0.8807024613260808,0
2344,-1.5940023384101614,0
2345,1.473632699109751,0
2346,-0.6915278250121649,0
2347,0.21901967412125514,0
2348,-0.09930945198897859,0
2349,-0.1065117790522488,0
2350,-0.009412614618091543,0
2351,0.04662315831474229,0
2352,-0.034178697296812555,0
2353,-0.022289961826545798,0
2354,-0.000377169559848978,0
2355,-0.01564688805543122,0
2356,-0.03754073186773288,0
2357,0.041968629864510956,0
2358,0.030567768671693283,0
2359,0.03190568908154727,0
2360,0.3928333116264172,0
2361,3.9787368551348674,0
2362,6.7336868275823845,0
2363,-0.9255195931080918,0
2364,-1.553140563740532,0
2365,1.5047987039149346,0
2366,-0.6772827789961403,0
2367,0.21579902950384855,0
2368,0.1039407623675336,0
2369,-0.029544008703583965,0
2370,-0.037544462798572556,0
2371,-0.09031157422623516,0
2372,0.027552644143790307,0
2373,-0.014241844946951313,0
2374,-0.01093587872154388,0
2375,-0.03466176085805862,0
2376,-0.08092174734382042,0
2377,-0.050018335284617285,0
2378,-0.034392681181574694,0
2379,-0.0696399203549529,0
2380,0.3275238155459178,0
2381,3.817214627005205,0
2382,6.677221459187391,0
2383,-0.9375157508929366,0
2384,-1.5998049783213,0
2385,1.3658010501916844,0
2386,-0.8645514539567827,0
2387,0.0798249843874979,0
2388,0.03930655560077262,0
2389,-0.02883129312104153,0
2390,0.03503529128060642,0
2391,-0.0665314602939459,0
2392,-0.003097547527086384,0
2393,0.02704321795165585,0
2394,-0.07848553037325123,0
2395,0.06252206467359543,0
2396,-0.04224769744008759,0
2397,0.028665688394884415,0
2398,-0.06992756856697167,0
2399,-0.07927065757679212,0
2400,0.287229325268346,0
2401,3.9089156629642625,0
2402,6.613005025475133,0
2403,-0.9968283543646844,0
2404,-1.521799037811453,0
2405,1.4360164537268054,0
2406,-0.8510525608518804,0
2407,0.25618930576655646,0
2408,-0.044630988504696684,0
2409,0.01635641806340335,0
2410,0.024360581376329904,0
2411,-0.0171034910009114,0
2412,0.06332775170358344,0
2413,0.050120840022331595,0
2414,-0.014776306992181616,0
2415,-0.03993871234688652,0
2416,-0.02083150234314355,0
2417,-0.05649546982910024,0
2418,0.0032392073918540917,0
2419,0.05969271324427604,0
2420,0.3180581614318672,0
2421,3.871520696928965,0
2422,6.693081670242758,0
2423,-0.8883745825161463,0
2424,-1.6151895776367162,0
2425,1.32909320989423,0
2426,-0.7209061887611823,0
2427,0.1279558433604323,0
2428,-0.07045989341819626,0
2429,-0.11848682182995285,0
2430,0.026669902846566753,0
2431,0.05128997879863152,0
2432,-0.04511708978828731,0
2433,-0.06400523730769986,0
2434,-0.0025403817930078135,0
2435,0.00373335250560523,0
2436,-0.04054240832232975,0
2437,0.05047441830939838,0
2438,0.061610897471151185,0
2439,-0.04542402022341928,0
2440,0.39013237622090147,0
2441,4.0042290777793745,0
2442,6.6725591180730985,0
2443,-0.9262724898751977,0
2444,-1.5754571772575672,0
2445,1.4989253909094136,0
2446,-0.730548674961568,0
2447,0.13955580206127233,0
2448,0.017593875829481458,0
2449,-0.06929217355417254,0
2450,-0.03660825956842079,0
2451,0.03441177307690857,0
2452,0.057653628257498354,0
2453,0.016268079391914027,0
2454,-0.00559803841145713,0
2455,-0.011390048806301794,0
2456,-0.07348260165539022,0
2457,-0.011340004490302157,0
2458,0.016402076230797695,0
2459,-0.019800427469382435,0
2460,0.3167756036389335,0
2461,3.9265684467238087,0
2462,6.61721128404753,0
2463,-0.9758760622805885,0
2464,-1.6416011846560006,0
2465,1.4701806630173564,0
2466,-0.7812981672879523,0
2467,0.08498845579972644,0
2468,-0.1178361404721216,0
2469,-0.0059882509490263025,0
2470,-0.033045625802998246,0
2471,-0.046905973057474244,0
2472,-0.06801223438864068,0
2473,-0.0446263954891788,0
2474,-0.020330589853995714,0
2475,0.021900258663670485,0
2476,-0.07016560640065517,0
2477,-0.08659680761370837,0
2478,-0.004606160342933872,0
2479,-0.04634772237079618,0
2480,0.35628236494070775,0
2481,3.9734175180053284,0
2482,6.64754277403336,0
2483,-0.9701474081731849,0
2484,-1.5524662188548948,0
2485,1.4012362293387404,0
2486,-0.7873115930464002,0
2487,0.1235147946382808,0
2488,0.12424585391340698,0
2489,-0.07059267783585954,0
2490,0.00983643581023826,0
2491,0.039179684700223344,0
2492,0.03319517416466724,0
2493,0.004589075284467358,0
2494,-0.0741089138447761,0
2495,-0.05538503717551392,0
2496,-0.012665651137815632,0
2497,-0.02190728938875702,0
2498,-0.023843713545986585,0
2499,0.013101779662729445,0
2500,0.3745649720086388,0
2501,3.889050551876341,0
2502,6.628520857273421,0
2503,-1.0023585760220532,0
2504,-1.629387428522237,0
2505,1.4102959355810398,0
2506,-0.7861604544781828,0
2507,0.1513779483648165,0
2508,-0.059324952189404256,0
2509,-0.025701757916454758,0
2510,-0.0362177340771585,0
2511,0.03608860249280849,0
2512,-0.023849298334241924,0
2513,0.03146566870273532,0
2514,-0.014090436604345799,0
2515,0.05757617728789846,0
2516,-0.04465066644682908,0
2517,-0.0729263162744404,0
2518,-0.08473869379668539,0
2519,-0.08104677091663122,0
2520,0.2771086665684232,0
2521,3.8873130017979705,0
2522,6.631267303331243,0
2523,-1.0109438047261936,0
2524,-1.6482684210866945,0
2525,1.361062014574967,0
2526,-0.8591211605014364,0
2527,0.15701251982526412,0
2528,-0.05879127008663105,0
2529,-0.029028112842431435,0
2530,-0.0009574827280322846,0
2531,0.05761095086803801,0
2532,0.008187135885310313,0
2533,-0.022471848603955964,0
2534,0.02115388612122316,0
2535,0.14174305790126557,0
2536,0.035457852743202595,0
2537,0.055949826219255275,0
2538,-0.019385874253247955,0
2539,-0.02842626770297031,0
2540,0.36759043494541044,0
2541,3.905118484976972,0
2542,6.614949522161879,0
2543,-0.9622656978051145,0
2544,-1.623330696510852,0
2545,1.4191298329435482,0
2546,-0.7514162570317999,0
2547,0.2525624287179878,0
2548,0.03856898729901824,0
2549,-0.03808188846179751,0
2550,0.08303036977579058,0
2551,0.04690744356721863,0
2552,0.02075000250446348,0
2553,8.393276207434297e-05,0
2554,0.025938361175766644,0
2555,0.05887560091511365,0
2556,0.038577153967443094,0
2557,-0.0528026759153426,0
2558,0.07762544524871148,0
2559,0.03241160682419846,0
2560,0.41671093258225705,0
2561,4.025490427626842,0
2562,6.670585131609287,0
2563,-0.9466695939183583,0
2564,-1.5457196523393726,0
2565,1.474430163483825,0
2566,-0.7380219804749287,0
2567,0.1747263275735159,0
2568,-0.016051518845371766,0
2569,0.023028607908584284,0
2570,0.05714691528695484,0
2571,-0.10029506626743112,0
2572,0.10751941279871403,0
2573,-0.14723471733568824,0
2574,0.04634806478999609,0
2575,0.0023024128210662673,0
2576,0.12831655719667878,0
2577,-0.01419809622168838,0
2578,-0.013085445756061145,0
2579,0.0034919604821984102,0
2580,0.44044805747278093,0
2581,3.955129643337475,0
2582,6.608110122068745,0
2583,-0.9559609928344412,0
2584,-1.561933162831965,0
2585,1.400302291266454,0
2586,-0.8245212570736415,0
2587,0.11519485956014339,0
2588,0.022410400120271602,0
2589,-0.17971998452333562,0
2590,-0.0040611122860814515,0
2591,-0.06294012972626276,0
2592,0.03127917080295137,0
2593,0.06434038319374046,0
2594,0.05598682612649436,0
2595,0.06618276536523614,0
2596,0.09288394494034237,0
2597,0.16460238513785214,0
2598,0.018183776252526054,0
2599,0.11391617273703768,0
2600,0.45556494607946,0
2601,4.029949245805683,0
2602,6.6822265495253,0
2603,-0.9094606283510013,0
2604,-1.456741353625068,0
2605,1.5196997978050188,0
2606,-0.7420553671376356,0
2607,0.27821018125052466,0
2608,0.019464174021006975,0
2609,-0.08863632875783117,0
2610,0.059945196076527076,0
2611,0.051635107092869746,0
2612,0.01270393363411046,0
2613,-0.03835080540827761,0
2614,0.022577688605135593,0
2615,-0.012124738862263153,0
2616,0.026035155778133597,0
2617,-0.016545093111746824,0
2618,-0.0295867374790969,0
2619,0.0766568011372468,0
2620,0.40505966164287777,0
2621,4.027484462248728,0
2622,6.70942129898583,0
2623,-0.8803529731579942,0
2624,-1.427487239633731,0
2625,1.4988795773202357,0
2626,-0.7870821892666497,0
2627,0.2546705382972397,0
2628,0.08554469139625286,0
2629,-0.039408304567941525,0
2630,0.11669983128604294,0
2631,-0.02069800688445899,0
2632,0.0577874041813365,0
2633,0.015110506400462794,0
2634,0.029619882701845585,0
2635,0.10423176998701977,0
2636,-0.01298943954688623,0
2637,0.0025169655601129867,0
2638,-0.04892490146222219,0
2639,0.009995302329252595,0
2640,0.38771319689333217,0
2641,3.9856132830256015,0
2642,6.7593187247246025,0
2643,-0.9701394012206123,0
2644,-1.534197102042931,0
2645,1.4467075380631162,0
2646,-0.8942566288234696,0
2647,0.08100492311921631,0
2648,0.038917728715417266,0
2649,-0.026109025894118107,0
2650,0.014330453341817258,0
2651,0.02134307637079572,0
2652,-0.011397503374665625,0
2653,0.03624132339871347,0
2654,0.03161075351929457,0
2655,0.05084189439149725,0
2656,0.04714941018404536,0
2657,0.04686636324449826,0
2658,0.058104466099515945,0
2659,-0.05652935828867865,0
2660,0.38827213484021744,0
2661,3.926537450111882,0
2662,6.638773431514662,0
2663,-0.8681300019704655,0
2664,-1.554380416087018,0
2665,1.5249702336018918,0
2666,-0.7911882111296359,0
2667,0.21256478316256208,0
2668,-0.031414451194431516,0
2669,-0.06457072466969445,0
2670,-0.005375300083459721,0
2671,-0.13364922403665633,0
2672,0.0961775442351751,0
2673,-0.03142238295203787,0
2674,0.06650192775255032,0
2675,-0.16294443906031192,0
2676,-0.0183130655705335,0
2677,-0.033113146231672955,0
2678,-0.003504374304773808,0
2679,-0.06470250752637594,0
2680,0.41122793440428773,0
2681,4.063196288115147,0
2682,6.620545305609424,0
2683,-0.9307593530286448,0
2684,-1.4714788117742728,0
2685,1.4741874613709172,0
2686,-0.7933660627072927,0
2687,0.2139742557018458,0
2688,0.019413211741705703,0
2689,-0.0267240136634401,0
2690,0.0049498231811409485,0
2691,0.08360048210756171,0
2692,0.04545827992601062,0
2693,0.05035128322102196,0
2694,-0.021929199055109302,0
2695,-0.01982348336761231,0
2696,0.04589257099680417,0
2697,-0.012284705452545168,0
2698,0.09073249895938214,0
2699,0.012194700662606275,0
2700,0.38877917692219033,0
2701,4.012599616277092,0
2702,6.643858203157539,0
2703,-0.9928660719397168,0
2704,-1.5718254449346474,0
2705,1.4617034645042333,0
2706,-0.7535604341869484,0
2707,0.3343330357795862,0
2708,-0.027076832660704448,0
2709,-0.023794640282266813,0
2710,-0.05885465434173133,0
2711,-0.06593271043845428,0
2712,0.09930174111777307,0
2713,-0.05170331263196415,0
2714,0.010827538451355884,0
2715,-0.039653722872777866,0
2716,-0.017469848588564374,0
2717,0.012304161620131097,0
2718,0.13397201307447956,0
2719,0.06632283292245723,0
2720,0.49812770823858504,0
2721,3.9952587252426874,0
2722,6.752895765492044,0
2723,-0.8749809264810513,0
2724,-1.431899403182068,0
2725,1.5059029971456828,0
2726,-0.6590825568566914,0
2727,0.1680643181504622,0
2728,-0.0645859602014279,0
2729,-0.021634143020135745,0
2730,-0.0018376352602980303,0
2731,-0.06565996330891508,0
2732,-0.02367091627622655,0
2733,0.00024249547406638133,0
2734,-0.00944830756578877,0
2735,-0.04008406634872816,0
2736,0.04433915010693033,0
2737,0.04850200558655628,0
2738,0.042024399329370236,0
2739,-0.07234549575410124,0
2740,0.388748305433482,0
2741,3.986498959950241,0
2742,6.6728860829548005,0
2743,-0.9787864893038024,0
2744,-1.4848297552910983,0
2745,1.476786045396415,0
2746,-0.8418018341736918,0
2747,0.2332118875249718,0
2748,-0.07427816168522844,0
2749,-0.013596438340170582,0
2750,0.018906236519181347,0
2751,-0.09146134837169746,0
2752,-0.031458329838655985,0
2753,-0.01861299796909552,0
2754,-0.07339243007846236,0
2755,-0.004473661050281533,0
2756,-0.06889452973737463,0
2757,0.0631584305858105,0
2758,-0.10811271387518993,0
2759,-0.07070633896185047,0
2760,0.4027874514599509,0
2761,3.9346752789343893,0
2762,6.6084687571818845,0
2763,-1.0265768781681883,0
2764,-1.5516279898366931,0
2765,1.4106584553519783,0
2766,-0.8683056924282623,0
2767,0.16523290350914965,0
2768,-0.03905201934325262,0
2769,-0.07244925436364628,0
2770,-0.0216461064421907,0
2771,-0.04249589204878905,0
2772,-0.05509249169891956,0
2773,0.026057542123187484,0
2774,-0.008449638651386846,0
2775,-0.043827405139285854,0
2776,0.05690143182212044,0
2777,-0.01596641248883379,0
2778,0.04089551899988486,0
2779,-0.019511408274919,0
2780,0.369738959529975,0
2781,3.9416300329117244,0
2782,6.655271682976191,0
2783,-1.0764924650187795,0
2784,-1.5333975806918771,0
2785,1.5063502536832611,0
2786,-0.9193349178816811,0
2787,0.14048749331639526,0
2788,-0.045132216739707576,0
2789,-0.009001602965099102,0
2790,-0.037403109159231986,0
2791,-0.12226352190053714,0
2792,-0.015001987446812852,0
2793,0.040029032803893624,0
2794,-0.10447562530209607,0
2795,-0.0322387350016065,0
2796,-0.02796565251709389,0
2797,0.051366504439448166,0
2798,0.015886897181137307,0
2799,-0.017262493497707594,0
2800,0.36547956724540914,0
2801,4.010592319898016,0
2802,6.6331535832875845,0
2803,-0.9408710253331951,0
2804,-1.4742965147112814,0
2805,1.4329748362168462,0
2806,-0.7834042084371512,0
2807,0.2338139246826473,0
2808,-0.10066060910860715,0
2809,-0.05523568654532977,0
2810,-0.05316927122168285,0
2811,0.022639555086283028,0
2812,-0.07802537606644651,0
2813,-0.005795197450265521,0
2814,-0.043274067105184666,0
2815,-0.07359542493564548,0
2816,-0.09976527425921869,0
2817,-0.013024784121348255,0
2818,-0.02887904740887728,0
2819,-0.09830134454449718,0
2820,0.365552818929446,0
2821,3.977060460942458,0
2822,6.5879460811033095,0
2823,-1.0374469707871519,0
2824,-1.5966153521398085,0
2825,1.4615196981700886,0
2826,-0.7638739437851461,0
2827,0.073318699669191,0
2828,0.010463689512552214,0
2829,-0.10703147134868246,0
2830,0.033513354716485436,0
2831,-0.031268387300192074,0
2832,-0.12645966776795406,0
2833,-0.02128115886141014,0
2834,-0.04217593536244458,0
2835,-0.012572482747367844,0
2836,-0.09528129953751,0
2837,0.025964599678671582,0
2838,-0.09830318734687513,0
2839,-0.12412709657299781,0
2840,0.3319306291279471,0
2841,3.9377603003165422,0
2842,6.69944651133892,0
2843,-1.0982137028596848,0
2844,-1.4623006866212966,0
2845,1.4725310286513553,0
2846,-0.7449648632556584,0
2847,0.20815499656038416,0
2848,0.0886930961106343,0
2849,-0.03144694895589261,0
2850,-0.026325695754936825,0
2851,0.0014142279817300736,0
2852,-0.017171446491621452,0
2853,0.047034579868613834,0
2854,0.03678057373144923,0
2855,-0.05221963724854539,0
2856,-0.09740518620300478,0
2857,-0.06493422077027743,0
2858,-0.004868638581216922,0
2859,0.00223763872173971,0
2860,0.36218632159799163,0
2861,3.941920838907018,0
2862,6.641209435833843,0
2863,-1.0148080544087368,0
2864,-1.6052363299728787,0
2865,1.4048299815697964,0
2866,-0.8610265904416147,0
2867,0.08856706510232452,0
2868,-0.06266555232789311,0
2869,-0.10862758660382187,0
2870,-0.03543446905466793,0
2871,-0.08598146904608575,0
2872,-0.11433430570766966,0
2873,-0.20240877810174052,0
2874,-0.15737078030114293,0
2875,-0.15725174162703132,0
2876,-0.07727501383943339,0
2877,-0.10007572531144505,0
2878,-0.08104849093509121,0
2879,-0.03070625553666198,0
2880,0.2742476670090789,0
2881,4.050432152923989,0
2882,6.478827141996598,0
2883,-1.1001420764874619,0
2884,-1.5571340484698164,0
2885,1.4116241224389894,0
2886,-0.8510469257059663,0
2887,0.15713348103753352,0
2888,0.03185683774114488,0
2889,0.00936805960402317,0
2890,0.0374085501069792,0
2891,0.09141008290343253,0
2892,0.007822259568541292,0
2893,0.07441502307223438,0
2894,-0.008923451801089565,0
2895,-0.05136701823516927,0
2896,-0.05130858624525004,0
2897,-0.014530766087872828,0
2898,0.015191054808972565,0
2899,-0.07365736259004499,0
2900,0.4493792142449148,0
2901,4.032283195580563,0
2902,6.646727457887001,0
2903,-1.1965038433502824,0
2904,-1.5220352131468726,0
2905,1.3875848756199758,0
2906,-0.7930418467475261,0
2907,0.2633176598315931,0
2908,0.02042277632463975,0
2909,-0.06607728396869626,0
2910,-0.05828307347267813,0
2911,-0.00539023121744148,0
2912,0.03215158681603741,0
2913,-0.02997285756593176,0
2914,-0.15130156275093085,0
2915,0.02346623345014749,0
2916,0.09098718635496397,0
2917,0.029161081507387113,0
2918,-0.00036464800835585634,0
2919,-0.03389143985955685,0
2920,0.24402066665123512,0
2921,4.06931938474589,0
2922,6.59017760535765,0
2923,-1.0149765144975138,0
2924,-1.5456981543716937,0
2925,1.3767617493042676,0
2926,-0.7424603271385621,0
2927,0.2354794182717354,0
2928,0.08795993604933726,0
2929,-0.006810805585847888,0
2930,0.027265918465905106,0
2931,0.036717222386033393,0
2932,0.04144439163951054,0
2933,0.08241719679947156,0
2934,0.0591986221190229,0
2935,0.05183619985355424,0
2936,0.015259639591599247,0
2937,0.05062776798845742,0
2938,0.09230365542597438,0
2939,-0.0397226476473777,0
2940,0.5271927931025496,0
2941,4.035760209696522,0
2942,6.653994180354196,0
2943,-1.0301719069536812,0
2944,-1.4787072950720765,0
2945,1.3675608406998139,0
2946,-0.8080714538274508,0
2947,0.20263309877787286,0
2948,0.012042439825665472,0
2949,-0.019374472018030713,0
2950,0.04657439429174367,0
2951,0.01143715602914104,0
2952,0.012508855758266733,0
2953,-0.08515895861511874,0
2954,-0.03208008621105096,0
2955,-0.04037377793042002,0
2956,-0.02313181511641575,0
2957,-0.02176178758580554,0
2958,0.046755509514785146,0
2959,0.01888607663407961,0
2960,0.3639238972402572,0
2961,3.953832591732258,0
2962,6.5591712255066765,0
2963,-1.0688785666783436,0
2964,-1.6297851227994236,0
2965,1.3833726800568165,0
2966,-0.7778577924504767,0
2967,0.15437032325141403,0
2968,0.042999036182653105,0
2969,-0.09107758561659977,0
2970,0.0016684157952075694,0
2971,-0.02097072151798698,0
2972,0.08020360370517293,0
2973,-0.006518620277577124,0
2974,0.09980483133355254,0
2975,0.13668163387964036,0
2976,0.11826882301509309,0
2977,0.04486837579322028,0
2978,0.07612775677734598,0
2979,0.023596318614412293,0
2980,0.3713791556486807,0
2981,3.988277903103241,0
2982,6.6647137816532265,0
2983,-1.0133329639353355,0
2984,-1.5028005512137232,0
2985,1.3953880888751382,0
2986,-0.7648971977703246,0
2987,0.23820224048427074,0
2988,-0.08404370365129353,0
2989,-0.06349813808756143,0
2990,0.06455073036116873,0
2991,-0.003955894363483387,0
2992,-0.06474049369806115,0
2993,-0.022147383799627364,0
2994,0.05277773199157518,0
2995,-0.0133052674557033,0
2996,-0.04752548006742456,0
2997,-0.02366819277743299,0
2998,0.07991121034361993,0
2999,0.05368963734452806,0
3000,0.35323106247409736,0
3001,4.046582265537837,0
3002,6.63577246700409,0
3003,-1.0432065585756443,0
3004,-1.4119203818196935,0
3005,1.4512104032696942,0
3006,-0.716230222219149,0
3007,0.23789482447458388,0
3008,-0.0014074494376594415,0
3009,-0.05140716262513056,0
3010,-0.009641363143368605,0
3011,-0.034250351957742245,0
3012,-0.02859023288048612,0
3013,0.03303684847644547,0
3014,0.03362554635761733,0
3015,0.02351051136225404,0
3016,0.007984021387032384,0
3017,0.1280267077573659,0
3018,0.0788870411532147,0
3019,-0.07221157159127758,0
3020,0.33592477633360057,0
3021,3.9408345750845797,0
3022,6.61545600027205,0
3023,-1.0977290016172587,0
3024,-1.3781452200631006,0
3025,1.4679819820364173,0
3026,-0.7969428899774669,0
3027,0.22000357632819706,0
3028,0.017786674802799916,0
3029,-0.01590057081004108,0
3030,0.06554015129291586,0
3031,-0.022123594802795507,0
3032,-0.02430343075493107,0
3033,0.016430790713761065,0
3034,0.0430068793825171,0
3035,0.0260061653472486,0
3036,-0.02871751898720363,0
3037,-0.014761774284253458,0
3038,0.0553326486237385,0
3039,-0.02851004755371564,0
3040,0.4330454242792745,0
3041,4.003065440513012,0
3042,6.627590499235218,0
3043,-1.0067578462732718,0
3044,-1.4213954883418265,0
3045,1.4537734240421467,0
3046,-0.8209850430196765,0
3047,0.23304663995267763,0
3048,-0.08253181885360353,0
3049,-0.0655240167457129,0
3050,-0.03122241713603416,0
3051,-0.07086212790354296,0
3052,0.059406855230003115,0
3053,-0.04253692668298046,0
3054,-0.017796162087366164,0
3055,-0.023434433455624543,0
3056,0.019900009199733518,0
3057,-0.07278994013726386,0
3058,-0.0398292966747726,0
3059,0.020918883452635376,0
3060,0.4374931357296755,0
3061,4.013109091854832,0
3062,6.6336508252591235,0
3063,-1.1160147031529137,0
3064,-1.4550924385119268,0
3065,1.4696976908027444,0
3066,-0.7613916312423875,0
3067,0.22271032966207363,0
3068,-0.05324079295837125,0
3069,-0.08326844598944463,0
3070,-0.03118773305501302,0
3071,-0.055154342368985074,0
3072,-0.06300345899672367,0
3073,-0.011901587297896324,0
3074,-0.04164513562290924,0
3075,-0.0673513273838847,0
3076,0.0607954911964514,0
3077,-0.04126245207152734,0
3078,0.02777426083672679,0
3079,-0.08295401185878444,0
3080,0.4056564730200272,0
3081,4.026396547317488,0
3082,6.668393212205985,0
3083,-1.0449242159359269,0
3084,-1.5220798869763987,0
3085,1.3924755855065833,0
3086,-0.8147483105517842,0
3087,0.22020732309999136,0
3088,-0.004614537933963533,0
3089,-0.04617606431752492,0
3090,-0.09469730423045929,0
3091,0.04510871390579657,0
3092,0.027377925921476857,0
3093,-0.03761875500947663,0
3094,0.017810750158260488,0
3095,0.015245432164207144,0
3096,-0.11520920644777793,0
3097,0.10332804894608015,0
3098,-0.05687696059707393,0
3099,-0.03721826281490961,0
3100,0.42808983035136067,0
3101,3.974414272219919,0
3102,6.545167945582599,0
3103,-1.096704347074058,0
3104,-1.451583797791007,0
3105,1.4109217967466148,0
3106,-0.743337682390894,0
3107,0.21360086266639955,0
3108,0.0061730524177762425,0
3109,-0.06704791008121834,0
3110,0.037539443512502234,0
3111,-0.050613809316732886,0
3112,-0.028479135200345458,0
3113,-0.046549821770953397,0
3114,0.025027490448515773,0
3115,-0.03198034136804154,0
3116,-0.027327301828616535,0
3117,-0.024476986030176215,0
3118,-0.07472631240368535,0
3119,0.056021269989661136,0
3120,0.4894355002190385,0
3121,4.072938835240283,0
3122,6.5951208799888885,0
3123,-1.0544119931970315,0
3124,-1.427979165810812,0
3125,1.4902342977945573,0
3126,-0.8214897330422063,0
3127,0.22518144699065373,0
3128,-0.005523199008284595,0
3129,-0.11799476536162236,0
3130,-0.06252233613618592,0
3131,-0.04129280811144244,0
3132,0.05594111294129004,0
3133,0.002047732691315439,0
3134,-0.0870488282797807,0
3135,-0.07644063307635293,0
3136,-0.011547778311630185,0
3137,-0.0229182440892785,0
3138,-0.08083233776021816,0
3139,-0.03025404996146598,0
3140,0.38480767671294686,0
3141,4.042336392501318,0
3142,6.62584054585375,0
3143,-1.2208650826165903,0
3144,-1.3951214989520906,0
3145,1.4130779997291147,0
3146,-0.7778758312248832,0
3147,0.19504502290148001,0
3148,-0.06549134404083881,0
3149,-0.018489186378416497,0
3150,0.012882836119056051,0
3151,-0.12100472234841265,0
3152,0.007946925884657383,0
3153,0.021997876699729996,0
3154,0.0030276219335704426,0
3155,-0.01911884790482052,0
3156,0.015226814854682722,0
3157,-0.043709891772648723,0
3158,-0.0057439579447437685,0
3159,-0.10966705855664353,0
3160,0.30272413828136985,0
3161,4.091764682074898,0
3162,6.669558136028919,0
3163,-1.1445463906620001,0
3164,-1.4219030906057764,0
3165,1.3551649724136459,0
3166,-0.8356875862274669,0
3167,0.23952037575358381,0
3168,-0.03310213477813657,0
3169,-0.031424829705577605,0
3170,-0.016937115210102733,0
3171,-0.026503831109938855,0
3172,0.011131409351066518,0
3173,-0.024113668079084445,0
3174,0.03409888997247442,0
3175,-0.029291673869880325,0
3176,-0.0376290207941172,0
3177,-0.09120204654532975,0
3178,-0.07413061293316696,0
3179,-0.06387117416857438,0
3180,0.27465436843287366,0
3181,4.045856981444324,0
3182,6.5600043577667515,0
3183,-1.1125972725776048,0
3184,-1.613416882457573,0
3185,1.3588601424736906,0
3186,-0.8421002825976851,0
3187,0.19826199641534004,0
3188,-0.14360012971624436,0
3189,-0.10509608748732444,0
3190,0.007823746995589617,0
3191,-0.07883605386529285,0
3192,0.026865537795744646,0
3193,-0.06030114258082336,0
3194,-0.07577845860723179,0
3195,-0.04928830524641279,0
3196,-0.0027904144495806207,0
3197,0.004540032030282262,0
3198,-0.11619317013789149,0
3199,-0.06652777119459549,0
3200,0.33863752755118304,0
3201,3.9957589216451397,0
3202,6.498785404855078,0
3203,-1.173112960512483,0
3204,-1.5068125300764101,0
3205,1.2898966540395802,0
3206,-0.9510509334433654,0
3207,0.1442959784399991,0
3208,-0.08229799225812562,0
3209,-0.11800233913123961,0
3210,-0.04638355778267962,0
3211,-0.12136460960886583,0
3212,-0.056202369612956646,0
3213,0.019413098895610957,0
3214,-0.06680083074705737,0
3215,-0.05214582413799328,0
3216,0.022429719812704335,0
3217,-0.05615733791578123,0
3218,0.008689218859936676,0
3219,-0.06648048327686276,0
3220,0.2737445221193291,0
3221,4.070335837191961,0
3222,6.516281050827657,0
3223,-1.197250187559415,0
3224,-1.4358735000847895,0
3225,1.377406000688414,0
3226,-0.8272345333871662,0
3227,0.09548206719821009,0
3228,-0.10492594477172953,0
3229,-0.08117239530034447,0
3230,-0.14779539595728267,0
3231,-0.07777068168970712,0
3232,-0.12559452651089822,0
3233,-0.09486403526904451,0
3234,0.025751877882030094,0
3235,-0.17508851058238523,0
3236,-0.010705410613519858,0
3237,-0.08853009850630755,0
3238,-0.008204216136304184,0
3239,-0.10344084900116693,0
3240,0.33712224445805483,0
3241,3.9885014221494623,0
3242,6.542952976682566,0
3243,-1.2601371895852118,0
3244,-1.467127935316663,0
3245,1.3684935981331998,0
3246,-0.899005110242315,0
3247,0.18793081448063234,0
3248,-0.06472485008855956,0
3249,-0.11790571705652506,0
3250,-0.013299173401635132,0
3251,-0.0670004002036613,0
3252,0.06401756505774503,0
3253,-0.02752000714977389,0
3254,-0.12798311042921173,0
3255,-0.0052330971495571504,0
3256,-0.18969493071699767,0
3257,-0.12636414007165736,0
3258,-0.029319867199857443,0
3259,-0.0016744919652398882,0
3260,0.3097681360843332,0
3261,4.054210968656629,0
3262,6.446522824223143,0
3263,-1.1758603348020642,0
3264,-1.4874813210779585,0
3265,1.3301082132384856,0
3266,-0.8232310244609291,0
3267,0.0949557109121463,0
3268,-0.07682540796630563,0
3269,-0.116690152590785,0
3270,-0.03767561518034189,0
3271,-0.08204014676423947,0
3272,-0.11740426547765671,0
3273,-0.16651504911031043,0
3274,-0.023703017352194503,0
3275,-0.035245776309034096,0
3276,-0.07617815540305338,0
3277,-0.10096999646103082,0
3278,-0.08626274374343677,0
3279,-0.13245137394709144,0
3280,0.20608566011053142,0
3281,4.0113829225334845,0
3282,6.6085115197015725,0
3283,-1.2432492513748206,0
3284,-1.571934488218021,0
3285,1.3107715866233336,0
3286,-0.8591580012546824,0
3287,0.14366655982525728,0
3288,-0.09545182200666534,0
3289,-0.05163566608529167,0
3290,-0.10113039666117164,0
3291,-0.18079920579321027,0
3292,-0.14216467969861804,0
3293,-0.13353363745041358,0
3294,-0.11777438041898931,0
3295,-0.11619325560800688,0
3296,-0.12390366992435425,0
3297,-0.13791947294470713,0
3298,-0.06294228239127134,0
3299,-0.14677842611280156,0
3300,0.28394750050542444,0
3301,4.0861167894053,0
3302,6.463405406316764,0
3303,-1.1647401294983033,0
3304,-1.4979441389246726,0
3305,1.3671393161974168,0
3306,-0.7667293869700783,0
3307,0.27353189478426615,0
3308,0.04206331765932281,0
3309,-0.12843712553695552,0
3310,-0.04529455965715177,0
3311,-0.004119838125048875,0
3312,-0.05488469655084534,0
3313,-0.06884200206938913,0
3314,0.01624240894265804,0
3315,-0.012407947104945152,0
3316,-0.10266602131382233,0
3317,-0.051576396140576894,0
3318,0.029192659434168794,0
3319,-0.06410772401462324,0
3320,0.332464594756484,0
3321,4.048363887091902,0
3322,6.541453519227726,0
3323,-1.1623292373123546,0
3324,-1.4552449092851543,0
3325,1.3585690539126447,0
3326,-0.9152188015359124,0
3327,0.11542291804809432,0
3328,-0.13675997486061167,0
3329,-0.12465229994058608,0
3330,-0.0770655168466784,0
3331,-0.09226564670560733,0
3332,-0.08539975975978542,0
3333,-0.127153827929252,0
3334,-0.1327882776119208,0
3335,-0.08946687543023257,0
3336,-0.08235546724918515,0
3337,-0.13478530583028753,0
3338,-0.1148140798621059,0
3339,-0.0586188109393065,0
3340,0.3657641294083294,0
3341,3.9825603838473604,0
3342,6.47877775428541,0
3343,-1.3139236847287907,0
3344,-1.4906969128555314,0
3345,1.3686887920205093,0
3346,-0.9125856302350469,0
3347,0.19830228708748002,0
3348,-0.025098412693530053,0
3349,-0.12952252503685566,0
3350,-0.061049103159296854,0
3351,-0.06230814228618287,0
3352,-0.08849201921742492,0
3353,-0.08425243290910404,0
3354,-0.12250718325379605,0
3355,-0.03332469677169141,0
3356,-0.058833891524600966,0
3357,0.01463532148298484,0
3358,-0.05956092281702048,0
3359,-0.11606036410574774,0
3360,0.41028306457877245,0
3361,4.125437419182555,0
3362,6.551339974204221,0
3363,-1.1814408102723277,0
3364,-1.4347830353244118,0
3365,1.4197579927706647,0
3366,-0.8955103656382319,0
3367,0.23506324066916864,0
3368,-0.011800311465588346,0
3369,-0.07565440750037278,0
3370,-0.0564985608966298,0
3371,0.025885770280647723,0
3372,0.014414962572862962,0
3373,-0.0013700193835163021,0
3374,-0.06591233537459154,0
3375,-0.05279423845665424,0
3376,-0.050197354328050475,0
3377,-0.07091261961745657,0
3378,-0.05724466850984926,0
3379,0.033057335328315215,0
3380,0.40393268947642175,0
3381,4.2113242330401555,0
3382,6.482496303788797,0
3383,-1.0558219972798586,0
3384,-1.4163965476295701,0
3385,1.4387917579209257,0
3386,-0.7035363706125413,0
3387,0.20091772081522377,0
3388,-0.12138653053456926,0
3389,-0.04810617715331049,0
3390,-0.0654538660356966,0
3391,-0.15103929404506594,0
3392,-0.07340403366144974,0
3393,-0.0658277163005537,0
3394,-0.0749831256000331,0
3395,-0.052749748388685215,0
3396,-0.1326420932278653,0
3397,-0.09102720968500949,0
3398,-0.12286448977788103,0
3399,-0.027566290381361613,0
3400,0.30554846572030964,0
3401,4.144006169926288,0
3402,6.522987254571234,0
3403,-1.1323410907784772,0
3404,-1.4572647852121714,0
3405,1.413136603967607,0
3406,-0.816930271573839,0
3407,0.27709445630661284,0
3408,0.018577584766525553,0
3409,-0.003136278770889428,0
3410,0.014732217961849368,0
3411,-0.006149985122233158,0
3412,-0.0196963743592055,0
3413,-0.057877351874523364,0
3414,0.007372771947538645,0
3415,-0.10754628285838488,0
3416,-0.04757812038819065,0
3417,-0.026751096205442415,0
3418,-0.041393542514576276,0
3419,-0.0885656641681764,0
3420,0.4248317943111829,0
3421,4.045864051084557,0
3422,6.502428667260546,0
3423,-1.171251032832658,0
3424,-1.3694457021018192,0
3425,1.441088010668997,0
3426,-0.8369653553717253,0
3427,0.17706033560609666,0
3428,0.03461352724308294,0
3429,0.07416230398733581,0
3430,0.04734574621497622,0
3431,-0.02458191853820711,0
3432,0.02698381716488993,0
3433,0.028543119850713512,0
3434,0.037375411066705146,0
3435,-0.06868569271243341,0
3436,0.06506777684036692,0
3437,-0.03181764082508818,0
3438,-0.02588608013194795,0
3439,-0.007623141165411322,0
3440,0.4192569006090291,0
3441,4.091305593850952,0
3442,6.659061236827556,0
3443,-1.177419306182813,0
3444,-1.357645079243119,0
3445,1.481892055356663,0
3446,-0.7666931122265539,0
3447,0.1816841443867353,0
3448,-0.07605574947369055,0
3449,-0.08394724741187388,0
3450,0.023940301485175876,0
3451,-0.03661840500776664,0
3452,-0.07813549208897794,0
3453,-0.027599820219493292,0
3454,-0.007872641918047443,0
3455,-0.034312960062928236,0
3456,-0.041743815659188555,0
3457,0.054027861524181174,0
3458,-0.003369258280688642,0
3459,0.010740928936476,0
3460,4.038929964294694,1
3461,0.5221559666687664,1
3462,-0.05447953645954207,1
3463,0.009774597399907069,1
3464,-0.14054728504772113,1
3465,-0.058650007796171966,1
3466,-0.06410823011002656,1
3467,-0.06902320599062138,1
3468,0.017946560968088422,1
3469,0.0845072482758677,1
3470,-0.008137946650476138,1
3471,-0.02165657456717799,1
3472,0.09365242130116756,1
3473,-0.03310044575256642,1
3474,0.23348672854981514,1
3475,-0.8438391854577398,1
3476,1.3923483426895107,1
3477,-1.4228465948959366,1
3478,-1.2966800353612957,1
3479,6.502891541249235,1
3480,4.1073599866973325,1
3481,0.3511545974053911,1
3482,-0.09116169592869108,1
3483,0.0034139028310041647,1
3484,-0.05356262912124088,1
3485,-0.0950652033301852,1
3486,0.04648425895693244,1
3487,-0.03483141285010127,1
3488,0.024570805181386227,1
3489,-0.04327817557575361,1
3490,-0.013097098961671681,1
3491,-0.06643319352711823,1
3492,-0.10033172754313863,1
3493,-0.10995990409968306,1
3494,0.09475807566493531,1
3495,-0.8393539482443195,1
3496,1.4035627610226906,1
3497,-1.3771074940882435,1
3498,-1.1341079383383676,1
3499,6.435860736172933,1
3500,4.138579164263143,1
3501,0.41609700581766107,1
3502,-0.09372959611819455,1
3503,-0.04644931108695666,1
3504,-0.061716389809957486,1
3505,-0.04166731822646657,1
3506,0.037735934075669754,1
3507,-0.04074837263792387,1
3508,-0.11679587500718126,1
3509,-0.0783280583710505,1
3510,-0.04031810453000926,1
3511,0.01734778325831494,1
3512,-0.03954500425978952,1
3513,-0.013985733347885294,1
3514,0.20024662386948353,1
3515,-0.7693427317139376,1
3516,1.3606326242260374,1
3517,-1.3970099740330533,1
3518,-1.160030822674808,1
3519,6.668838668073747,1
3520,4.141271735376663,1
3521,0.44704328024719703,1
3522,-0.1043277402990663,1
3523,0.10062841200937506,1
3524,-0.020285498165272132,1
3525,0.004216034173764142,1
3526,0.006070374331777841,1
3527,-0.11609708476644057,1
3528,0.0020179311903302383,1
3529,-0.07491908282817936,1
3530,-0.07808096495165975,1
3531,-0.03261119472744607,1
3532,-0.16751975892478518,1
3533,-0.007571199543619275,1
3534,0.06272492163564483,1
3535,-0.9008897089467123,1
3536,1.3600799198635614,1
3537,-1.4240869961254514,1
3538,-1.2195281085149805,1
3539,6.543960943692311,1
3540,3.9628800534716175,1
3541,0.3666377041558755,1
3542,-0.03704264139314976,1
3543,-0.07285537156006003,1
3544,-0.15089978912320862,1
3545,0.011166576139508964,1
3546,-0.010913668615865877,1
3547,-0.002356645842191262,1
3548,-0.03865037117919636,1
3549,-0.02519760568226099,1
3550,-0.026145366194214075,1
3551,0.016798769408648,1
3552,-0.06367768163950827,1
3553,0.05658128408725842,1
3554,0.26739002149068625,1
3555,-0.6826137609206584,1
3556,1.5305771323269122,1
3557,-1.431544921991459,1
3558,-1.118389932527922,1
3559,6.549822956656487,1
3560,0.31995081944275106,0
3561,4.13355191605904,0
3562,6.52675324963339,0
3563,-1.2291742678273772,0
3564,-1.3350011733144473,0
3565,1.3378699485145682,0
3566,-0.8111605418316501,0
3567,0.23872973590695376,0
3568,-0.07097933573806335,0
3569,-0.03737672884079163,0
3570,-0.011440961893915448,0
3571,-0.15847383437886692,0
3572,-0.011469431153378614,0
3573,-0.05074091905326893,0
3574,0.0023020050823354815,0
3575,-0.12390679443945204,0
3576,-0.0073228543583230415,0
3577,-0.08293850818765555,0
3578,0.0313485977552029,0
3579,0.07360326964631571,0
3580,0.3975332764892851,0
3581,4.204659781043498,0
3582,6.574084339760887,0
3583,-1.160910923224907,0
3584,-1.280378351168717,0
3585,1.454056095514641,0
3586,-0.8332323148292231,0
3587,0.19641821145454907,0
3588,-0.018121357481795865,0
3589,-0.02445055284361668,0
3590,-0.04171026209562642,0
3591,-0.10125219313274403,0
3592,0.010492102814956945,0
3593,-0.10058336099593584,0
3594,-0.017242283694169448,0
3595,-0.0580518318056986,0
3596,-0.09148583704313402,0
3597,-0.001521790931252355,0
3598,-0.07846080720339221,0
3599,-0.013050482196248363,0
3600,0.38952458292828096,0
3601,4.1265126983122045,0
3602,6.531862601566246,0
3603,-1.1594642213098256,0
3604,-1.3753056631715121,0
3605,1.3380545418667877,0
3606,-0.7795781290607966,0
3607,0.26913362658572304,0
3608,0.005854460267635392,0
3609,0.023900238639499,0
3610,-0.00928862261567768,0
3611,-0.04270915398400481,0
3612,-0.00645864980383434,0
3613,-0.04163316693624963,0
3614,0.014000703246000945,0
3615,0.050880694599103694,0
3616,-0.013920749838051808,0
3617,-0.07628973319550941,0
3618,-0.05851887881096629,0
3619,-0.00496752382467875,0
3620,0.3863204855625799,0
3621,4.089298527216518,0
3622,6.528974361510171,0
3623,-1.1932944969434012,0
3624,-1.3381972635211985,0
3625,1.357920257264192,0
3626,-0.8188317008282775,0
3627,0.20955191290413105,0
3628,-0.10026971094338757,0
3629,-0.018026483653978992,0
3630,0.0069108713245796885,0
3631,-0.026065258920040236,0
3632,-0.08976920526145736,0
3633,-0.010726945626397824,0
3634,-0.04200143819128381,0
3635,-0.0316249542303342,0
3636,-0.04346176620533788,0
3637,0.10046570371122159,0
3638,0.022881547219084357,0
3639,-0.01766147050471466,0
3640,0.4309171120597795,0
3641,4.213610660775255,0
3642,6.645334532286036,0
3643,-1.2787525460649452,0
3644,-1.3959178759236213,0
3645,1.398375252512031,0
3646,-0.7322373873336048,0
3647,0.2492921835613718,0
3648,-0.009457957660692448,0
3649,-0.00970102083356156,0
3650,0.07869778430472435,0
3651,0.013682763247053786,0
3652,-0.04424778101982221,0
3653,0.03360537350943007,0
3654,-0.0071979261650427645,0
3655,-0.08361349811652727,0
3656,-0.07163557272397857,0
3657,0.024176296830181195,0
3658,0.004425795969583047,0
3659,0.00610540241916468,0
3660,0.5076455123295992,0
3661,4.150852552734746,0
3662,6.591994957086553,0
3663,-1.2860663169709823,0
3664,-1.319364548459634,0
3665,1.4471198293866259,0
3666,-0.7703354285071458,0
3667,0.2325437026824128,0
3668,-0.03056921628450299,0
3669,-0.0025458324370831644,0
3670,0.08781785666462164,0
3671,0.05153725958156856,0
3672,0.014409092147603567,0
3673,0.03428578047600262,0
3674,0.0025960116308503603,0
3675,0.02830420047442007,0
3676,0.05438886046077908,0
3677,-0.03913520034076541,0
3678,0.11885507107296582,0
3679,-0.05771355471713696,0
3680,0.46329963634904675,0
3681,4.136049653506423,0
3682,6.537286685122933,0
3683,-1.1592015961851603,0
3684,-1.356495577304549,0
3685,1.35278192217554,0
3686,-0.8009862070360932,0
3687,0.24177122633215845,0
3688,0.0030720853086917826,0
3689,-0.029691456956338753,0
3690,0.0028132282343620862,0
3691,0.03670882193787672,0
3692,0.018237682791251507,0
3693,-0.02617994721506043,0
3694,0.07114871626637619,0
3695,0.06268824148568174,0
3696,-0.026870167113367316,0
3697,-0.002313931745259075,0
3698,0.08037853151115931,0
3699,-0.036706941482659274,0
3700,0.4655223879309551,0
3701,4.22920206189863,0
3702,6.492368466468174,0
3703,-1.234839773015358,0
3704,-1.3712918722843075,0
3705,1.4442465788496348,0
3706,-0.8381726313515794,0
3707,0.2488562386890832,0
3708,-0.034728583895259575,0
3709,0.1797061352324515,0
3710,0.11181963103010578,0
3711,-0.0075985883520244685,0
3712,0.08012216320044893,0
3713,0.006712262533521477,0
3714,0.04803654618885862,0
3715,-0.012095260263190494,0
3716,0.04660581681630588,0
3717,-0.02179658156130296,0
3718,0.023416071589872044,0
3719,-0.12206743812505515,0
3720,0.42780222585149363,0
3721,4.132886118893833,0
3722,6.484414333202686,0
3723,-1.164310908753345,0
3724,-1.4074934580335514,0
3725,1.3893857771335598,0
3726,-0.7751101165918399,0
3727,0.19210838016559914,0
3728,-0.05480868732158706,0
3729,0.04465192504439488,0
3730,0.046985946206860835,0
3731,0.04520390562002731,0
3732,-0.046873656768864805,0
3733,0.013298228574393488,0
3734,0.12060740472900237,0
3735,0.010670981486292527,0
3736,0.016680029247082995,0
3737,0.041025014442617816,0
3738,0.10866836580925376,0
3739,0.012832216524053874,0
3740,0.39432132595712266,0
3741,4.253194784016386,0
3742,6.513586468086718,0
3743,-1.2585991357482256,0
3744,-1.2643856341397413,0
3745,1.376615102601583,0
3746,-0.8002426327215766,0
3747,0.22434013119821936,0
3748,0.1131995752728633,0
3749,-0.027121580374657728,0
3750,0.05423708888466756,0
3751,0.0918971719465205,0
3752,0.06188401667399245,0
3753,0.04714729417337884,0
3754,0.15283177259901107,0
3755,0.039102136466085985,0
3756,-0.06562567204552253,0
3757,0.03877382131742611,0
3758,0.03045538927043577,0
3759,0.033878946401172005,0
3760,0.44729851006293897,0
3761,4.243742974528952,0
3762,6.622864689996102,0
3763,-1.1303540246033124,0
3764,-1.3616035859235527,0
3765,1.4573430839555137,0
3766,-0.7215493307855468,0
3767,0.33175352756503357,0
3768,0.04755099830727977,0
3769,-0.005164027672640632,0
3770,0.10559344603115248,0
3771,-0.03241665016186544,0
3772,0.08669612378124975,0
3773,0.0077927633076028055,0
3774,0.057022606382266035,0
3775,0.03733247452410959,0
3776,-0.005971665458192055,0
3777,0.10158202516229002,0
3778,-0.011058284807040988,0
3779,-0.03754238160034079,0
3780,0.4138005412722856,0
3781,4.2547189798677465,0
3782,6.515130967325404,0
3783,-1.325899869472172,0
3784,-1.39614015840802,0
3785,1.4135224585113397,0
3786,-0.8114982392266225,0
3787,0.17591897738228424,0
3788,-0.0015800776722893865,0
3789,-0.14649822906163934,0
3790,0.03752524839676206,0
3791,0.017777665927158612,0
3792,0.01938843708350039,0
3793,0.023926371691173814,0
3794,0.10217006061226014,0
3795,0.06407487611004944,0
3796,0.03941730302001928,0
3797,0.10593310891182382,0
3798,0.12783293014438135,0
3799,0.06593002113957327,0
3800,0.5171776442961471,0
3801,4.279172960161906,0
3802,6.623264299133369,0
3803,-1.2360530830212808,0
3804,-1.2900466929288026,0
3805,1.3558963468207645,0
3806,-0.8162767728449086,0
3807,0.3809733432763501,0
3808,-0.06875519305486297,0
3809,-0.038266562414098135,0
3810,-0.055878501543530995,0
3811,0.10197433802145808,0
3812,0.11732395775352855,0
3813,-0.017601968865869122,0
3814,-0.05139629887026809,0
3815,0.05241875663716114,0
3816,0.05678293443045461,0
3817,-0.02027299186323435,0
3818,0.04982557249611807,0
3819,0.17357214331392057,0
3820,0.4837304629436864,0
3821,4.2969154316985705,0
3822,6.505684312633242,0
3823,-1.2846826174191885,0
3824,-1.1741745986109768,0
3825,1.4213653955683871,0
3826,-0.8569040808562778,0
3827,0.2870733915443435,0
3828,0.04970072640402266,0
3829,0.003685264934202216,0
3830,0.015546398377062946,0
3831,0.01766736135661833,0
3832,0.10852140339046176,0
3833,0.04584687367777551,0
3834,0.03787252950647511,0
3835,0.12276649544937465,0
3836,0.102986207601961,0
3837,0.08759988474542733,0
3838,0.05555428107948859,0
3839,0.06747462532198252,0
3840,0.5230319000422409,0
3841,4.283751328029734,0
3842,6.692713701629492,0
3843,-1.1626021518508207,0
3844,-1.2218969101792256,0
3845,1.4498466295506307,0
3846,-0.6923089679946907,0
3847,0.32018124119110003,0
3848,0.014323114613670467,0
3849,0.06818327926333895,0
3850,0.13510382317302985,0
3851,0.11399733386343813,0
3852,0.10811550589072393,0
3853,0.038708991803287116,0
3854,0.029728022746917347,0
3855,0.13609739947371302,0
3856,0.06802019789239722,0
3857,0.12764287041577949,0
3858,0.13082382776911294,0
3859,0.10598823043212673,0
3860,0.5475063715068994,0
3861,4.257970571570299,0
3862,6.626157523907489,0
3863,-1.1712793186853432,0
3864,-1.2090252587044614,0
3865,1.4532256748782468,0
3866,-0.6872977515530034,0
3867,0.3609691831141969,0
3868,0.14005700555949668,0
3869,0.025686702986899727,0
3870,0.13034015382154013,0
3871,0.051396793397835164,0
3872,0.019544594253386262,0
3873,0.03734365718866201,0
3874,0.06361868074380723,0
3875,0.058126932128032965,0
3876,0.024454911373879618,0
3877,0.05047414045779844,0
3878,-0.030823324399055184,0
3879,-0.014817506456263,0
3880,0.43715882795436944,0
3881,4.185954090258477,0
3882,6.502931873787499,0
3883,-1.1742705920666683,0
3884,-1.2757088705838124,0
3885,1.5336228836095076,0
3886,-0.8454823588615193,0
3887,0.2935817552463674,0
3888,-0.05222763320449336,0
3889,-0.004094882979471321,0
3890,0.06607669264884214,0
3891,0.018141347996003407,0
3892,0.00925144632982744,0
3893,-0.010691037163308902,0
3894,0.07625955188111806,0
3895,0.09432609600583217,0
3896,0.12345758780454222,0
3897,0.10836013442427297,0
3898,0.04132108921163757,0
3899,-0.00405290710048338,0
3900,0.5796387151775152,0
3901,4.22971256915652,0
3902,6.573246451224173,0
3903,-1.262251295164575,0
3904,-1.2996641340613722,0
3905,1.4874153259105185,0
3906,-0.6584360085416595,0
3907,0.3265755914030762,0
3908,0.07182296053861432,0
3909,-0.00017866169859143133,0
3910,0.07331307688034534,0
3911,0.10281259106150106,0
3912,0.013319973420509092,0
3913,0.09687085846700208,0
3914,0.11763606575460478,0
3915,0.08292791621942508,0
3916,0.06318876234198578,0
3917,0.07308942521833554,0
3918,0.21156019914020174,0
3919,0.07855169696852914,0
3920,0.5223115638067947,0
3921,4.261708295951329,0
3922,6.55473641757572,0
3923,-1.1800362314614767,0
3924,-1.1699707638624157,0
3925,1.5081792518073411,0
3926,-0.6311725629391605,0
3927,0.2867556798368227,0
3928,-0.04959269667278413,0
3929,-0.01923428180911855,0
3930,0.054175229002195006,0
3931,-0.009901868053870534,0
3932,-0.06959360703676994,0
3933,0.0518534549759977,0
3934,0.009737209099425595,0
3935,-0.09397953683091563,0
3936,0.04220467033633227,0
3937,0.10243922285550233,0
3938,0.017005352671883495,0
3939,-0.007079678579990043,0
3940,0.49497925036392143,0
3941,4.270640587801272,0
3942,6.491316970550116,0
3943,-1.3638768138980473,0
3944,-1.2702495877361282,0
3945,1.4206527724819786,0
3946,-0.7138817426664213,0
3947,0.27454020080873703,0
3948,0.06727355277414424,0
3949,0.010107090490649926,0
3950,0.027135410638184525,0
3951,0.00612129509241989,0
3952,-0.06220942810207883,0
3953,-0.011884695524140461,0
3954,0.053195859378884824,0
3955,0.08451735556972217,0
3956,-0.08334146953625265,0
3957,-0.03218071655308281,0
3958,0.03683074764598705,0
3959,-0.006658655574668222,0
3960,0.5017216441909274,0
3961,4.2486041266237455,0
3962,6.516444372374604,0
3963,-1.3192457746118205,0
3964,-1.2803457654747754,0
3965,1.3947570603533228,0
3966,-0.8252184481852939,0
3967,0.20099070527600543,0
3968,0.015635495064387498,0
3969,0.017084176901228647,0
3970,-0.02937883657760805,0
3971,0.03928638004309129,0
3972,-0.0958605667024319,0
3973,0.07102059888081161,0
3974,0.12021167824708034,0
3975,0.06276871935595531,0
3976,0.03727850508051006,0
3977,0.1058780070521445,0
3978,-0.017991878527823482,0
3979,0.006979806045954565,0
3980,0.5129730142847583,0
3981,4.195158574000249,0
3982,6.580275224210008,0
3983,-1.3021167980980524,0
3984,-1.3057042490170954,0
3985,1.3924541500953918,0
3986,-0.7107301049539844,0
3987,0.27979967843355413,0
3988,0.027810523204084534,0
3989,0.056186178399530676,0
3990,0.06334366625293324,0
3991,0.037623622967230375,0
3992,0.007700439923158615,0
3993,0.014857733179620983,0
3994,0.1473371662299568,0
3995,-0.025435718858283572,0
3996,0.018201321040549917,0
3997,0.04678437206114677,0
3998,0.026570837546364322,0
3999,0.012648117388021178,0
4000,0.4869999266765458,0
4001,4.333274721846953,0
4002,6.576760097885364,0
4003,-1.3026911794062022,0
4004,-1.2875058630872485,0
4005,1.4328063206395543,0
4006,-0.7853316132414564,0
4007,0.3587333696745871,0
4008,-0.01314806534028699,0
4009,-0.05623562094367517,0
4010,0.04924298337290804,0
4011,0.03167603168891234,0
4012,0.0474513772256577,0
4013,0.00041968589033161,0
4014,0.06787546633394761,0
4015,0.07597552017256225,0
4016,0.0023928227786824616,0
4017,0.06744191412304816,0
4018,0.02853411736805599,0
4019,0.034708017588820125,0
4020,0.5356598135207898,0
4021,4.242248938626124,0
4022,6.5144214507371005,0
4023,-1.255371170220593,0
4024,-1.3135169692436341,0
4025,1.3890952519361484,0
4026,-0.6830882415609936,0
4027,0.24379797018658422,0
4028,-0.11113780973501884,0
4029,-0.044801928427190524,0
4030,0.0696840830569698,0
4031,0.049696563651934304,0
4032,0.07223466250600574,0
4033,-0.03498093687288033,0
4034,0.03968290103568092,0
4035,0.042603808440727885,0
4036,0.03889691249666296,0
4037,0.10890094304108908,0
4038,-0.019395357644056376,0
4039,-0.046505002826694224,0
4040,0.5109417364925988,0
4041,4.325070488963912,0
4042,6.475427634693624,0
4043,-1.3274223976927222,0
4044,-1.2871985791965228,0
4045,1.4197477431796481,0
4046,-0.7945828822015637,0
4047,0.2582583098852073,0
4048,0.03381792910097708,0
4049,-0.0009979377853633394,0
4050,-0.04571828342539641,0
4051,0.0016820942150318624,0
4052,0.09313975960015673,0
4053,-0.014626549814513182,0
4054,-0.06785200447806991,0
4055,0.06391000730254191,0
4056,0.024637304770614973,0
4057,0.07105206353140528,0
4058,-0.06078417016932015,0
4059,0.05884034178104963,0
4060,0.48168678227035283,0
4061,4.3370237681671435,0
4062,6.620296652346445,0
4063,-1.1994160384479646,0
4064,-1.2032458153080174,0
4065,1.3859854115240884,0
4066,-0.7392006433882149,0
4067,0.29430059893726007,0
4068,0.017396722454641265,0
4069,0.0985724357294922,0
4070,0.08911629193878061,0
4071,-0.06774938606236258,0
4072,0.007291587402973133,0
4073,-0.02678747681534565,0
4074,-0.013144101112970312,0
4075,0.02751426622607181,0
4076,0.016570619159057748,0
4077,0.05999577597308668,0
4078,0.01533305448838715,0
4079,0.056530574688196514,0
4080,0.48896109412646305,0
4081,4.188322210007016,0
4082,6.529293935687195,0
4083,-1.3131950615443084,0
4084,-1.289432939585524,0
4085,1.3746695391136825,0
4086,-0.7962442879813516,0
4087,0.21026972489091877,0
4088,-0.01760784291180685,0
4089,-0.046566249804329,0
4090,0.0027164256810845028,0
4091,0.09671048532640843,0
4092,0.0758873022794505,0
4093,-0.05972301726934915,0
4094,0.030205289244821795,0
4095,0.08339805890635937,0
4096,0.053402917867323804,0
4097,-0.0452940325293643,0
4098,-0.05241623369460232,0
4099,-0.0432712506171813,0
4100,0.4938794083286422,0
4101,4.287547801475578,0
4102,6.511251346957279,0
4103,-1.2925760227990086,0
4104,-1.219154559195235,0
4105,1.3447259547829755,0
4106,-0.8043997219085499,0
4107,0.2014397781873785,0
4108,0.07098350268279394,0
4109,-0.01731907287393014,0
4110,0.1415817078856971,0
4111,0.07752299621269479,0
4112,0.0006654885040851518,0
4113,0.01919533349558037,0
4114,0.029620712244846595,0
4115,0.03177975291547158,0
4116,-0.015841901969478545,0
4117,0.0008856599584594199,0
4118,-0.004693968315916383,0
4119,0.07981159594459308,0
4120,0.4854737458544102,0
4121,4.2651406260622435,0
4122,6.553247893132146,0
4123,-1.3568928743712811,0
4124,-1.2385344605788997,0
4125,1.493949968324107,0
4126,-0.7850580849270637,0
4127,0.16988634228849955,0
4128,-0.05572633343985205,0
4129,-0.06021124860307499,0
4130,0.04291760286421453,0
4131,0.0756695897139167,0
4132,0.04711862986724705,0
4133,-0.08544970256713835,0
4134,-0.05313223364444268,0
4135,0.046513156392488965,0
4136,0.027543194404329355,0
4137,-0.040178742721759586,0
4138,-0.008085249978148079,0
4139,-0.02754059001766997,0
4140,0.371622018424673,0
4141,4.274396766526358,0
4142,6.485569514424976,0
4143,-1.3964112326898985,0
4144,-1.2775590513245259,0
4145,1.3597484393552717,0
4146,-0.7772268143037537,0
4147,0.2351781771478576,0
4148,-0.018229791136871246,0
4149,-0.008280187442627665,0
4150,-0.02824568296729677,0
4151,-0.018083468761883024,0
4152,0.024695427053981856,0
4153,-0.02654950816908883,0
4154,0.014199239948053565,0
4155,-0.006828045843585581,0
4156,0.03848057348858174,0
4157,0.010633596949255756,0
4158,0.016608471352827003,0
4159,0.0021432208514851336,0
4160,0.39693191492997204,0
4161,4.166261265038859,0
4162,6.465762322625209,0
4163,-1.4264660787162016,0
4164,-1.2965990911915046,0
4165,1.2929496106222613,0
4166,-0.927615601370965,0
4167,0.1161514752626947,0
4168,-0.02924884237760561,0
4169,0.014805572642617212,0
4170,-0.03733150417574205,0
4171,-0.04592592706398655,0
4172,-0.040728333390952,0
4173,0.05186443709031252,0
4174,0.01022187961389152,0
4175,0.05381839330112413,0
4176,-0.10162282778929868,0
4177,-0.018460456383023054,0
4178,-0.04048527747276615,0
4179,0.002393402842504836,0
4180,0.4583978625471858,0
4181,4.291431996637641,0
4182,6.436168401871683,0
4183,-1.4118071403613615,0
4184,-1.2197792966966445,0
4185,1.3582124178488202,0
4186,-0.7744820165761832,0
4187,0.23474843860621564,0
4188,-0.08877349393468827,0
4189,-0.045058716577535796,0
4190,-0.028236191704986265,0
4191,-0.05020008908925767,0
4192,-0.01151563198503492,0
4193,-0.02263199177608739,0
4194,-0.0616108943704813,0
4195,-0.0016050259037309021,0
4196,-0.03574459974681242,0
4197,-0.07794296389814334,0
4198,-0.020168960835815666,0
4199,-0.09107263698335186,0
4200,0.43511821730886213,0
4201,4.150611713798064,0
4202,6.377572025728266,0
4203,-1.4457745935281396,0
4204,-1.263095268794437,0
4205,1.3277051371699902,0
4206,-0.769947431710964,0
4207,0.20923859895992014,0
4208,-0.08593933769461595,0
4209,-0.02291084796741192,0
4210,-0.02998675465685132,0
4211,-0.016658950753641887,0
4212,0.024268571336652063,0
4213,-0.06148602169455413,0
4214,0.005140252444275607,0
4215,0.019307970513597082,0
4216,0.059427570665648424,0
4217,0.02482468590395492,0
4218,-0.13222854140042178,0
4219,-0.003519637062565263,0
4220,0.46348936772576727,0
4221,4.263385354436274,0
4222,6.49665695013509,0
4223,-1.2942233686382778,0
4224,-1.2339018104642936,0
4225,1.4099226686188986,0
4226,-0.7388801553739284,0
4227,0.37225286098283566,0
4228,-0.043039554914417855,0
4229,0.12218174529296749,0
4230,0.06690304321243652,0
4231,0.02772846142950975,0
4232,-0.002939834063083298,0
4233,-0.03474354397254765,0
4234,-0.015969998709090612,0
4235,0.013467516939428666,0
4236,0.04175766839867985,0
4237,0.026399071755643957,0
4238,0.05552191603989185,0
4239,-0.04155865395736762,0
4240,0.5183200126304103,0
4241,4.305740235162724,0
4242,6.464823048308058,0
4243,-1.324245964768278,0
4244,-1.2113139986426684,0
4245,1.2960103907050453,0
4246,-0.7950741973104914,0
4247,0.32520898726385494,0
4248,-0.034827220110430275,0
4249,-0.06743417340916616,0
4250,-0.1526778432791458,0
4251,-0.04289843559520251,0
4252,-0.012691150519634783,0
4253,-0.00022032224600538773,0
4254,-0.007073670988062426,0
4255,0.022269601602578983,0
4256,-0.034176791195434444,0
4257,0.03380037250797116,0
4258,-0.053949240810398785,0
4259,0.04463436761311797,0
4260,0.5349640143908114,0
4261,4.333473547856483,0
4262,6.441147413671887,0
4263,-1.3214127640263988,0
4264,-1.1848134438052456,0
4265,1.3976537233261919,0
4266,-0.651069485592202,0
4267,0.2746798516068462,0
4268,-0.028703644169385804,0
4269,-0.0054122885027136185,0
4270,0.09781584299723309,0
4271,0.0252410457781595,0
4272,-0.08856163689280522,0
4273,0.03210733428824433,0
4274,-0.03372665078833872,0
4275,-0.0009284448301516734,0
4276,-0.013040884168646655,0
4277,0.011791040290105819,0
4278,0.054847702690751336,0
4279,0.04113225155751318,0
4280,0.4644451267279499,0
4281,4.304601445893132,0
4282,6.457633073237969,0
4283,-1.3145357547341046,0
4284,-1.1934800853386145,0
4285,1.5043172972468937,0
4286,-0.7253110180655047,0
4287,0.27506372518097383,0
4288,0.022216047275068627,0
4289,-0.04740017465990858,0
4290,0.041161532933679044,0
4291,0.0019000534395002822,0
4292,0.06249347621261998,0
4293,0.022370044703945855,0
4294,0.03348529997743155,0
4295,0.026066358532916327,0
4296,0.07030029702574561,0
4297,0.043933212740637856,0
4298,0.04218586671152438,0
4299,0.024968881338965465,0
4300,0.42464815725993627,0
4301,4.217381387822971,0
4302,6.53472615585165,0
4303,-1.4216833997439937,0
4304,-1.2152521941556933,0
4305,1.3683939118799646,0
4306,-0.772877499905221,0
4307,0.23526773709813625,0
4308,0.1035523591807968,0
4309,0.10910558924450454,0
4310,0.08908153346322473,0
4311,-0.04676256857815022,0
4312,0.06234009374147523,0
4313,0.035005831176626194,0
4314,0.062076454260813846,0
4315,0.048049995571566514,0
4316,0.1042111208992353,0
4317,0.09824649728532353,0
4318,-0.008031154372621908,0
4319,0.047852976990206963,0
4320,0.4781068640724989,0
4321,4.26542537058413,0
4322,6.467089449372951,0
4323,-1.3823568344066894,0
4324,-1.2660648332545108,0
4325,1.3429742753576412,0
4326,-0.7023583960074203,0
4327,0.2592061553355349,0
4328,-0.07556241830073357,0
4329,0.07330513528975799,0
4330,0.08835535721287088,0
4331,0.008748784768926075,0
4332,0.11313541887885295,0
4333,0.06192424284175747,0
4334,-0.006227735692482446,0
4335,-0.026233756114192076,0
4336,0.0011883821039171596,0
4337,-0.012444949984625312,0
4338,0.10616786441092552,0
4339,0.00586099626793387,0
4340,0.4285015271677811,0
4341,4.304478022861082,0
4342,6.552815023785517,0
4343,-1.425671236767586,0
4344,-1.3449704369530189,0
4345,1.5065440669115573,0
4346,-0.6400559211876933,0
4347,0.3340307668881071,0
4348,0.021957993364451027,0
4349,-0.085256918882275,0
4350,0.012938900444035558,0
4351,-0.0617881099093878,0
4352,-0.04920270430981374,0
4353,0.03360904782183405,0
4354,0.005208226823223713,0
4355,-0.03501453824136742,0
4356,0.02907983677555047,0
4357,0.06071572152987467,0
4358,-0.03430849769345033,0
4359,0.012329751091384728,0
4360,0.5391832400125439,0
4361,4.254668664408954,0
4362,6.423587722964703,0
4363,-1.4330373424644949,0
4364,-1.1524723631706324,0
4365,1.244782761068663,0
4366,-0.829853212929144,0
4367,0.2408041980278512,0
4368,-0.14127003759733928,0
4369,-0.012701905397443428,0
4370,-0.03576088639233344,0
4371,-0.023985928872254175,0
4372,0.042173813904326035,0
4373,-0.01908894577013412,0
4374,-0.010180226086147803,0
4375,-0.07780080450254762,0
4376,-0.10543411656247785,0
4377,-0.05189683264189757,0
4378,0.04386663991631984,0
4379,-0.0017804079866666107,0
4380,0.30485475266849305,0
4381,4.2639486918679745,0
4382,6.446499036820263,0
4383,-1.4564593295282913,0
4384,-1.2491844031889416,0
4385,1.3722045048062808,0
4386,-0.7912078200931073,0
4387,0.29957450448314826,0
4388,0.045105398355525,0
4389,-0.02465778937630243,0
4390,-0.14085885587595703,0
4391,0.012753054884139248,0
4392,0.05679439347217442,0
4393,-0.07016640713619021,0
4394,-0.12403664703092152,0
4395,0.02415006846001,0
4396,-0.10683852453174696,0
4397,-0.08810597541652321,0
4398,-0.09508135907691906,0
4399,-0.08403791410089113,0
4400,0.40559048272962234,0
4401,4.217456546487813,0
4402,6.468695471019149,0
4403,-1.3815642273758602,0
4404,-1.2004680904356517,0
4405,1.3502197852578206,0
4406,-0.8806766388331907,0
4407,0.16383301063369854,0
4408,-0.032133176191191125,0
4409,-0.011006947145027764,0
4410,-0.05094468984731384,0
4411,-0.0662420214004995,0
4412,0.02875488027531095,0
4413,-0.025183717173282143,0
4414,-0.082256850569006,0
4415,-0.08190285329219364,0
4416,-0.002424466597790019,0
4417,-0.16026546476209966,0
4418,-0.11618138908100575,0
4419,-0.0849494484864604,0
4420,0.31559425201354113,0
4421,4.193363245651296,0
4422,6.499912144712505,0
4423,-1.440204060926095,0
4424,-1.3177543115983235,0
4425,1.2863876159383003,0
4426,-0.8983089746529164,0
4427,0.17470127103318764,0
4428,-0.07524637609738552,0
4429,-0.16412535572122816,0
4430,-0.05324338893451445,0
4431,-0.04896746835046538,0
4432,-0.03992323052162555,0
4433,-0.13888034653098857,0
4434,-0.06486853638062315,0
4435,-0.036853207872588584,0
4436,0.005279114496038857,0
4437,0.01891955833257858,0
4438,-0.10619082598020899,0
4439,-0.1412625192381477,0
4440,0.3802530760604812,0
4441,4.235125180568497,0
4442,6.381134546998126,0
4443,-1.3912871166231084,0
4444,-1.222431395210291,0
4445,1.2841654742005697,0
4446,-0.884655236015192,0
4447,0.21634462971865173,0
4448,-0.12239191885021294,0
