timestamp,value-0,is_anomaly
0,0.2766235351160156,0.0
1,3.586090911973521,0.0
2,6.840013794259624,0.0
3,-0.23537305942887754,0.0
4,-1.9668880514831746,0.0
5,1.5640985397434386,0.0
6,-0.7372616125518082,0.0
7,0.05799613249105563,0.0
8,-0.04622066693844991,0.0
9,0.005339354519907871,0.0
10,-0.006554478579435866,0.0
11,-0.032186024060272496,0.0
12,0.04417708482944712,0.0
13,0.018951856527742932,0.0
14,-0.013413762499366929,0.0
15,0.004658831558709067,0.0
16,0.01875321645124816,0.0
17,0.00893639433819855,0.0
18,0.009502201008713278,0.0
19,0.01983822169030674,0.0
20,0.25805783359811363,0.0
21,3.4931960129883173,0.0
22,6.871393230992088,0.0
23,-0.2914653682362612,0.0
24,-2.004446690014758,0.0
25,1.5248229321425666,0.0
26,-0.7677746373970158,0.0
27,0.009922325903619675,0.0
28,0.05244000469726888,0.0
29,-0.02208213784599925,0.0
30,0.022206420753968135,0.0
31,-0.015373444673252799,0.0
32,0.01783080778234382,0.0
33,0.06981180044986864,0.0
34,0.020946729319452267,0.0
35,-0.003428278476568482,0.0
36,-0.030679825252473324,0.0
37,0.11144760918955168,0.0
38,-0.002903662817346002,0.0
39,-0.009123750130323984,0.0
40,0.3423632273061981,0.0
41,3.4559385941601404,0.0
42,6.934623160983342,0.0
43,-0.26677580082250585,0.0
44,-1.9602258359474094,0.0
45,1.4987980628954232,0.0
46,-0.7509840109143883,0.0
47,0.025987144225917497,0.0
48,-0.01583159287672626,0.0
49,-0.08022006805207685,0.0
50,-0.0744609197689555,0.0
51,0.002360541883810581,0.0
52,-0.031768765130021824,0.0
53,0.04023886132855314,0.0
54,-0.0580077083378447,0.0
55,0.014963242677169326,0.0
56,0.007604066685313233,0.0
57,-0.038725315005752214,0.0
58,-0.07901338317610322,0.0
59,0.0096240070736512,0.0
60,0.4089954230651818,0.0
61,3.4123007936745218,0.0
62,6.840455369097657,0.0
63,-0.14563587524537522,0.0
64,-2.0346701921876647,0.0
65,1.5170863291597458,0.0
66,-0.8270313250800476,0.0
67,0.0891296407719598,0.0
68,-0.05608269580092036,0.0
69,-0.07762590996456699,0.0
70,-0.08756756565654798,0.0
71,-0.048726494890050334,0.0
72,-0.09150975894253366,0.0
73,0.029851543691914874,0.0
74,-0.042209793472314384,0.0
75,-0.04390525699992768,0.0
76,-0.042286798133185054,0.0
77,-0.07609154878753821,0.0
78,-0.051389648363910606,0.0
79,-0.047860589116263244,0.0
80,0.27582425690207735,0.0
81,3.4907649011377293,0.0
82,6.844551877087748,0.0
83,-0.338347071450801,0.0
84,-1.9852892450853394,0.0
85,1.5093034572222253,0.0
86,-0.8264976556860401,0.0
87,0.06300767257480383,0.0
88,-0.07332900861936442,0.0
89,-0.10985229178729436,0.0
90,0.00559668766320217,0.0
91,-0.13232839905091737,0.0
92,-0.14051258137857317,0.0
93,-0.08514928681295174,0.0
94,-0.06348815184536422,0.0
95,-0.11087840498226259,0.0
96,0.04725624434823041,0.0
97,-0.0039975183828613765,0.0
98,0.030389610669035144,0.0
99,-0.004547749118890915,0.0
100,0.20604590870494757,0.0
101,3.431960330645861,0.0
102,6.853360347736108,0.0
103,-0.21808624435578813,0.0
104,-1.8677170004721002,0.0
105,1.624100000846739,0.0
106,-0.6682112209635374,0.0
107,0.14065294144213328,0.0
108,0.0069444923857849075,0.0
109,0.026814664170847845,0.0
110,0.01929306715627687,0.0
111,0.027057477346327567,0.0
112,-0.06964049598669744,0.0
113,0.02980753317873439,0.0
114,0.033832960060738305,0.0
115,-0.008167100687422369,0.0
116,-0.0771362521475031,0.0
117,0.016706260002781522,0.0
118,0.044965117205385444,0.0
119,-0.024988189859142425,0.0
120,0.2354132681106212,0.0
121,3.5492464776633246,0.0
122,6.96081579529447,0.0
123,-0.2609301716979089,0.0
124,-2.0631550926371895,0.0
125,1.562908038604586,0.0
126,-0.6649905428134074,0.0
127,-0.014802324936058112,0.0
128,0.06229298104180873,0.0
129,-0.06568831931722467,0.0
130,-0.01094931787292499,0.0
131,-0.11112095588087288,0.0
132,-0.06330644683991603,0.0
133,0.02304319162086829,0.0
134,-0.03374771044182938,0.0
135,0.10978265924478305,0.0
136,-0.027685607260541836,0.0
137,-0.057974631089788536,0.0
138,-0.06899603014860274,0.0
139,0.06090585878241982,0.0
140,0.2707509274032518,0.0
141,3.5066674275420175,0.0
142,6.869784850858988,0.0
143,-0.3450099675129956,0.0
144,-1.9388538376821853,0.0
145,1.4610593035885928,0.0
146,-0.7431814730564358,0.0
147,0.1337461439706792,0.0
148,-0.0025831811349442263,0.0
149,-0.026758796203699774,0.0
150,-0.020992829731356535,0.0
151,0.029436757237211893,0.0
152,-0.011430639780805624,0.0
153,0.025921783459742682,0.0
154,-0.024409598186619884,0.0
155,0.03933011219418408,0.0
156,0.03557737097383213,0.0
157,0.025976672469100674,0.0
158,0.001164418688766513,0.0
159,0.03299202061708559,0.0
160,0.2602712768265596,0.0
161,3.5666367067529245,0.0
162,6.864590208785747,0.0
163,-0.27085859393903744,0.0
164,-1.979975410953251,0.0
165,1.5315751094909131,0.0
166,-0.6791566831483727,0.0
167,0.12535147267108673,0.0
168,0.014701227361354173,0.0
169,-0.048924090644628035,0.0
170,0.049836171095713526,0.0
171,0.06611727869097266,0.0
172,0.04095473242693261,0.0
173,0.06430950656128978,0.0
174,-0.10495473822883589,0.0
175,-0.06722868994819972,0.0
176,0.07045000905340976,0.0
177,0.07130352875516173,0.0
178,-0.04909695239878442,0.0
179,0.009036239532267759,0.0
180,0.28762711671692365,0.0
181,3.575322649362162,0.0
182,6.893939497370547,0.0
183,-0.2368570346877355,0.0
184,-1.955940849183594,0.0
185,1.5849628364283601,0.0
186,-0.6216083432302483,0.0
187,0.16934566939150092,0.0
188,0.04063517548902968,0.0
189,-0.036177623506689446,0.0
190,0.059973375985384214,0.0
191,0.07214502652062316,0.0
192,0.017343005394889803,0.0
193,-0.07243679481764487,0.0
194,-0.048922816409560886,0.0
195,0.04276393795595945,0.0
196,-0.015412016033778907,0.0
197,0.010785056295043907,0.0
198,-0.008558551599988393,0.0
199,0.04808307846541592,0.0
200,0.37710844631667373,0.0
201,3.6245658850427787,0.0
202,6.8675672690492275,0.0
203,-0.24892715001991347,0.0
204,-1.899910455365372,0.0
205,1.6671402265499204,0.0
206,-0.6807579863315752,0.0
207,0.22179851154067737,0.0
208,0.053409926908468484,0.0
209,-0.036485728952210236,0.0
210,0.06401926326495716,0.0
211,-0.03511611792282605,0.0
212,0.06321556363202188,0.0
213,-0.014883836171639887,0.0
214,-0.004175568614653992,0.0
215,-0.020616537797747907,0.0
216,0.03629930174135209,0.0
217,-0.007981708039505092,0.0
218,-0.025475382050032868,0.0
219,0.06604026801544054,0.0
220,0.372431805934738,0.0
221,3.5833990384082743,0.0
222,6.87773449088009,0.0
223,-0.32113158795721974,0.0
224,-1.9016717225695179,0.0
225,1.6003849204097356,0.0
226,-0.6481729089046588,0.0
227,0.2670909764530205,0.0
228,0.1064614802733645,0.0
229,0.07153130690881977,0.0
230,0.14378518407608204,0.0
231,0.10265857546522138,0.0
232,-0.022876919395954126,0.0
233,0.07958656422268401,0.0
234,0.03565903905007538,0.0
235,0.0007176997423206793,0.0
236,0.1114458037507051,0.0
237,0.08423476735786901,0.0
238,0.025209591392550294,0.0
239,0.0939060969415989,0.0
240,0.3347717292248688,0.0
241,3.5742083486056964,0.0
242,6.870764051115337,0.0
243,-0.28415861917326907,0.0
244,-1.8929899798895042,0.0
245,1.5328653815819295,0.0
246,-0.736381277296446,0.0
247,0.14008375861203606,0.0
248,0.006175141932503715,0.0
249,-0.09226531357957843,0.0
250,0.010459390776329302,0.0
251,-0.029010619548906883,0.0
252,-0.03708084733818332,0.0
253,0.032701444670750285,0.0
254,0.03176142634152438,0.0
255,0.03077664371739898,0.0
256,0.025519435529358668,0.0
257,-0.05039290056464525,0.0
258,-0.034841960448320816,0.0
259,0.010561658581960766,0.0
260,0.3598163118860202,0.0
261,3.4958147586209325,0.0
262,6.8819766360111565,0.0
263,-0.3409835001643754,0.0
264,-1.9448918951803904,0.0
265,1.5247941664538662,0.0
266,-0.6350768377215047,0.0
267,0.15049808779796536,0.0
268,0.06032712007449262,0.0
269,-0.06377362951223586,0.0
270,-0.006137880837718254,0.0
271,-0.05107397931274819,0.0
272,-0.047598243873833525,0.0
273,0.039333688612521685,0.0
274,0.044496590972771116,0.0
275,-0.06988053151217845,0.0
276,0.0446572832755175,0.0
277,0.07052822187336072,0.0
278,0.01844666977181459,0.0
279,-0.034834270561750875,0.0
280,0.409315359200045,0.0
281,3.545397843422819,0.0
282,6.8680709354215965,0.0
283,-0.2705850298332008,0.0
284,-1.7625473168087018,0.0
285,1.607933032681418,0.0
286,-0.7483548908671661,0.0
287,0.2729207531661757,0.0
288,0.068332922649423,0.0
289,0.07203914743526849,0.0
290,0.1867676295785915,0.0
291,-0.026546908658324167,0.0
292,0.1578910276924826,0.0
293,0.002417227070490663,0.0
294,0.019922417084815715,0.0
295,0.0681397785330646,0.0
296,0.09302680305668604,0.0
297,0.05328684141292155,0.0
298,-0.02324749824537009,0.0
299,0.059901038629180475,0.0
300,0.2603896162615818,0.0
301,3.5429589102331565,0.0
302,6.8501047469001755,0.0
303,-0.38168280099258156,0.0
304,-1.902172499303725,0.0
305,1.5602874371968967,0.0
306,-0.7695548573895705,0.0
307,0.09789896468411612,0.0
308,-0.02272134088978603,0.0
309,-0.12967948729041612,0.0
310,0.11344773049293833,0.0
311,0.10166071743162056,0.0
312,0.02964086029159097,0.0
313,0.045182409441828775,0.0
314,-0.011418157450416699,0.0
315,-0.028137104646376022,0.0
316,0.0584213593034488,0.0
317,0.08316302609119618,0.0
318,-0.010218026671647455,0.0
319,0.04926737791477896,0.0
320,0.23648810759126931,0.0
321,3.5299413090777647,0.0
322,6.828214943031356,0.0
323,-0.21049474434824475,0.0
324,-1.9147583054501423,0.0
325,1.4852176650240552,0.0
326,-0.7393145833633178,0.0
327,0.2581904886661942,0.0
328,0.004251711271524815,0.0
329,-0.021043917379473417,0.0
330,-0.017018609948731875,0.0
331,0.009429644091492152,0.0
332,0.021638182637484224,0.0
333,0.01596751871439922,0.0
334,0.006618280302942838,0.0
335,0.08994094039492255,0.0
336,0.11647601463904642,0.0
337,0.06186133907110242,0.0
338,0.042099358216200894,0.0
339,-0.020858978036188754,0.0
340,0.30310755349071855,0.0
341,3.5674223424466676,0.0
342,6.830515654214224,0.0
343,-0.30954026824704517,0.0
344,-1.9148134959387473,0.0
345,1.5334577025870537,0.0
346,-0.6859573145257182,0.0
347,0.15389057687113536,0.0
348,-0.06470640056575075,0.0
349,-0.03976058571213088,0.0
350,-0.01050115685860474,0.0
351,-0.07893544268357995,0.0
352,-0.05777838671316726,0.0
353,0.04950733522657537,0.0
354,-0.024164383767183842,0.0
355,-0.019785871046645604,0.0
356,-0.012163326371256354,0.0
357,0.009692672267038481,0.0
358,-0.05222261604921074,0.0
359,-0.05636115205429492,0.0
360,0.3243328168901546,0.0
361,3.5866829207918385,0.0
362,6.804677193432643,0.0
363,-0.2384730650966061,0.0
364,-1.9012279044072766,0.0
365,1.5422706236434278,0.0
366,-0.7250122927295203,0.0
367,0.16754946018719774,0.0
368,0.11163528348685298,0.0
369,-0.07767733337669758,0.0
370,0.11531882621166593,0.0
371,0.10233703581489881,0.0
372,0.051614454739578666,0.0
373,-0.00479732414653327,0.0
374,0.08616880488338104,0.0
375,0.050047655782021847,0.0
376,-0.025623293688794683,0.0
377,-0.013513300552140266,0.0
378,-0.023424431856356797,0.0
379,-0.025418573289291476,0.0
380,0.3530097525603336,0.0
381,3.5505301744715414,0.0
382,6.846959024654082,0.0
383,-0.32946710395150963,0.0
384,-1.8992917963170168,0.0
385,1.527783663824118,0.0
386,-0.6750451141418817,0.0
387,0.16346420906484024,0.0
388,0.0203457724402267,0.0
389,0.008226344397056419,0.0
390,0.006764580136873213,0.0
391,0.04460496984390987,0.0
392,0.00932771713266661,0.0
393,-4.58712895394682e-05,0.0
394,0.01569267881219117,0.0
395,0.032281787252321184,0.0
396,0.01551254765990088,0.0
397,0.021980451439921576,0.0
398,-0.04846491619399444,0.0
399,-0.0522122856738339,0.0
400,0.26582537088666397,0.0
401,3.5171425844266015,0.0
402,6.813216597920647,0.0
403,-0.4275929181721916,0.0
404,-1.798498256194226,0.0
405,1.5811408063112617,0.0
406,-0.6915593390183044,0.0
407,0.13069662387249895,0.0
408,0.07661761743516661,0.0
409,0.05738951123895601,0.0
410,0.1178168524573272,0.0
411,0.020730456996477846,0.0
412,0.09877139571325486,0.0
413,0.11774418480434147,0.0
414,0.023038078016580442,0.0
415,0.0007706306762559137,0.0
416,0.04020220862651516,0.0
417,0.0030362490229228108,0.0
418,-0.037248664971238986,0.0
419,-0.06550387973406434,0.0
420,0.3111148930477166,0.0
421,3.592073753361347,0.0
422,6.8976064131469155,0.0
423,-0.3536663928787657,0.0
424,-1.9764523738294402,0.0
425,1.5473132524006,0.0
426,-0.7756125119047838,0.0
427,0.0629460865167395,0.0
428,0.04126272845201584,0.0
429,-0.04909875916408134,0.0
430,0.04481217593177054,0.0
431,-0.005861840375361823,0.0
432,0.1056448511732884,0.0
433,0.04156369393388801,0.0
434,0.07164036550916689,0.0
435,0.00945760431522882,0.0
436,0.001145051022407747,0.0
437,-0.030753859672360155,0.0
438,0.028897862494146456,0.0
439,-0.034508996379787174,0.0
440,0.2053444805555385,0.0
441,3.614162174673435,0.0
442,6.831555396130325,0.0
443,-0.39480498809751696,0.0
444,-1.9054246320095283,0.0
445,1.535646434690661,0.0
446,-0.73735950895639,0.0
447,0.19721651266189602,0.0
448,0.10924825298698253,0.0
449,-0.008252509245740954,0.0
450,0.152521300869421,0.0
451,0.1536231425786354,0.0
452,-0.006962706469360272,0.0
453,0.10428579976994697,0.0
454,0.046625350359096485,0.0
455,0.08226552926914729,0.0
456,0.08288373091162647,0.0
457,0.017350580008265434,0.0
458,0.143144599689012,0.0
459,0.02618462169950911,0.0
460,0.44423624769116465,0.0
461,3.6034641428502323,0.0
462,6.889154924391665,0.0
463,-0.26221342923666724,0.0
464,-1.9199151745613348,0.0
465,1.5542783262273208,0.0
466,-0.6972732197238338,0.0
467,0.1315631956219244,0.0
468,-0.03465393557321947,0.0
469,-0.039367843858517465,0.0
470,0.01336156142124854,0.0
471,0.04140928299752628,0.0
472,0.010993115267689075,0.0
473,-0.014883547098807334,0.0
474,-0.033270778869769785,0.0
475,0.025093779201824522,0.0
476,0.018773390485089286,0.0
477,0.024700666756451016,0.0
478,-0.1002226439741562,0.0
479,-0.11969842773211944,0.0
480,0.23986846624660127,0.0
481,3.561617927918239,0.0
482,6.770345248032191,0.0
483,-0.44325223390037033,0.0
484,-1.8780059386858223,0.0
485,1.5400089801307792,0.0
486,-0.7620730077516253,0.0
487,0.19107915482301488,0.0
488,-0.01321251997122376,0.0
489,-0.037472395545339834,0.0
490,0.01555349612949063,0.0
491,0.07905259143107557,0.0
492,-0.013264171243803875,0.0
493,0.04696516486455214,0.0
494,0.07705595073984461,0.0
495,0.012732247869921685,0.0
496,-0.021890219357272696,0.0
497,0.002701290134404403,0.0
498,-0.016635817031499987,0.0
499,0.0017838694540903925,0.0
500,0.2407242426424483,0.0
501,3.612167980049983,0.0
502,6.893480839477749,0.0
503,-0.36765998491418805,0.0
504,-1.7526783424538561,0.0
505,1.571008858066036,0.0
506,-0.7037483537887036,0.0
507,0.17813290535066748,0.0
508,0.03400730636400329,0.0
509,-0.03567077899691821,0.0
510,0.032292314896781034,0.0
511,0.03989062559852456,0.0
512,0.12581432839339182,0.0
513,-0.02443869745522815,0.0
514,0.13991135211585243,0.0
515,-0.04708261922242546,0.0
516,0.00801645720550078,0.0
517,0.05074460624326825,0.0
518,0.06375812675272022,0.0
519,-0.05651577208133795,0.0
520,0.24385077917858938,0.0
521,3.579798674604053,0.0
522,6.817169487873927,0.0
523,-0.3806682778116496,0.0
524,-1.9038397589032088,0.0
525,1.5346476471895927,0.0
526,-0.7363212171921869,0.0
527,0.16595196492758188,0.0
528,0.09258810082097185,0.0
529,0.032684159154530296,0.0
530,0.019051661903726466,0.0
531,-0.03562204495874312,0.0
532,0.0674046053509606,0.0
533,-0.007456818615915468,0.0
534,-0.011032060164600406,0.0
535,0.054390838013399515,0.0
536,0.11061456045060583,0.0
537,0.09109265227858207,0.0
538,0.033723390371824376,0.0
539,0.01822989096077372,0.0
540,0.23107603567294357,0.0
541,3.5605438926769204,0.0
542,6.869234736224005,0.0
543,-0.43943999382837146,0.0
544,-1.9303065523759428,0.0
545,1.5002680190831719,0.0
546,-0.7350105689811292,0.0
547,0.12376059949208033,0.0
548,-0.013113771564953742,0.0
549,-0.08128153908744853,0.0
550,0.006124279603302342,0.0
551,-0.04848714921248738,0.0
552,-0.059644965894782055,0.0
553,-0.0831717439356927,0.0
554,-0.02711254857183621,0.0
555,-0.02903251005415069,0.0
556,0.03273985138469144,0.0
557,-0.002489367043651273,0.0
558,-0.03688289540164018,0.0
559,-0.11588567436448664,0.0
560,0.2554759816576311,0.0
561,3.5761119931642833,0.0
562,6.9432881493214476,0.0
563,-0.36741278954211365,0.0
564,-1.8078417576407346,0.0
565,1.5554047364440715,0.0
566,-0.65428176759493,0.0
567,0.16357437815634834,0.0
568,0.07358194666349964,0.0
569,0.005727885195131144,0.0
570,0.016404800425862162,0.0
571,-0.009616043515107121,0.0
572,0.013841237043156256,0.0
573,-0.007823775212966032,0.0
574,0.07895752154669156,0.0
575,0.005234390466275567,0.0
576,0.013014231294443786,0.0
577,-0.03870456168739202,0.0
578,-0.010703657173244223,0.0
579,-0.023413766625258868,0.0
580,0.2348545509074369,0.0
581,3.543909165353692,0.0
582,6.683835177226891,0.0
583,-0.4117817335096285,0.0
584,-1.95910955609856,0.0
585,1.5269752430227475,0.0
586,-0.8240801938282436,0.0
587,0.08373465778632083,0.0
588,0.0005748111488109529,0.0
589,-0.01512546463671386,0.0
590,0.02068014100212813,0.0
591,-0.012251995121353259,0.0
592,0.04082427978037183,0.0
593,-0.04564759728804853,0.0
594,0.04271674115962559,0.0
595,0.04049341551745094,0.0
596,-0.02604669837466429,0.0
597,0.11931435093872494,0.0
598,0.040700648624523356,0.0
599,0.045070694227312,0.0
600,0.23766290683766073,0.0
601,3.570374924512018,0.0
602,6.9390730887428065,0.0
603,-0.4409644450952301,0.0
604,-1.929800855273832,0.0
605,1.455140283819861,0.0
606,-0.7235255299949852,0.0
607,0.11498951496939365,0.0
608,0.0626986019530949,0.0
609,0.04800337330755029,0.0
610,-0.05332766400638373,0.0
611,-0.10590619213346958,0.0
612,-0.04340945998370778,0.0
613,-0.033652317600821526,0.0
614,-0.03067963812307521,0.0
615,-0.013333339506003974,0.0
616,-0.15543492742835754,0.0
617,-0.0258606735018817,0.0
618,-0.05810434567268431,0.0
619,-0.040883795228714236,0.0
620,0.2341210126816448,0.0
621,3.4802828186708172,0.0
622,6.85637281607862,0.0
623,-0.4992611063431805,0.0
624,-1.8755418602419796,0.0
625,1.534827403009427,0.0
626,-0.7535050940474904,0.0
627,0.16255369827607627,0.0
628,0.07815498415763444,0.0
629,-0.04210232445850005,0.0
630,0.07279181677573342,0.0
631,0.1303709977057239,0.0
632,-0.004768887142965698,0.0
633,-0.03743682694528391,0.0
634,0.1054285921136956,0.0
635,0.037859413997448466,0.0
636,-0.023398043176628972,0.0
637,-0.049422952851287005,0.0
638,0.021758398660496538,0.0
639,-0.01620395167864474,0.0
640,0.31490272162596306,0.0
641,3.653951201104912,0.0
642,6.78409932738626,0.0
643,-0.3580176429970809,0.0
644,-1.966837098904409,0.0
645,1.5086541605316532,0.0
646,-0.74660912677677,0.0
647,0.11686342081902243,0.0
648,-0.0073324407442226375,0.0
649,-0.055369436466532175,0.0
650,-0.006301039651174669,0.0
651,0.02376223741613142,0.0
652,0.07740542259262513,0.0
653,0.045561963270377925,0.0
654,0.027431685393267784,0.0
655,0.04819572598139048,0.0
656,0.06401819219609621,0.0
657,0.08359958007006203,0.0
658,0.06954536991947802,0.0
659,0.1279388849756135,0.0
660,0.3573022992961793,0.0
661,3.6488378127646564,0.0
662,6.958113840045698,0.0
663,-0.3761725683123007,0.0
664,-1.7956509120921305,0.0
665,1.5074364928763053,0.0
666,-0.7431690073943026,0.0
667,0.14847930390174513,0.0
668,0.1077146362230239,0.0
669,0.005087361021747398,0.0
670,0.00020953120105107748,0.0
671,-0.08612451471473097,0.0
672,-0.028376190420248623,0.0
673,-0.05951575041049895,0.0
674,0.018615031920511713,0.0
675,0.055611990522171154,0.0
676,-0.03143093057896713,0.0
677,0.06934714859905933,0.0
678,-0.0035497703073256613,0.0
679,-0.029392190451879824,0.0
680,0.22522163772353587,0.0
681,3.5655484259463885,0.0
682,6.8776832248740645,0.0
683,-0.4529077582941068,0.0
684,-1.9386615828303007,0.0
685,1.499333481577393,0.0
686,-0.7631476448125241,0.0
687,0.04441552370924305,0.0
688,-0.05357552210016756,0.0
689,0.031559130324984114,0.0
690,0.02168214409582808,0.0
691,-0.05304258877756624,0.0
692,-0.013468247360651078,0.0
693,-0.044109259723120804,0.0
694,-0.06105760152160067,0.0
695,0.043611669565075714,0.0
696,0.02205179019258914,0.0
697,0.019740532362754356,0.0
698,-0.007010009396697485,0.0
699,0.12779381461378334,0.0
700,0.30505749515173075,0.0
701,3.746622704602178,0.0
702,6.9077406514196085,0.0
703,-0.37061360442753505,0.0
704,-1.7855981225380007,0.0
705,1.648447968916058,0.0
706,-0.6131249064195345,0.0
707,0.20419781398835035,0.0
708,0.07289034145502277,0.0
709,-0.02531742968023587,0.0
710,0.03214270981897189,0.0
711,0.13455089728783895,0.0
712,0.02130279343289184,0.0
713,0.04403703574607578,0.0
714,0.04678707279432802,0.0
715,0.078574085619939,0.0
716,0.16686995341967187,0.0
717,-0.006217337013934246,0.0
718,-0.0025294437537593806,0.0
719,-0.03824886055028516,0.0
720,0.3269281095324788,0.0
721,3.604548241958765,0.0
722,6.863930727509438,0.0
723,-0.48443292700065316,0.0
724,-1.7808513248975169,0.0
725,1.5627114701177718,0.0
726,-0.7216778795848092,0.0
727,0.18008884167312883,0.0
728,-0.03338261845369669,0.0
729,-0.03114079646301332,0.0
730,-0.06913721281353033,0.0
731,-0.023106672278405734,0.0
732,0.08904001251180688,0.0
733,0.06752953937240505,0.0
734,0.053347142050668483,0.0
735,0.13530517183960677,0.0
736,0.0180931997920228,0.0
737,0.10554600800729398,0.0
738,0.2141118752974202,0.0
739,0.003074558688922119,0.0
740,0.4215824077727711,0.0
741,3.7801937773843064,0.0
742,6.937042682264387,0.0
743,-0.4014590779157333,0.0
744,-1.7037930628697444,0.0
745,1.5993676457021238,0.0
746,-0.5285714715609933,0.0
747,0.09501734999085912,0.0
748,0.029222297189448458,0.0
749,-0.09295704968203783,0.0
750,0.08855428088844927,0.0
751,0.018583425334111232,0.0
752,-0.019478527739374002,0.0
753,0.02979105362065989,0.0
754,0.006448995521727181,0.0
755,0.01756873436791077,0.0
756,0.015623370916293372,0.0
757,0.019923768585531902,0.0
758,0.030673628977061863,0.0
759,0.04788806930987914,0.0
760,0.3355142406903428,0.0
761,3.6535630307657194,0.0
762,6.853938305343468,0.0
763,-0.30472724960704156,0.0
764,-1.8055926084496723,0.0
765,1.531786570341269,0.0
766,-0.7521960913885535,0.0
767,0.24433185790129983,0.0
768,0.07819317615941063,0.0
769,0.12570418406772657,0.0
770,0.12469298518231084,0.0
771,0.05494992566270418,0.0
772,0.11903233536929725,0.0
773,0.031002597972228534,0.0
774,0.142762050767157,0.0
775,0.08182011652380242,0.0
776,0.07487030243414408,0.0
777,0.06309733095275816,0.0
778,0.06418868427548366,0.0
779,-0.013870261334572954,0.0
780,0.3103552816931394,0.0
781,3.671851695794634,0.0
782,6.796824466615716,0.0
783,-0.41176009686553977,0.0
784,-1.763731212135058,0.0
785,1.5632301818238588,0.0
786,-0.654035422127458,0.0
787,0.2900925419913808,0.0
788,0.10239922745614569,0.0
789,0.07254052743406027,0.0
790,0.08518281027431214,0.0
791,0.03979277514837547,0.0
792,0.14483863769424515,0.0
793,0.07438405443641996,0.0
794,0.11610967160634303,0.0
795,0.10688216884486967,0.0
796,0.04677339224663416,0.0
797,0.022925066825936792,0.0
798,0.059271479266928224,0.0
799,0.04579908819646889,0.0
800,0.38307981487990717,0.0
801,3.749282957145288,0.0
802,6.934274046000432,0.0
803,-0.4051287117159333,0.0
804,-1.8133777916328315,0.0
805,1.624161455562939,0.0
806,-0.7452727416115179,0.0
807,0.23475424687027094,0.0
808,0.09801180450308931,0.0
809,-0.04943403362846928,0.0
810,0.0034622179724403054,0.0
811,0.055036743074203295,0.0
812,0.07905869477333857,0.0
813,-0.026721702921782144,0.0
814,0.01995382087744236,0.0
815,0.035450815612314335,0.0
816,-0.018255947324784257,0.0
817,0.04569388118934288,0.0
818,0.10723004528831995,0.0
819,0.16249594221954505,0.0
820,0.3548998922808989,0.0
821,3.8180062900973932,0.0
822,6.882209484912974,0.0
823,-0.3462920582178381,0.0
824,-1.7538481040470955,0.0
825,1.6032424088134816,0.0
826,-0.6219429412296854,0.0
827,0.1270474603251905,0.0
828,0.14523178592792882,0.0
829,0.015304672018020882,0.0
830,0.11261111247284952,0.0
831,-0.007440638824837059,0.0
832,0.13861289092876738,0.0
833,0.04781381595776811,0.0
834,-0.01788116353367028,0.0
835,0.11006531895714028,0.0
836,0.015365611044694319,0.0
837,0.10636538051896982,0.0
838,0.040677130078612136,0.0
839,0.08035631138788078,0.0
840,0.3816921858929851,0.0
841,3.6906523942469582,0.0
842,6.885979468740219,0.0
843,-0.43388506638528856,0.0
844,-1.8312710532654048,0.0
845,1.4397896689068153,0.0
846,-0.6978344556571213,0.0
847,0.28674117925887493,0.0
848,-0.025592850355104932,0.0
849,-0.07744697823207972,0.0
850,0.07859898155718298,0.0
851,-0.02036599844839039,0.0
852,0.020937801624162644,0.0
853,-0.0016502539469742117,0.0
854,0.075990514759952,0.0
855,0.0287221695572391,0.0
856,0.08314136383736795,0.0
857,-0.047337324835663705,0.0
858,0.03180354733860168,0.0
859,0.05348568541492359,0.0
860,0.4226181142420395,0.0
861,3.688510621640391,0.0
862,6.956894975522551,0.0
863,-0.4045205115418014,0.0
864,-1.766456710375797,0.0
865,1.6125384616938117,0.0
866,-0.6635981753812942,0.0
867,0.22366996179757864,0.0
868,0.11227502686758989,0.0
869,-0.020295554238248636,0.0
870,0.14815926996813375,0.0
871,0.01269143264958246,0.0
872,0.1301044611358518,0.0
873,0.1090248974708698,0.0
874,0.11764560189549364,0.0
875,0.12573028008111137,0.0
876,0.12545283385473416,0.0
877,0.1304755095835274,0.0
878,0.15758393586924146,0.0
879,0.013546546820155603,0.0
880,0.3706244931685475,0.0
881,3.7483603061694715,0.0
882,6.888812167978266,0.0
883,-0.3855079183023782,0.0
884,-1.7156293497552868,0.0
885,1.5876721656334771,0.0
886,-0.6580971486907905,0.0
887,0.17282303931622917,0.0
888,0.041596748946085,0.0
889,0.08876640509661678,0.0
890,0.014522157868276667,0.0
891,0.14663858361662538,0.0
892,0.04039442638658805,0.0
893,-0.03886490840192373,0.0
894,-0.019681817941052948,0.0
895,0.002544820772620311,0.0
896,0.03313175340984574,0.0
897,0.0546281660144715,0.0
898,-0.002601316362909868,0.0
899,0.07189839297745783,0.0
900,0.32328130531553173,0.0
901,3.6313352435120048,0.0
902,6.771310933511062,0.0
903,-0.398183166718907,0.0
904,-1.7202897061647382,0.0
905,1.6021100450594148,0.0
906,-0.6530147465574684,0.0
907,0.23172457745630407,0.0
908,0.15465069183078825,0.0
909,0.10260043792556642,0.0
910,0.11891437675487615,0.0
911,0.11422097007087494,0.0
912,0.09925042107352744,0.0
913,0.1265953943668923,0.0
914,0.06517594974109583,0.0
915,0.05540147094338513,0.0
916,0.10358671517478833,0.0
917,0.0020890299900966636,0.0
918,0.09851270491651512,0.0
919,0.057679413767986985,0.0
920,0.3605873443473731,0.0
921,3.743761338450804,0.0
922,6.902036789784977,0.0
923,-0.4416664656823416,0.0
924,-1.7343978942456957,0.0
925,1.5926503209119969,0.0
926,-0.595581855664021,0.0
927,0.29163172128075626,0.0
928,0.1497880749658071,0.0
929,0.045525503134097006,0.0
930,0.08741003554478827,0.0
931,0.05570651290394367,0.0
932,0.10057644920686726,0.0
933,0.04598922633134911,0.0
934,0.0027398660378301076,0.0
935,0.021195415783847066,0.0
936,0.07971670283807057,0.0
937,0.0838741065360645,0.0
938,0.07705414431821002,0.0
939,0.09205517254951583,0.0
940,0.37405745194229206,0.0
941,3.661593451393307,0.0
942,6.770562001301926,0.0
943,-0.4307516105984501,0.0
944,-1.6976620256365758,0.0
945,1.5811089738417239,0.0
946,-0.6636617992292336,0.0
947,0.13853953303597027,0.0
948,0.06994358466256059,0.0
949,0.021618497675979453,0.0
950,-0.0003578001522055174,0.0
951,0.025004763929356726,0.0
952,-0.020337043451683273,0.0
953,-0.0255537678410922,0.0
954,0.0031329720477442508,0.0
955,0.12116835481040811,0.0
956,0.053862672260066066,0.0
957,0.06954513060215649,0.0
958,0.027036390957654324,0.0
959,0.13081433113236696,0.0
960,0.38370465593495245,0.0
961,3.656559774104865,0.0
962,6.910681376089479,0.0
963,-0.39247057750874104,0.0
964,-1.745401706833553,0.0
965,1.5521513465329937,0.0
966,-0.713549546063617,0.0
967,0.271751520081212,0.0
968,0.08379150784030061,0.0
969,-0.06967020817662704,0.0
970,0.08113583150960377,0.0
971,0.012835909621227437,0.0
972,0.054661231417432773,0.0
973,-0.03224182117606016,0.0
974,0.05638770204597115,0.0
975,0.056488925701094136,0.0
976,0.11637342048413918,0.0
977,0.08154853604907954,0.0
978,0.09015983634192745,0.0
979,0.08157930081858097,0.0
980,0.2703282409767947,0.0
981,3.718822693944668,0.0
982,6.852528358549166,0.0
983,-0.44891993908224026,0.0
984,-1.7274449278415942,0.0
985,1.5415788657515712,0.0
986,-0.7461999041579093,0.0
987,0.11940569095255728,0.0
988,0.11458149207891859,0.0
989,0.0058746244532929155,0.0
990,0.09553987732468006,0.0
991,0.04158742608132038,0.0
992,0.0367354430172529,0.0
993,0.08558998056106916,0.0
994,0.0009575876755950619,0.0
995,0.11054647125812124,0.0
996,-0.04071858072933639,0.0
997,0.04262775477675074,0.0
998,0.06458506433048768,0.0
999,0.12910456060057293,0.0
1000,0.3817801253257007,0.0
1001,3.8146675063763,0.0
1002,6.922964617020145,0.0
1003,-0.4225800872144737,0.0
1004,-1.7342470065034012,0.0
1005,1.5712288593923907,0.0
1006,-0.6265931839589816,0.0
1007,0.2196993280515243,0.0
1008,-0.005376004673944418,0.0
1009,0.08852346080715869,0.0
1010,0.04798875721138725,0.0
1011,0.0633060913969338,0.0
1012,0.10052011079233729,0.0
1013,-0.01848814457959395,0.0
1014,-0.05221136123149034,0.0
1015,0.07247755670281555,0.0
1016,-0.03154832023504652,0.0
1017,-0.039816584584981385,0.0
1018,-0.009364520424825794,0.0
1019,0.07760318534460975,0.0
1020,0.3255855175893671,0.0
1021,3.80781995170276,0.0
1022,6.950885744037707,0.0
1023,-0.43636218061307885,0.0
1024,-1.7020897855801456,0.0
1025,1.5922970792026563,0.0
1026,-0.5740172149526174,0.0
1027,0.3714129556509903,0.0
1028,0.08243816504691155,0.0
1029,0.15627926401324402,0.0
1030,0.21784873859405346,0.0
1031,0.1654051793424014,0.0
1032,0.2683136207329109,0.0
1033,0.16043619554366417,0.0
1034,0.15308320713638504,0.0
1035,0.10619014497872868,0.0
1036,0.16704598719215585,0.0
1037,0.1529324056308136,0.0
1038,-0.002118465143544926,0.0
1039,0.11000468709937318,0.0
1040,0.34421445689040886,0.0
1041,3.7413682643106596,0.0
1042,6.821619415086284,0.0
1043,-0.5157078543223149,0.0
1044,-1.7270937420794934,0.0
1045,1.5644806101057962,0.0
1046,-0.7585571014467642,0.0
1047,0.1858678575717438,0.0
1048,-0.06122788549945185,0.0
1049,0.0822609146651156,0.0
1050,0.0662745649464611,0.0
1051,0.09635927922759313,0.0
1052,0.024398353754654094,0.0
1053,0.032995399097213905,0.0
1054,-0.024065275847584333,0.0
1055,0.054110587272939416,0.0
1056,0.1008283349645103,0.0
1057,0.1016044218628061,0.0
1058,0.06887188935640948,0.0
1059,0.017847697392147775,0.0
1060,0.31515126776548064,0.0
1061,3.748808007907621,0.0
1062,6.895546995315048,0.0
1063,-0.5501139208539845,0.0
1064,-1.6641137644083464,0.0
1065,1.5284020853739821,0.0
1066,-0.7102440241798584,0.0
1067,0.23226364259552035,0.0
1068,0.0843568447422463,0.0
1069,-0.13509144057030553,0.0
1070,0.10260643489200083,0.0
1071,-0.045159393030207315,0.0
1072,-0.0008175295257295823,0.0
1073,0.0009276822528359874,0.0
1074,0.13190775567409216,0.0
1075,-0.020648833240216456,0.0
1076,0.0943481691027058,0.0
1077,0.08721346128399171,0.0
1078,0.07733928623450978,0.0
1079,0.062345169608606255,0.0
1080,0.32378629717615626,0.0
1081,3.7511696873157847,0.0
1082,6.899925622114985,0.0
1083,-0.5353878060012587,0.0
1084,-1.6532878042494663,0.0
1085,1.669763158103655,0.0
1086,-0.7315574361642421,0.0
1087,0.2332061078230209,0.0
1088,-0.009870791716260902,0.0
1089,0.05846652571400687,0.0
1090,0.11698601199597902,0.0
1091,0.09487228526170875,0.0
1092,0.06830609070006355,0.0
1093,0.08305668597839086,0.0
1094,0.11297428073935083,0.0
1095,0.008989523444121045,0.0
1096,0.06333301127217947,0.0
1097,0.08951307701581337,0.0
1098,0.0002674251463579136,0.0
1099,0.016243482625286805,0.0
1100,0.3150497489522757,0.0
1101,3.771900036807621,0.0
1102,6.802315921388415,0.0
1103,-0.438200500774962,0.0
1104,-1.7785945738048057,0.0
1105,1.6518373468375636,0.0
1106,-0.7398879436903324,0.0
1107,0.1140332352718188,0.0
1108,-0.013275544913885287,0.0
1109,-0.015532826388341307,0.0
1110,-0.03663394226502821,0.0
1111,0.061735200518315186,0.0
1112,0.06667030002630768,0.0
1113,0.02956736019450088,0.0
1114,0.06708188311362893,0.0
1115,0.0327352984670306,0.0
1116,0.020833730449942668,0.0
1117,0.08290818655657323,0.0
1118,0.08771567265755836,0.0
1119,0.09455016570900412,0.0
1120,0.4467662559536609,0.0
1121,3.821158348504861,0.0
1122,6.8246114366501365,0.0
1123,-0.5442071334758098,0.0
1124,-1.7098219516410258,0.0
1125,1.623019431115436,0.0
1126,-0.5923417536212306,0.0
1127,0.22297342561855302,0.0
1128,0.06328018745577893,0.0
1129,0.0049722733292516825,0.0
1130,0.0941968164601395,0.0
1131,-0.038722513535845535,0.0
1132,-0.01085438354073099,0.0
1133,0.05804750965444518,0.0
1134,0.0665438656765751,0.0
1135,-0.0680139883389681,0.0
1136,0.03331774484760955,0.0
1137,0.061906509568336675,0.0
1138,0.10492017917627325,0.0
1139,0.10235629999977913,0.0
1140,0.4433941141177855,0.0
1141,3.78302849152661,0.0
1142,6.894149352712445,0.0
1143,-0.4660912869500747,0.0
1144,-1.699033753956221,0.0
1145,1.580989403546642,0.0
1146,-0.6998965736736957,0.0
1147,0.21485282980848217,0.0
1148,0.14617657796806072,0.0
1149,-0.011996963535591269,0.0
1150,-0.044224657644289525,0.0
1151,-0.015180495619820135,0.0
1152,0.028525312242706345,0.0
1153,-0.06134995887340189,0.0
1154,-0.07399170173803302,0.0
1155,-0.020732081914961318,0.0
1156,0.018910552646641276,0.0
1157,-0.008190262329454223,0.0
1158,-0.024873605039993352,0.0
1159,0.012246751333399586,0.0
1160,0.3239414978521448,0.0
1161,3.7712444683641757,0.0
1162,6.817591851764589,0.0
1163,-0.6075925282007827,0.0
1164,-1.7806939973192217,0.0
1165,1.5466206144071255,0.0
1166,-0.7724896496186092,0.0
1167,0.10319435296687907,0.0
1168,0.004649264445830886,0.0
1169,0.012846497108161326,0.0
1170,0.08480124663796651,0.0
1171,0.02284498837849614,0.0
1172,-0.08364635326073686,0.0
1173,0.09056753922483263,0.0
1174,0.039774639254328004,0.0
1175,0.053536576181111205,0.0
1176,0.009603738410944147,0.0
1177,0.04231764438764854,0.0
1178,0.11527596626719325,0.0
1179,0.03862937510624152,0.0
1180,0.34668316357935847,0.0
1181,3.7811833696654187,0.0
1182,6.901443756171772,0.0
1183,-0.6270978510495375,0.0
1184,-1.777025515356619,0.0
1185,1.4423420866109293,0.0
1186,-0.8390783308500886,0.0
1187,0.21683815234103393,0.0
1188,0.10082742722845954,0.0
1189,-0.010102706144864103,0.0
1190,0.1069283764873741,0.0
1191,-0.022503755899092603,0.0
1192,-0.021837392206647075,0.0
1193,-0.08056512208649165,0.0
1194,-0.04046073180964592,0.0
1195,-0.038489286537905815,0.0
1196,-0.09817956428351098,0.0
1197,-0.08428910473666151,0.0
1198,-0.07627608116528671,0.0
1199,0.009445310428753951,0.0
1200,0.336753111677926,0.0
1201,3.704827249344336,0.0
1202,6.798950069287375,0.0
1203,-0.6050612153135694,0.0
1204,-1.7279476344119407,0.0
1205,1.5360441983365132,0.0
1206,-0.7967796302575173,0.0
1207,0.11471498141742137,0.0
1208,-0.02687432362986262,0.0
1209,-0.0753527122949062,0.0
1210,0.0290436925247631,0.0
1211,0.012298006028629637,0.0
1212,-0.029548734653780665,0.0
1213,0.05711947785439048,0.0
1214,0.03218428659365405,0.0
1215,0.038445135907096015,0.0
1216,-0.003090534268111185,0.0
1217,0.010111573798530645,0.0
1218,0.01855630837357937,0.0
1219,0.028796638243335195,0.0
1220,0.3310430799874508,0.0
1221,3.772049975071682,0.0
1222,6.874096938325695,0.0
1223,-0.5898713935071791,0.0
1224,-1.7883207384282098,0.0
1225,1.4766502738324683,0.0
1226,-0.6270498744847969,0.0
1227,0.16619865137222378,0.0
1228,0.01565798558247908,0.0
1229,-0.05315209470300674,0.0
1230,0.025888342466133415,0.0
1231,-0.054359061948971915,0.0
1232,0.05207875998033147,0.0
1233,0.026094318114093747,0.0
1234,0.025580563002530567,0.0
1235,-0.009809493701942732,0.0
1236,0.012481497974236899,0.0
1237,0.04386064399903438,0.0
1238,-0.04266548032435683,0.0
1239,-0.006940366320165014,0.0
1240,0.35910477518798584,0.0
1241,3.6545413295557685,0.0
1242,6.881920781080164,0.0
1243,-0.5471923901355059,0.0
1244,-1.8264544702813206,0.0
1245,1.5454986718561594,0.0
1246,-0.8135246019494737,0.0
1247,0.17112077849439625,0.0
1248,-0.08974203005995829,0.0
1249,-0.10304809164874901,0.0
1250,-0.05671919312934608,0.0
1251,-0.042012344720619654,0.0
1252,-0.023204740078015464,0.0
1253,-0.022107854013220293,0.0
1254,-0.0809079247635518,0.0
1255,-0.08519987232914683,0.0
1256,-0.0605418252963866,0.0
1257,-0.0226904132958295,0.0
1258,0.05052307146578626,0.0
1259,0.003585291220713975,0.0
1260,0.31177599412743734,0.0
1261,3.6908043141933886,0.0
1262,6.824464462936734,0.0
1263,-0.6228727908376354,0.0
1264,-1.7778976634910695,0.0
1265,1.6439339522952192,0.0
1266,-0.7506782243884756,0.0
1267,0.19104775405528535,0.0
1268,-0.0018496450024419004,0.0
1269,-0.08614875873786486,0.0
1270,-0.08524149244095482,0.0
1271,-0.06223241484458748,0.0
1272,-0.014777309100376348,0.0
1273,-0.11114569879325975,0.0
1274,-0.018474401170921848,0.0
1275,0.019739021913449385,0.0
1276,-0.08017615113435601,0.0
1277,-0.010044483382167515,0.0
1278,-0.004142137988108195,0.0
1279,-0.1009722268851929,0.0
1280,0.31791192883137326,0.0
1281,3.717929149957597,0.0
1282,6.634256590042181,0.0
1283,-0.5989327737309809,0.0
1284,-1.748934506730864,0.0
1285,1.5610854520115094,0.0
1286,-0.7692599533420753,0.0
1287,0.17449702115570767,0.0
1288,-0.028440155097583516,0.0
1289,0.03001681686173776,0.0
1290,-0.009448417863231764,0.0
1291,-0.014075513035907776,0.0
1292,0.05024587825507237,0.0
1293,-0.045504427239268466,0.0
1294,-0.029866186489174162,0.0
1295,0.02171564819323194,0.0
1296,-0.056262860713797755,0.0
1297,0.07147051463486159,0.0
1298,-0.01839185331854925,0.0
1299,-0.005990899273173384,0.0
1300,0.308946127907418,0.0
1301,3.6981298839538903,0.0
1302,6.669859547726636,0.0
1303,-0.6614895283934525,0.0
1304,-1.7696474023198767,0.0
1305,1.4166670327948867,0.0
1306,-0.8410497993573001,0.0
1307,0.20241120876084007,0.0
1308,0.04566353442651074,0.0
1309,-0.030363873257813145,0.0
1310,0.04209639050090308,0.0
1311,-0.029485083361574238,0.0
1312,-0.03303962199295718,0.0
1313,-0.020453706721603467,0.0
1314,0.02812423970965728,0.0
1315,0.0715461438403794,0.0
1316,0.10908790075853854,0.0
1317,-0.0025814111684548755,0.0
1318,0.055809511630897535,0.0
1319,0.10433800035038986,0.0
1320,0.3435544412209444,0.0
1321,3.693885840784145,0.0
1322,6.841688735122732,0.0
1323,-0.6210071900641168,0.0
1324,-1.7714638185400107,0.0
1325,1.5332853562080344,0.0
1326,-0.8044324032517265,0.0
1327,0.07673853770185186,0.0
1328,0.05822660929361895,0.0
1329,-0.04675816799945884,0.0
1330,0.06240150871445631,0.0
1331,-0.05381581498684063,0.0
1332,-0.05914226319147617,0.0
1333,-0.05549027075949222,0.0
1334,-0.03408741304947316,0.0
1335,-0.08727527656348275,0.0
1336,-0.021199778159409554,0.0
1337,-0.0118197288533349,0.0
1338,-0.0949880561294874,0.0
1339,-0.011196443087643164,0.0
1340,0.3369042692777115,0.0
1341,3.688819217475658,0.0
1342,6.862605040284577,0.0
1343,-0.6093715094437004,0.0
1344,-1.7554641809754334,0.0
1345,1.498401466681713,0.0
1346,-0.7524257027083319,0.0
1347,0.09483758180637747,0.0
1348,0.054016097616183346,0.0
1349,-0.004087303134360322,0.0
1350,-0.015413619594000831,0.0
1351,-0.007302608804889504,0.0
1352,0.07854741151295365,0.0
1353,0.049689484766791456,0.0
1354,-0.051601351183192416,0.0
1355,0.10192592796801041,0.0
1356,0.08823599237048121,0.0
1357,0.047079895948303016,0.0
1358,0.1321563725698309,0.0
1359,0.03370579435656764,0.0
1360,0.27586428156172477,0.0
1361,3.721964294774735,0.0
1362,6.89893646155279,0.0
1363,-0.5922963784307018,0.0
1364,-1.6469510106335838,0.0
1365,1.436692053628172,0.0
1366,-0.7469444975996701,0.0
1367,0.23347743259465775,0.0
1368,0.12072888590840894,0.0
1369,-0.13057397377802737,0.0
1370,0.0078773554244016,0.0
1371,-0.02363334155831054,0.0
1372,-0.1385785443441461,0.0
1373,0.01247530601855704,0.0
1374,-0.046283863866164725,0.0
1375,0.03201040959317076,0.0
1376,0.01916451571601984,0.0
1377,0.05262089452417393,0.0
1378,-0.0026396450343436142,0.0
1379,0.02518562539652478,0.0
1380,0.30063189520172584,0.0
1381,3.914963837933451,0.0
1382,6.873524368205305,0.0
1383,-0.6311859477278262,0.0
1384,-1.6984407945325946,0.0
1385,1.5942074175950474,0.0
1386,-0.6571838223259421,0.0
1387,0.22359491588384375,0.0
1388,0.13380980268946657,0.0
1389,0.03523982338798775,0.0
1390,0.07510910552113047,0.0
1391,0.1709855891445788,0.0
1392,0.09794753988249376,0.0
1393,0.08371591409693505,0.0
1394,0.08484285492300533,0.0
1395,0.008358708735639556,0.0
1396,-0.04214037361987889,0.0
1397,0.1984265466425878,0.0
1398,-0.000739443370634002,0.0
1399,0.1680732501681551,0.0
1400,0.33930921979384004,0.0
1401,3.8363514799969285,0.0
1402,6.922694690868814,0.0
1403,-0.5771825492706081,0.0
1404,-1.7154095583031905,0.0
1405,1.6857895377121088,0.0
1406,-0.7580763529348481,0.0
1407,0.3448913586842012,0.0
1408,0.059932784981740456,0.0
1409,0.006495811179524871,0.0
1410,0.13042868931279566,0.0
1411,0.1411408334948385,0.0
1412,0.10247333720803305,0.0
1413,0.12369885979934356,0.0
1414,0.1592603803764116,0.0
1415,0.15190591373026965,0.0
1416,0.08384070221201889,0.0
1417,0.07830514254462644,0.0
1418,0.09433639981078223,0.0
1419,0.04772250414645521,0.0
1420,0.38444081348839326,0.0
1421,3.740889953887237,0.0
1422,6.9117312252685945,0.0
1423,-0.6237001942298295,0.0
1424,-1.6961443504540246,0.0
1425,1.6398617424047002,0.0
1426,-0.7105661843687149,0.0
1427,0.25701086719613153,0.0
1428,0.07829063018560994,0.0
1429,0.09365044520100907,0.0
1430,0.07037554052714803,0.0
1431,0.06550639328139793,0.0
1432,0.11488224397576646,0.0
1433,0.023197727722525388,0.0
1434,0.003025345872834505,0.0
1435,0.01878418132811319,0.0
1436,0.1005391456286836,0.0
1437,0.015627652965375216,0.0
1438,0.01892882291221321,0.0
1439,-0.005885215609060227,0.0
1440,0.31635656864957556,0.0
1441,3.759118241416387,0.0
1442,6.79972214422262,0.0
1443,-0.6147828321632833,0.0
1444,-1.7186463108160308,0.0
1445,1.4768128374964666,0.0
1446,-0.6998546907308362,0.0
1447,0.23351298337414161,0.0
1448,0.0010766879862137355,0.0
1449,-0.09312260915986176,0.0
1450,-0.02885746259694251,0.0
1451,0.1717402783295626,0.0
1452,-0.012987146471028208,0.0
1453,0.10963105283588537,0.0
1454,0.09019881801125088,0.0
1455,0.11254531653879402,0.0
1456,-0.0019024130682908924,0.0
1457,0.1684356145246382,0.0
1458,-0.08204155275331214,0.0
1459,0.02079941085446011,0.0
1460,0.3228863684257844,0.0
1461,3.774519122461628,0.0
1462,6.917946441360268,0.0
1463,-0.6197140275122093,0.0
1464,-1.655566081298691,0.0
1465,1.5832439872866626,0.0
1466,-0.7675378781240552,0.0
1467,0.17130340600841423,0.0
1468,0.10901013449513916,0.0
1469,0.022881964836371015,0.0
1470,0.08298041947125157,0.0
1471,0.0340738755429939,0.0
1472,0.15513693681882773,0.0
1473,-0.008508031870861785,0.0
1474,0.08023764524599344,0.0
1475,0.028518476484815945,0.0
1476,0.018436952949109228,0.0
1477,0.038027415957550645,0.0
1478,0.05960472026220806,0.0
1479,-0.0005765986328978775,0.0
1480,0.4161198514677155,0.0
1481,3.74880481526571,0.0
1482,6.734386991750251,0.0
1483,-0.7171345964705081,0.0
1484,-1.6584317795945307,0.0
1485,1.6675766767287001,0.0
1486,-0.8120885821662781,0.0
1487,0.27473289924733624,0.0
1488,0.05670548401856224,0.0
1489,-0.06916885109803339,0.0
1490,0.14325353940210586,0.0
1491,0.017666961187865725,0.0
1492,-0.05396748208925343,0.0
1493,0.02279603287717906,0.0
1494,0.006130930327617878,0.0
1495,0.011290268927688026,0.0
1496,0.0004910657213455822,0.0
1497,0.03683904067350958,0.0
1498,0.04491067259663828,0.0
1499,0.04303243381666034,0.0
1500,0.3178027848589423,0.0
1501,3.7107041349916887,0.0
1502,6.8618516125403435,0.0
1503,-0.7171882516662413,0.0
1504,-1.6623564283550987,0.0
1505,1.404215288054786,0.0
1506,-0.8131784760646924,0.0
1507,0.21588666790161629,0.0
1508,0.040764610471179165,0.0
1509,-0.050593915195546055,0.0
1510,0.10845231742089033,0.0
1511,-0.04335742997236901,0.0
1512,-0.05943375413459752,0.0
1513,0.07057581967990195,0.0
1514,-0.014244817090440474,0.0
1515,-0.058030163929765594,0.0
1516,-0.016320294528058922,0.0
1517,-0.04963348621359875,0.0
1518,0.02548128057270591,0.0
1519,0.00447453523271989,0.0
1520,0.36098894569802586,0.0
1521,3.734687306996117,0.0
1522,6.773511210320911,0.0
1523,-0.6136711835346812,0.0
1524,-1.6149695606374788,0.0
1525,1.5415630905773121,0.0
1526,-0.7476306015901357,0.0
1527,0.17326508191244996,0.0
1528,0.06541826641759996,0.0
1529,-0.05726476330194228,0.0
1530,-0.019548488386631695,0.0
1531,0.09041816982044569,0.0
1532,0.08992138168045459,0.0
1533,0.03957134825828325,0.0
1534,0.013106263353733584,0.0
1535,0.08638210770970936,0.0
1536,0.049996522927118675,0.0
1537,0.09587537915277285,0.0
1538,-0.02157289596348131,0.0
1539,-0.011896402569303813,0.0
1540,0.32396932525466465,0.0
1541,3.7322432825869085,0.0
1542,6.755133179847788,0.0
1543,-0.6304064993567842,0.0
1544,-1.8093242086751686,0.0
1545,1.4348389840058404,0.0
1546,-0.7659792315943819,0.0
1547,0.1367182266973364,0.0
1548,-0.05689748521238026,0.0
1549,0.02860594242650829,0.0
1550,0.029261823485583375,0.0
1551,-0.03965894464513063,0.0
1552,0.019306287253479094,0.0
1553,-0.07168085171549786,0.0
1554,-0.06012618857766554,0.0
1555,0.0005097439170842627,0.0
1556,-0.010935963766882455,0.0
1557,-0.030182596852227486,0.0
1558,0.06135709858549365,0.0
1559,-0.059687154868891305,0.0
1560,0.3522821463417981,0.0
1561,3.660339550469205,0.0
1562,6.690295124580568,0.0
1563,-0.753326799405527,0.0
1564,-1.7167436554617794,0.0
1565,1.4428884789124543,0.0
1566,-0.7360493164803293,0.0
1567,0.2573906814067685,0.0
1568,0.04198475108902566,0.0
1569,-0.011443798952389297,0.0
1570,0.03209079520859759,0.0
1571,-0.008699562628217578,0.0
1572,-0.011419874392905843,0.0
1573,0.09583152562817183,0.0
1574,-0.04781783383908744,0.0
1575,0.09182534760053913,0.0
1576,0.13888585757791394,0.0
1577,-0.05109423547565929,0.0
1578,-0.012329503234332548,0.0
1579,-0.05482037061230487,0.0
1580,0.3135433138051423,0.0
1581,3.7595577911063343,0.0
1582,6.696089192775728,0.0
1583,-0.7192326353382033,0.0
1584,-1.7256010586091988,0.0
1585,1.5098730290855127,0.0
1586,-0.7036392679645929,0.0
1587,0.12026620113052205,0.0
1588,0.07655504062456323,0.0
1589,-0.024363758352290776,0.0
1590,-0.024322580119498755,0.0
1591,-0.01262585505714695,0.0
1592,0.01805395929748397,0.0
1593,0.04404257913294228,0.0
1594,0.057954533701284595,0.0
1595,0.014320448101661942,0.0
1596,0.01860317957685405,0.0
1597,0.04960590822805316,0.0
1598,0.05155281531679295,0.0
1599,0.0010628404481757558,0.0
1600,0.3806183244678895,0.0
1601,3.804910230462622,0.0
1602,6.718466086855915,0.0
1603,-0.6431221824316073,0.0
1604,-1.6739216990593464,0.0
1605,1.426410053112075,0.0
1606,-0.6930006940849596,0.0
1607,0.23675443717053796,0.0
1608,-0.08412067557156033,0.0
1609,-0.05212158661851167,0.0
1610,-0.04472202293519459,0.0
1611,-0.10004297893297665,0.0
1612,0.0010765291627478962,0.0
1613,-0.04481353935176702,0.0
1614,0.006523003342831195,0.0
1615,-0.05539625770949408,0.0
1616,0.03142731677656989,0.0
1617,0.04806658813269224,0.0
1618,0.058709636743135306,0.0
1619,0.13091377982154334,0.0
1620,0.27761502576028424,0.0
1621,3.751080398454973,0.0
1622,6.910852971786803,0.0
1623,-0.7136118588580654,0.0
1624,-1.6893078649461997,0.0
1625,1.5595712174991594,0.0
1626,-0.695390161654862,0.0
1627,0.15700077642284238,0.0
1628,0.04225182183951275,0.0
1629,0.049465868338508516,0.0
1630,0.13517290743251048,0.0
1631,-0.013991648677457563,0.0
1632,-0.10104416618863067,0.0
1633,-0.0949614622058175,0.0
1634,-0.002321934004501848,0.0
1635,0.08299174627430822,0.0
1636,0.06033509877378433,0.0
1637,0.02812870898470503,0.0
1638,0.10194102720002923,0.0
1639,0.03404293257074944,0.0
1640,0.3648822922555675,0.0
1641,3.824112027384544,0.0
1642,6.766624848343071,0.0
1643,-0.6087493317262647,0.0
1644,-1.6400031758982634,0.0
1645,1.645709473545964,0.0
1646,-0.8205298527782023,0.0
1647,0.22873534588556374,0.0
1648,0.06229078209715122,0.0
1649,0.06150153787454856,0.0
1650,-0.026355758445572308,0.0
1651,-0.011167780695483145,0.0
1652,0.02781339283454771,0.0
1653,-0.06642429859507121,0.0
1654,-0.022385128847855353,0.0
1655,0.07410972895423433,0.0
1656,0.06953475512586976,0.0
1657,0.06356722525347819,0.0
1658,0.035660120658129735,0.0
1659,0.02320754730506272,0.0
1660,0.40969459295899374,0.0
1661,3.8719347616926094,0.0
1662,6.819521491347219,0.0
1663,-0.6329694493374939,0.0
1664,-1.6537045390714378,0.0
1665,1.545673126372905,0.0
1666,-0.8405239151525432,0.0
1667,0.23653171575079726,0.0
1668,-0.04674317437089073,0.0
1669,-0.10551325838047262,0.0
1670,0.046473385558816575,0.0
1671,0.036832274806810616,0.0
1672,-0.03262366241546759,0.0
1673,-0.018107488599107536,0.0
1674,0.03135718622402614,0.0
1675,0.014045544362342066,0.0
1676,0.023483724567904193,0.0
1677,0.09131546797493656,0.0
1678,0.04390869776862843,0.0
1679,-0.03477321373530998,0.0
1680,0.29984794025857187,0.0
1681,3.823053450114282,0.0
1682,6.812166365735719,0.0
1683,-0.7294229222747053,0.0
1684,-1.6123535794320247,0.0
1685,1.5082670851759168,0.0
1686,-0.8461408204089624,0.0
1687,0.10621737341848922,0.0
1688,0.06208371593457288,0.0
1689,-0.11066422697050737,0.0
1690,0.04530456068294311,0.0
1691,0.025108675299872932,0.0
1692,-0.010673350851295713,0.0
1693,-0.03824583015468893,0.0
1694,-0.012947694729417116,0.0
1695,-0.10304674568955033,0.0
1696,0.052803930100912944,0.0
1697,0.06780363212081497,0.0
1698,0.03308727591547426,0.0
1699,0.08859956533912597,0.0
1700,0.3978030135437612,0.0
1701,3.8645316389202296,0.0
1702,6.836949396074679,0.0
1703,-0.6593718707666013,0.0
1704,-1.5927906091858914,0.0
1705,1.4951662041013194,0.0
1706,-0.6984952138289442,0.0
1707,0.22088924587362277,0.0
1708,0.06462174901047667,0.0
1709,-0.07099061552459868,0.0
1710,0.03274030510312903,0.0
1711,-0.025177869178820426,0.0
1712,-0.040276945034803974,0.0
1713,-0.08673591333525481,0.0
1714,0.0220711312507894,0.0
1715,-0.1073080461163631,0.0
1716,0.018688551090705337,0.0
1717,0.038045897956389164,0.0
1718,0.013944204262523194,0.0
1719,-0.004574726631032917,0.0
1720,0.35905624774518496,0.0
1721,3.737066722756292,0.0
1722,6.729091028915723,0.0
1723,-0.6646924034087924,0.0
1724,-1.6981764080567185,0.0
1725,1.4496612590811258,0.0
1726,-0.811833619807543,0.0
1727,0.250972064716855,0.0
1728,0.03543427203633028,0.0
1729,-0.12174203723048349,0.0
1730,-0.021535981872356568,0.0
1731,0.02919491158035921,0.0
1732,0.03516171752539447,0.0
1733,-0.018632091379581738,0.0
1734,0.0489739660535327,0.0
1735,-0.010308390515606594,0.0
1736,0.023183601792444997,0.0
1737,0.02787308182722816,0.0
1738,0.03368515492792071,0.0
1739,0.053651295941524006,0.0
1740,0.42666596619316555,0.0
1741,3.760081307879226,0.0
1742,6.782624115406749,0.0
1743,-0.7022991934136125,0.0
1744,-1.6205042729569896,0.0
1745,1.5449805165816997,0.0
1746,-0.7849780162000557,0.0
1747,0.23108081491079568,0.0
1748,-0.05663488709708406,0.0
1749,-0.0043213675820300175,0.0
1750,0.03329433979438884,0.0
1751,-0.053348314006927675,0.0
1752,-0.08049934637077652,0.0
1753,-0.02348714260464351,0.0
1754,0.020545514485709758,0.0
1755,0.0409699688044329,0.0
1756,0.016253343120327828,0.0
1757,-0.024863069280395972,0.0
1758,0.022635003726515696,0.0
1759,-0.01192149398202582,0.0
1760,0.2715847494632499,0.0
1761,3.700346351644734,0.0
1762,6.69593778893408,0.0
1763,-0.7102446509967928,0.0
1764,-1.7225246648374484,0.0
1765,1.4558266325915286,0.0
1766,-0.7252354135953265,0.0
1767,0.1923446843257772,0.0
1768,0.0038631528862892364,0.0
1769,-0.11312741601753992,0.0
1770,0.08711861847103129,0.0
1771,-0.038479213530015925,0.0
1772,-0.022901966787485264,0.0
1773,-0.0753005850670724,0.0
1774,0.09758028072833397,0.0
1775,-0.02833200649576872,0.0
1776,0.049338450089955084,0.0
1777,0.05436868833622466,0.0
1778,-0.03986984065130063,0.0
1779,-0.08378338962131797,0.0
1780,0.44426471203887774,0.0
1781,3.7891140402154657,0.0
1782,6.665915898300294,0.0
1783,-0.8072128144395054,0.0
1784,-1.7247496193835505,0.0
1785,1.5138429333061638,0.0
1786,-0.7885054877752214,0.0
1787,0.1913843480208443,0.0
1788,0.004425498169419156,0.0
1789,-0.02584821667370652,0.0
1790,-0.06437437468191079,0.0
1791,-0.04829591008560766,0.0
1792,-0.03262059231465247,0.0
1793,-0.01542592413460687,0.0
1794,0.059026234075391024,0.0
1795,-0.012870357962907716,0.0
1796,0.007586541304769167,0.0
1797,-0.038685179535235516,0.0
1798,-0.06158094433274197,0.0
1799,-0.034849112794333635,0.0
1800,0.37620120068038304,0.0
1801,3.820839935543806,0.0
1802,6.664264600762162,0.0
1803,-0.7616615785275951,0.0
1804,-1.708449442092173,0.0
1805,1.5405107639422457,0.0
1806,-0.8684010388609994,0.0
1807,0.199956595892874,0.0
1808,0.009760875227970929,0.0
1809,-0.10252059074914892,0.0
1810,-0.04861917824950794,0.0
1811,-0.025472028312479595,0.0
1812,0.009547015434559096,0.0
1813,0.02429173396243351,0.0
1814,0.006142335799810696,0.0
1815,-0.011521879912800057,0.0
1816,-0.06977777227807622,0.0
1817,-0.01911442245430344,0.0
1818,-0.033490693386217185,0.0
1819,-0.03360397859016147,0.0
1820,0.2787402532963257,0.0
1821,3.8130364784420276,0.0
1822,6.635065655301287,0.0
1823,-0.6878233393447317,0.0
1824,-1.7572381131089598,0.0
1825,1.437574008041593,0.0
1826,-0.8491665490898948,0.0
1827,0.20090213948324312,0.0
1828,-0.06780081183728523,0.0
1829,-0.05451232351730333,0.0
1830,-0.04684243748410517,0.0
1831,-0.04160126183795581,0.0
1832,0.049715964690731015,0.0
1833,-0.10403323377667983,0.0
1834,-0.07778482562718572,0.0
1835,-0.1067184961275457,0.0
1836,-0.03281492973098922,0.0
1837,-0.04165193408131497,0.0
1838,-0.12288372244634263,0.0
1839,-0.09480670734569048,0.0
1840,0.3174243205981134,0.0
1841,3.6675602314492406,0.0
1842,6.794282244855876,0.0
1843,-0.7871204248201205,0.0
1844,-1.7308160401839396,0.0
1845,1.5751295023813303,0.0
1846,-0.7000693840232743,0.0
1847,0.1765540205431352,0.0
1848,-0.037583553186389035,0.0
1849,-0.07728483412350941,0.0
1850,0.04314750210460925,0.0
1851,0.005637618689066919,0.0
1852,-0.005046998846874521,0.0
1853,-0.006041002894964807,0.0
1854,-0.03184676750038843,0.0
1855,-0.0400360530531504,0.0
1856,0.07312919845983058,0.0
1857,-0.0835309610028748,0.0
1858,0.0622715669679848,0.0
1859,0.000562628706734486,0.0
1860,0.2211662761480323,0.0
1861,3.7407554038990427,0.0
1862,6.638110426013591,0.0
1863,-0.774280427213796,0.0
1864,-1.708581401001971,0.0
1865,1.3332984286495013,0.0
1866,-0.8834948508749881,0.0
1867,0.11154935450480619,0.0
1868,-0.09891154494173277,0.0
1869,-0.1672947381184197,0.0
1870,0.022560374202853672,0.0
1871,-0.11703647005447401,0.0
1872,0.06290192854319723,0.0
1873,-0.027141460669715102,0.0
1874,0.02061533012613137,0.0
1875,0.12289911257317158,0.0
1876,-0.06796572517511762,0.0
1877,0.06060124656782115,0.0
1878,0.049877983317723786,0.0
1879,0.05887700412339191,0.0
1880,0.40714575024218264,0.0
1881,3.8880337892433365,0.0
1882,6.754766163527853,0.0
1883,-0.6847909443283515,0.0
1884,-1.4729814164550796,0.0
1885,1.4710222645365292,0.0
1886,-0.7379893209944699,0.0
1887,0.17878434199038074,0.0
1888,-0.03709321345272805,0.0
1889,-0.045228041728826586,0.0
1890,-0.011007119082273954,0.0
1891,-0.02603851182419406,0.0
1892,-0.0812743069487211,0.0
1893,-0.11371869776650441,0.0
1894,-0.045696802136022015,0.0
1895,0.05564820204050754,0.0
1896,-0.01377621299361409,0.0
1897,0.018363063139285526,0.0
1898,-0.06842796653924449,0.0
1899,-0.004613164986100336,0.0
1900,0.22871137099049926,0.0
1901,3.8016745189179644,0.0
1902,6.758706066971328,0.0
1903,-0.7464057783436366,0.0
1904,-1.6967203980711472,0.0
1905,1.449055157798496,0.0
1906,-0.7740090102929554,0.0
1907,0.12468035172532095,0.0
1908,-0.015830822534851914,0.0
1909,-0.12610224696201616,0.0
1910,0.021094655496389208,0.0
1911,0.0063941537344618105,0.0
1912,-0.05758310813377457,0.0
1913,-0.0010739368715162664,0.0
1914,-0.07624220554747446,0.0
1915,-0.03390285236099828,0.0
1916,0.005806222492300055,0.0
1917,-0.017336959128458923,0.0
1918,-0.018672979317916984,0.0
1919,-0.04171772587026831,0.0
1920,0.3778650170574478,0.0
1921,3.7954116825388153,0.0
1922,6.666951863941635,0.0
1923,-0.8135269023386895,0.0
1924,-1.7130456683010116,0.0
1925,1.483971286790159,0.0
1926,-0.750340371977618,0.0
1927,0.1305961696696702,0.0
1928,0.031779998824728956,0.0
1929,-0.047151088990355056,0.0
1930,-0.02849186851632237,0.0
1931,-0.10060523243213444,0.0
1932,-0.007818853573954912,0.0
1933,0.012453180919169346,0.0
1934,-0.005830175759317387,0.0
1935,-0.03252025263862499,0.0
1936,-0.016015227747419602,0.0
1937,-0.059581025755258546,0.0
1938,-0.050423668270501765,0.0
1939,-0.0818350278593941,0.0
1940,0.3947518017129711,0.0
1941,3.7899626091603222,0.0
1942,6.60759987532366,0.0
1943,-0.7103698662297238,0.0
1944,-1.642995558781506,0.0
1945,1.4342419471815662,0.0
1946,-0.7646791327769147,0.0
1947,0.20558199340245042,0.0
1948,0.033695417519345544,0.0
1949,-0.060995592319421726,0.0
1950,0.060195728250155484,0.0
1951,-0.04774901799347264,0.0
1952,0.036430356534295764,0.0
1953,-0.03834767417309669,0.0
1954,-0.04681056926005954,0.0
1955,-0.06183438123617846,0.0
1956,-0.053274906515283396,0.0
1957,0.01618832783654305,0.0
1958,-0.08760258798474266,0.0
1959,-0.0910922455268018,0.0
1960,0.3008629936860826,0.0
1961,3.8169280834823556,0.0
1962,6.659335533010042,0.0
1963,-0.7783489668440492,0.0
1964,-1.6714948226052035,0.0
1965,1.4470998505890431,0.0
1966,-0.8718560418780676,0.0
1967,0.10205928711658412,0.0
1968,-0.022532843994823117,0.0
1969,-0.11837980850521727,0.0
1970,-0.044430274453794535,0.0
1971,-0.09159173943353494,0.0
1972,0.011052087809375832,0.0
1973,-0.12982131897836532,0.0
1974,-0.12062645644412241,0.0
1975,0.0193170474046769,0.0
1976,-0.0038570060676754677,0.0
1977,-0.08378381811260042,0.0
1978,-0.006620844638374104,0.0
1979,0.04432986983022841,0.0
1980,0.3204842046981682,0.0
1981,3.835772578268524,0.0
1982,6.8128802318847415,0.0
1983,-0.7672800844317772,0.0
1984,-1.6098974082053494,0.0
1985,1.4633888322639463,0.0
1986,-0.7901500540652124,0.0
1987,0.14257327190187064,0.0
1988,0.02140023195941372,0.0
1989,-0.11512764950108323,0.0
1990,-0.004492623202471312,0.0
1991,-0.0887315813563796,0.0
1992,-0.10413900977450873,0.0
1993,0.005939921370135905,0.0
1994,-0.04223752088467749,0.0
1995,0.09215367076479854,0.0
1996,-0.0960950744972055,0.0
1997,-0.0499136422681688,0.0
1998,-0.04433842310136759,0.0
1999,-0.02422101855882732,0.0
2000,0.33553464217008444,0.0
2001,3.859638385109441,0.0
2002,6.736361726599134,0.0
2003,-0.8046406864691421,0.0
2004,-1.6944376763533384,0.0
2005,1.5029086150768345,0.0
2006,-0.7461901606291386,0.0
2007,0.1315631981580493,0.0
2008,0.02444325834246807,0.0
2009,-0.15636578102917112,0.0
2010,-0.009506319124853346,0.0
2011,0.01101822011844799,0.0
2012,-0.04857879507925378,0.0
2013,-0.018682053965238626,0.0
2014,0.013136694748488865,0.0
2015,-0.03358467844893861,0.0
2016,-0.06360621438015727,0.0
2017,-0.09241990438528183,0.0
2018,-0.08748775303664591,0.0
2019,-0.03329700002264711,0.0
2020,0.304191245524264,0.0
2021,3.7026843130219884,0.0
2022,6.616293493484381,0.0
2023,-0.880289370058145,0.0
2024,-1.7092987845121137,0.0
2025,1.5075130944005164,0.0
2026,-0.8040764115263024,0.0
2027,0.0876675520322997,0.0
2028,-0.06355745473391781,0.0
2029,-0.0023576821865208264,0.0
2030,0.0722535241829973,0.0
2031,0.075383615566996,0.0
2032,0.009993642830282552,0.0
2033,0.0476081698613423,0.0
2034,0.1244083719148443,0.0
2035,-0.07109484084177638,0.0
2036,0.07467631215367608,0.0
2037,0.02088355794090324,0.0
2038,-0.042151689336755074,0.0
2039,-0.004215563958429314,0.0
2040,0.33900084703509686,0.0
2041,3.8862464410555346,0.0
2042,6.6879053577960486,0.0
2043,-0.8675153692478096,0.0
2044,-1.6673266616955624,0.0
2045,1.4014708625519685,0.0
2046,-0.8413096168497972,0.0
2047,0.11157478020726345,0.0
2048,-0.1546073422873826,0.0
2049,-0.2061882242448865,0.0
2050,-0.04944114821300477,0.0
2051,-0.14420313583965455,0.0
2052,-0.10135606535040174,0.0
2053,-0.03540444872111199,0.0
2054,-0.14063372177264383,0.0
2055,-0.08306460997485976,0.0
2056,-0.006323546462744162,0.0
2057,-0.044892496017137025,0.0
2058,-0.15795605628904763,0.0
2059,-0.09806123628033478,0.0
2060,0.25159457515293987,0.0
2061,3.911150949223809,0.0
2062,6.678040787517899,0.0
2063,-0.8385517042632616,0.0
2064,-1.6746175532490484,0.0
2065,1.5259303177507846,0.0
2066,-0.7911372642644652,0.0
2067,0.12406910736010096,0.0
2068,-0.02753121995895105,0.0
2069,0.038815157511767825,0.0
2070,-0.008032911970649707,0.0
2071,-0.16478286000194584,0.0
2072,0.01865129139182735,0.0
2073,-0.022812653978351985,0.0
2074,-0.12208643955685328,0.0
2075,0.024727933720383705,0.0
2076,-0.07997350264743089,0.0
2077,-0.017902773504923336,0.0
2078,-0.06801311105074614,0.0
2079,-0.04373397472055125,0.0
2080,0.277936685455248,0.0
2081,3.7778354238793237,0.0
2082,6.57916862077399,0.0
2083,-0.8192801614361481,0.0
2084,-1.5989467861734779,0.0
2085,1.4801563079645201,0.0
2086,-0.7888240932691767,0.0
2087,0.16434662674025127,0.0
2088,0.03870977637322287,0.0
2089,-0.051006460115716294,0.0
2090,-0.010539613373637378,0.0
2091,-0.028444671787480787,0.0
2092,-0.03553094202370487,0.0
2093,0.05253240791817532,0.0
2094,0.03098678315997015,0.0
2095,0.01920842154115479,0.0
2096,0.06456211073016364,0.0
2097,-0.007162435022343856,0.0
2098,0.06512024802667636,0.0
2099,0.012808013590130288,0.0
2100,0.3412942289072207,0.0
2101,3.908015069481713,0.0
2102,6.63487579784309,0.0
2103,-0.88250369556609,0.0
2104,-1.7604635727331168,0.0
2105,1.4544344807978915,0.0
2106,-0.7915016871045735,0.0
2107,0.13105627209298526,0.0
2108,0.033217189057417204,0.0
2109,-0.1320356576661242,0.0
2110,-0.01686063505401044,0.0
2111,-0.005280883995857341,0.0
2112,-0.06456893343202871,0.0
2113,-0.09448653615048527,0.0
2114,0.040200545827620775,0.0
2115,0.00300815190456679,0.0
2116,-0.03284288238407644,0.0
2117,0.03146928399675947,0.0
2118,-0.04287066604049464,0.0
2119,-0.052037037805774615,0.0
2120,0.3049403850734675,0.0
2121,3.8925171629154955,0.0
2122,6.7000203416738255,0.0
2123,-0.7677580391006045,0.0
2124,-1.6405475779306073,0.0
2125,1.3852457198022279,0.0
2126,-0.8007339756805375,0.0
2127,0.24061270159683584,0.0
2128,0.010720636439764265,0.0
2129,0.005904507314230013,0.0
2130,0.040379644558836816,0.0
2131,-0.07389809496652257,0.0
2132,0.035935062267304696,0.0
2133,-0.07269371634395948,0.0
2134,-0.048974058561910616,0.0
2135,-0.06746611570655327,0.0
2136,-0.04787293605870326,0.0
2137,-0.010390479520473669,0.0
2138,0.024658481814024285,0.0
2139,-0.004876060461008046,0.0
2140,0.46381158638508924,0.0
2141,3.896729390573545,0.0
2142,6.6929332317147745,0.0
2143,-0.9014699539386498,0.0
2144,-1.6821127581526854,0.0
2145,1.4731742739367009,0.0
2146,-0.7214672338950167,0.0
2147,0.12360880205544333,0.0
2148,0.040166466243302834,0.0
2149,-0.052728520602307566,0.0
2150,-0.07742028936869912,0.0
2151,-0.04223457091777189,0.0
2152,-0.10792842571948368,0.0
2153,-0.03572683980343215,0.0
2154,-0.026142481299219915,0.0
2155,-0.03602840888122312,0.0
2156,-0.08307209639453017,0.0
2157,-0.0030045889828557333,0.0
2158,-0.06278463524926597,0.0
2159,-0.006234996167136641,0.0
2160,0.3608642681844837,0.0
2161,3.8281560398992074,0.0
2162,6.689017761579952,0.0
2163,-0.8396313498445785,0.0
2164,-1.6017675396640287,0.0
2165,1.351011933120462,0.0
2166,-0.735961084861742,0.0
2167,0.13445359697116796,0.0
2168,0.030632711727866132,0.0
2169,-0.14769438596943774,0.0
2170,0.0265560468918428,0.0
2171,-0.061509877876987765,0.0
2172,-0.0025572905890254086,0.0
2173,0.06682408136262197,0.0
2174,-0.11054482964640126,0.0
2175,-0.02790534725376652,0.0
2176,0.007645489840145313,0.0
2177,0.010065558635328709,0.0
2178,-0.018663165953199386,0.0
2179,-0.04185922393406502,0.0
2180,0.27086906383576803,0.0
2181,3.9527588698278877,0.0
2182,6.735167929535066,0.0
2183,-0.852896154166793,0.0
2184,-1.6193612022292698,0.0
2185,1.5078610970909112,0.0
2186,-0.8058283561538648,0.0
2187,0.17207336266239714,0.0
2188,-0.002090972644528337,0.0
2189,-0.03251447586994022,0.0
2190,-0.0007986930425499597,0.0
2191,0.01720015012963444,0.0
2192,-0.015061622915808256,0.0
2193,-0.08188665079683552,0.0
2194,0.023214495700298,0.0
2195,-0.08463588267390054,0.0
2196,-0.053967594628145474,0.0
2197,-0.03129951324514093,0.0
2198,-0.0998821325496143,0.0
2199,-0.08960881690782783,0.0
2200,0.28597515662630596,0.0
2201,3.8843922099114825,0.0
2202,6.6086292807617415,0.0
2203,-0.8948795809470792,0.0
2204,-1.5491949059576036,0.0
2205,1.4215038694512483,0.0
2206,-0.8135130110867662,0.0
2207,0.20228617197621962,0.0
2208,0.02870865488103738,0.0
2209,0.031099118176911855,0.0
2210,0.07781781181643638,0.0
2211,0.004154851038972735,0.0
2212,-0.05524049560179436,0.0
2213,0.038822540355085186,0.0
2214,0.08519358909630184,0.0
2215,0.001201464681143332,0.0
2216,-0.0009597173735432923,0.0
2217,0.015657136434483666,0.0
2218,-0.03771521199480028,0.0
2219,-0.06103170738439383,0.0
2220,0.44404675819902945,0.0
2221,3.9028450013396325,0.0
2222,6.653778298508484,0.0
2223,-0.9330354485364021,0.0
2224,-1.5618018749399123,0.0
2225,1.5043968720286887,0.0
2226,-0.7901412472960572,0.0
2227,0.14023526543217452,0.0
2228,-0.10220086654549183,0.0
2229,-0.12315788110285929,0.0
2230,-0.03580693921152679,0.0
2231,-0.15831418828631705,0.0
2232,0.012946569465672762,0.0
2233,-0.07869259174518894,0.0
2234,-0.02960391423026435,0.0
2235,0.011898994681275844,0.0
2236,-0.06340015689534631,0.0
2237,-0.04914270896930176,0.0
2238,-0.024036740203001256,0.0
2239,-0.11394294032192115,0.0
2240,0.3141462028369218,0.0
2241,3.934567087533369,0.0
2242,6.655511329379212,0.0
2243,-0.8892584866849254,0.0
2244,-1.652761143556572,0.0
2245,1.471834120998741,0.0
2246,-0.7611562733456434,0.0
2247,0.15343491954398594,0.0
2248,0.04180812283696942,0.0
2249,-0.12119149228839128,0.0
2250,0.15755147012578094,0.0
2251,0.05793960644323362,0.0
2252,0.03278062207531317,0.0
2253,-0.005267946360708157,0.0
2254,-0.022254453307119264,0.0
2255,-0.028239147877880406,0.0
2256,0.078659997362669,0.0
2257,-0.036043306838507524,0.0
2258,0.057495494793431745,0.0
2259,0.02141641513173808,0.0
2260,0.43693343116168504,0.0
2261,4.014687863877441,0.0
2262,6.728786437203252,0.0
2263,-0.8791979693560302,0.0
2264,-1.610674851192292,0.0
2265,1.4605669110608097,0.0
2266,-0.7574701642328978,0.0
2267,0.1988434611034256,0.0
2268,-0.04122789715385977,0.0
2269,-0.09390921671754879,0.0
2270,0.07870800646112631,0.0
2271,0.057477359028038424,0.0
2272,0.014423830177208871,0.0
2273,-0.06507239267083582,0.0
2274,0.06293329382739618,0.0
2275,0.003497785165866656,0.0
2276,0.04050979742627275,0.0
2277,0.020854068580508277,0.0
2278,-0.04327052236672853,0.0
2279,0.009569937212693235,0.0
2280,0.3338219195281048,0.0
2281,3.929572775956813,0.0
2282,6.73935929011696,0.0
2283,-0.9369421951426671,0.0
2284,-1.6376722034994842,0.0
2285,1.4661561956965192,0.0
2286,-0.7949168080764323,0.0
2287,0.14233652172819383,0.0
2288,0.020763601078750915,0.0
2289,-0.027598427003434227,0.0
2290,0.03181774610901888,0.0
2291,-0.035031355364150356,0.0
2292,-0.04708503674859109,0.0
2293,0.051853579346192585,0.0
2294,-0.04653182259531576,0.0
2295,0.02138325368610632,0.0
2296,0.08437695631579618,0.0
2297,-0.04564949017997831,0.0
2298,0.04451110601152397,0.0
2299,-0.015772659830347757,0.0
2300,0.3692070476738345,0.0
2301,3.8748689607379623,0.0
2302,6.698621576649912,0.0
2303,-0.9395412031567429,0.0
2304,-1.5482449658287236,0.0
2305,1.461528088825813,0.0
2306,-0.7046995756490458,0.0
2307,0.16965249567790802,0.0
2308,-0.05930267590418714,0.0
2309,-0.10815952842301889,0.0
2310,0.0009484203735658919,0.0
2311,0.0012221132983106023,0.0
2312,0.035598444119178986,0.0
2313,-0.0690283138771671,0.0
2314,-0.01931889407658801,0.0
2315,-0.043979528527968326,0.0
2316,0.03775303196056358,0.0
2317,0.02134053306722633,0.0
2318,0.04349852900098358,0.0
2319,-0.028831067934705114,0.0
2320,0.3640799301007491,0.0
2321,3.944904700876853,0.0
2322,6.700101122250619,0.0
2323,-0.8056126643762427,0.0
2324,-1.5714655576567753,0.0
2325,1.3989720048597378,0.0
2326,-0.7496723376357866,0.0
2327,0.2989988646024152,0.0
2328,0.0503055857805585,0.0
2329,-0.08425816019994316,0.0
2330,0.01712286118047563,0.0
2331,0.02256968048854887,0.0
2332,0.03647027848471929,0.0
2333,0.03193148905542076,0.0
2334,0.09701393474765566,0.0
2335,0.026692041118735355,0.0
2336,0.11779061323852781,0.0
2337,0.019883456313888544,0.0
2338,-0.005225161259843739,0.0
2339,-0.0015590247915896471,0.0
2340,0.3002066977890038,0.0
2341,3.9248418093180986,0.0
2342,6.81220438905864,0.0
2343,-0.8346472062942939,0.0
2344,-1.5937354192003563,0.0
2345,1.4252583708133169,0.0
2346,-0.7407755992376623,0.0
2347,0.09208214712341735,0.0
2348,0.03335673665419904,0.0
2349,-0.07945005002672699,0.0
2350,0.102781768991663,0.0
2351,0.0118464622974598,0.0
2352,-0.010633316238710305,0.0
2353,0.08304378796279971,0.0
2354,-0.011474517022592293,0.0
2355,-0.09429730847831382,0.0
2356,-0.028751731839604413,0.0
2357,0.06557363054422691,0.0
2358,0.0168603056140784,0.0
2359,0.03737491888742776,0.0
2360,0.34980270417362735,0.0
2361,3.897853629139258,0.0
2362,6.655417879111342,0.0
2363,-0.8509669512901669,0.0
2364,-1.6001615649029952,0.0
2365,1.5186957314585536,0.0
2366,-0.7443584258782373,0.0
2367,0.22923454049727846,0.0
2368,0.02545953656233722,0.0
2369,0.01707522284561221,0.0
2370,0.06321549503591642,0.0
2371,0.024861966346071133,0.0
2372,0.0578500992283061,0.0
2373,0.040427313293691605,0.0
2374,0.10321159389074405,0.0
2375,0.0750573556122652,0.0
2376,-0.0153617201395898,0.0
2377,0.05001586805556733,0.0
2378,0.08951313133277919,0.0
2379,0.05177472732248475,0.0
2380,0.44250582201445904,0.0
2381,4.043572429374133,0.0
2382,6.824628553133367,0.0
2383,-0.7959670942888614,0.0
2384,-1.537822963146835,0.0
2385,1.4415275959552123,0.0
2386,-0.7128336893225007,0.0
2387,0.1941530427601488,0.0
2388,0.027089891503723512,0.0
2389,0.06661990342116399,0.0
2390,0.06732707972892307,0.0
2391,0.045724158100924193,0.0
2392,0.008930872925802729,0.0
2393,0.04875486577598051,0.0
2394,-0.011992517361035423,0.0
2395,0.08069662754348333,0.0
2396,0.08459562984764547,0.0
2397,-0.10979088932651922,0.0
2398,-0.04515591831931437,0.0
2399,-0.015078592917536106,0.0
2400,0.34121014876084155,0.0
2401,3.955680675262877,0.0
2402,6.690084383312792,0.0
2403,-0.9690615893744063,0.0
2404,-1.5581666187143002,0.0
2405,1.4125461800737023,0.0
2406,-0.7257936028491313,0.0
2407,0.1728544513788859,0.0
2408,-0.024964341375040486,0.0
2409,0.00810453750458932,0.0
2410,0.06295582407337838,0.0
2411,-0.08162794644342554,0.0
2412,0.026868273952326528,0.0
2413,0.08365002261245666,0.0
2414,0.08661721581305612,0.0
2415,0.043321643525497895,0.0
2416,0.13699075575605482,0.0
2417,0.054625153657383456,0.0
2418,-0.0865621922105434,0.0
2419,-0.030018502099610087,0.0
2420,0.4004106028617769,0.0
2421,3.8787713740698093,0.0
2422,6.654343782341786,0.0
2423,-0.9293580042353451,0.0
2424,-1.6218024245038047,0.0
2425,1.5099105176620249,0.0
2426,-0.7729085165047651,0.0
2427,0.1893224683644691,0.0
2428,-0.0825818453825291,0.0
2429,0.09309709364690641,0.0
2430,0.06691433442838546,0.0
2431,0.02184319308193611,0.0
2432,-0.040337146687647575,0.0
2433,0.035270358381205826,0.0
2434,-0.020095016469814327,0.0
2435,0.11432984993183706,0.0
2436,0.032332886263679625,0.0
2437,0.0654000533625958,0.0
2438,0.07556290785833808,0.0
2439,0.011824987236658736,0.0
2440,0.4772567738681087,0.0
2441,4.096448935253384,0.0
2442,6.857283440694337,0.0
2443,-0.8545827478013023,0.0
2444,-1.5567460339031245,0.0
2445,1.4790591820976384,0.0
2446,-0.7030582712698463,0.0
2447,0.14365032449982082,0.0
2448,-0.0009463334265250242,0.0
2449,0.05285248173091539,0.0
2450,0.040206945324535705,0.0
2451,0.032357665049982144,0.0
2452,-0.051890098918517785,0.0
2453,-0.003999849739671602,0.0
2454,-0.030587238187894994,0.0
2455,0.04770364704844729,0.0
2456,-0.12608565316143647,0.0
2457,-0.04771162833972418,0.0
2458,-0.016772798517760965,0.0
2459,-0.0895386865052582,0.0
2460,0.33399495542483587,0.0
2461,3.894758939089812,0.0
2462,6.655607658945188,0.0
2463,-1.0767384618540992,0.0
2464,-1.5499079414436197,0.0
2465,1.4462935769907628,0.0
2466,-0.8248753289707275,0.0
2467,0.21259242644325546,0.0
2468,-0.05901311112748206,0.0
2469,0.014142772448592467,0.0
2470,-0.02673712098992294,0.0
2471,-0.09199707704759451,0.0
2472,-0.006957077790554975,0.0
2473,-0.012224079579943663,0.0
2474,0.034282058773974944,0.0
2475,0.07526566892027955,0.0
2476,0.0426765505174708,0.0
2477,-0.0011312687226851317,0.0
2478,-0.033932830767232566,0.0
2479,0.10912861376139792,0.0
2480,0.36209347652355006,0.0
2481,3.946103450471261,0.0
2482,6.7898692630326405,0.0
2483,-0.8959530008920523,0.0
2484,-1.5518646355651329,0.0
2485,1.5060102568974973,0.0
2486,-0.7679933279050519,0.0
2487,0.28182803040472554,0.0
2488,-0.02923653524445568,0.0
2489,-0.041139138156213895,0.0
2490,0.014836889855519148,0.0
2491,0.0725736348837924,0.0
2492,0.034220388333673385,0.0
2493,0.07348779746431282,0.0
2494,0.01819291895263139,0.0
2495,-0.008298924019559971,0.0
2496,0.014388471232236298,0.0
2497,-0.029538706146425175,0.0
2498,0.04261351252726807,0.0
2499,0.03701087693416276,0.0
2500,0.3651746606077326,0.0
2501,3.991906062753631,0.0
2502,6.701509724673072,0.0
2503,-0.8726064608145804,0.0
2504,-1.619181037312568,0.0
2505,1.4879479872251278,0.0
2506,-0.7482272554057846,0.0
2507,0.17989106073515918,0.0
2508,0.01968010295082443,0.0
2509,-0.025465677952360984,0.0
2510,-0.0191032505494104,0.0
2511,-0.10741491194931053,0.0
2512,0.02968651041013748,0.0
2513,0.015026482253563742,0.0
2514,0.015548284799697706,0.0
2515,0.03955144550290167,0.0
2516,-0.0023395360138788873,0.0
2517,0.027023647020526644,0.0
2518,0.008924354613615616,0.0
2519,-0.04379984375355768,0.0
2520,0.3224587717356141,0.0
2521,3.910823330558257,0.0
2522,6.5851023079658395,0.0
2523,-0.9239675245269126,0.0
2524,-1.6047201780033766,0.0
2525,1.4359551219395124,0.0
2526,-0.8821935542140694,0.0
2527,0.11476905693982804,0.0
2528,0.00397505713087111,0.0
2529,0.017364644731992895,0.0
2530,0.065948475415725,0.0
2531,-0.07964970087279043,0.0
2532,-0.07854037782705196,0.0
2533,-0.13935503261725984,0.0
2534,-0.07216591654929282,0.0
2535,0.04045193585874632,0.0
2536,0.0688545150324011,0.0
2537,-0.09748831570421455,0.0
2538,-0.0454995765966969,0.0
2539,-0.03727214269888717,0.0
2540,0.3598662392675023,0.0
2541,3.8510159881986445,0.0
2542,6.52641060302455,0.0
2543,-1.0225760688217609,0.0
2544,-1.6159241199289374,0.0
2545,1.429694162228806,0.0
2546,-0.8541063238636308,0.0
2547,0.20723476399385726,0.0
2548,-0.03148114535629537,0.0
2549,-0.09560244353132569,0.0
2550,-0.019379146262776765,0.0
2551,-0.11097258771417462,0.0
2552,-0.0232477756338254,0.0
2553,-0.04657055666771681,0.0
2554,-0.0049423585065474385,0.0
2555,0.037275700817829986,0.0
2556,-0.02816837858980756,0.0
2557,0.03273335894945591,0.0
2558,-0.07479212264949867,0.0
2559,-0.03626466528934306,0.0
2560,0.42016303666205324,0.0
2561,3.964805447312969,0.0
2562,6.642329561582742,0.0
2563,-0.9843825335685642,0.0
2564,-1.6241022922552357,0.0
2565,1.372072296300813,0.0
2566,-0.8568188660101383,0.0
2567,0.12248248336230916,0.0
2568,-0.13505601188425492,0.0
2569,-0.25967148535298346,0.0
2570,-0.07636695822554594,0.0
2571,-0.20480736138031172,0.0
2572,-0.09960994911298451,0.0
2573,-0.1864568024261503,0.0
2574,-0.14188830985290607,0.0
2575,-0.11254661108951997,0.0
2576,-0.09316340728198094,0.0
2577,-0.07556951078610646,0.0
2578,-0.1110089473312836,0.0
2579,-0.11465212209669151,0.0
2580,0.3085305616376151,0.0
2581,3.984893524035025,0.0
2582,6.597934492672547,0.0
2583,-1.1054843313769294,0.0
2584,-1.5220249009111366,0.0
2585,1.4108336482318102,0.0
2586,-0.8674498342745692,0.0
2587,0.14723155632692675,0.0
2588,-0.0391323097536939,0.0
2589,-0.126216023405531,0.0
2590,-0.06396555175995229,0.0
2591,-0.09623738711365065,0.0
2592,-0.10230109475935432,0.0
2593,-0.1122335894406622,0.0
2594,-0.09675663625096838,0.0
2595,-0.05847350477509279,0.0
2596,-0.017393780509215542,0.0
2597,-0.15308144822979108,0.0
2598,-0.053592495843431634,0.0
2599,-0.08457724271631582,0.0
2600,0.23302000995544003,0.0
2601,3.9976569409044638,0.0
2602,6.637971550646441,0.0
2603,-1.050572455261638,0.0
2604,-1.5942809337193624,0.0
2605,1.39457772615302,0.0
2606,-0.8586081790631822,0.0
2607,0.15139432036831232,0.0
2608,-0.030145232610433947,0.0
2609,-0.11343790605536277,0.0
2610,-0.011682234320092851,0.0
2611,-0.031203940470141623,0.0
2612,-0.01599070968430598,0.0
2613,-0.04552973657969952,0.0
2614,0.0125728391725927,0.0
2615,0.0655346222425878,0.0
2616,-0.03010366731225908,0.0
2617,-0.06443764804716545,0.0
2618,-0.035518323349711445,0.0
2619,-0.10239143585858844,0.0
2620,0.4170760773995902,0.0
2621,3.9446575560112795,0.0
2622,6.586274225920483,0.0
2623,-0.9906203533484883,0.0
2624,-1.5883980900260555,0.0
2625,1.453529315337565,0.0
2626,-0.8009142881232493,0.0
2627,0.18410195459136558,0.0
2628,-0.09088494345167655,0.0
2629,-0.06451558078501245,0.0
2630,-0.06904280655800357,0.0
2631,-0.07395946256777633,0.0
2632,-0.11703906590030147,0.0
2633,0.0514850249400726,0.0
2634,-0.06641029030575146,0.0
2635,-0.01678331333807615,0.0
2636,-0.06172934126077709,0.0
2637,-0.028514161809032372,0.0
2638,-0.1263564119113376,0.0
2639,0.013349441120072442,0.0
2640,0.3080081347690502,0.0
2641,3.947341080241257,0.0
2642,6.622486452290953,0.0
2643,-1.0648375223109674,0.0
2644,-1.5258315150545632,0.0
2645,1.3411706206892495,0.0
2646,-0.9919598712929755,0.0
2647,0.1809446456495559,0.0
2648,-0.11361722626379936,0.0
2649,-0.07820598369929957,0.0
2650,-0.016471642416558383,0.0
2651,0.018519952879107224,0.0
2652,-0.032315004679306376,0.0
2653,-0.009957788372136171,0.0
2654,-0.06291934578433839,0.0
2655,-0.015758139274272907,0.0
2656,-0.05767423819542216,0.0
2657,0.0386510121538681,0.0
2658,0.07754244655072064,0.0
2659,-0.06546263090975789,0.0
2660,0.28746444908553703,0.0
2661,4.071813169565002,0.0
2662,6.576854807709842,0.0
2663,-0.9922806787318755,0.0
2664,-1.6186232955443187,0.0
2665,1.4253577421562964,0.0
2666,-0.8040924629757743,0.0
2667,0.19789002698091843,0.0
2668,-0.007281662227517541,0.0
2669,-0.12677051216559818,0.0
2670,-0.0854086113546735,0.0
2671,-0.028576649010156253,0.0
2672,-0.07881961311560433,0.0
2673,-0.048296735733637436,0.0
2674,-0.04257532005252187,0.0
2675,-0.08106859335141563,0.0
2676,-0.13399638324719138,0.0
2677,-0.08077457256210241,0.0
2678,-0.03891376469332924,0.0
2679,-0.039541933107551636,0.0
2680,0.2832502702933264,0.0
2681,3.984793914188273,0.0
2682,6.472706599101356,0.0
2683,-1.0190963280356546,0.0
2684,-1.5977608353373456,0.0
2685,1.408619578430822,0.0
2686,-0.7757520449728064,0.0
2687,0.1728657865636561,0.0
2688,-0.03217903988148045,0.0
2689,-0.16310145314804542,0.0
2690,-0.0388156525236861,0.0
2691,-0.05164379223694731,0.0
2692,-0.05062281772236483,0.0
2693,-0.014916998144913207,0.0
2694,0.030810509942142704,0.0
2695,0.06119012848554868,0.0
2696,-0.04052604503597901,0.0
2697,-0.0446631499081645,0.0
2698,0.03600348309308984,0.0
2699,-0.16479494581604956,0.0
2700,0.32185876971561267,0.0
2701,3.90432500805284,0.0
2702,6.674223847199122,0.0
2703,-1.0324419016959636,0.0
2704,-1.614171553416175,0.0
2705,1.4893465223576199,0.0
2706,-0.8397126242607361,0.0
2707,0.26708891752243336,0.0
2708,-0.11363119754758852,0.0
2709,-0.08731018340900798,0.0
2710,-0.04995414279728452,0.0
2711,-0.0927068549349156,0.0
2712,-0.1475300798412542,0.0
2713,-0.12459895612774664,0.0
2714,0.0893126276269912,0.0
2715,0.08184580222838471,0.0
2716,0.04421162484465506,0.0
2717,-0.020973322122100024,0.0
2718,-0.09132096525300193,0.0
2719,-0.042215874126746857,0.0
2720,0.3028466938420072,0.0
2721,3.9273355308631763,0.0
2722,6.553399055533807,0.0
2723,-1.1369855770092383,0.0
2724,-1.6431866529246233,0.0
2725,1.3181560817771034,0.0
2726,-0.8907503436535781,0.0
2727,0.12266402137851282,0.0
2728,-0.08149848957092982,0.0
2729,-0.07482052228472169,0.0
2730,-0.058358990277042506,0.0
2731,-0.10916853312850905,0.0
2732,-0.09030928875186557,0.0
2733,-0.06103582052526107,0.0
2734,-0.14398864885244794,0.0
2735,-0.07037674785984192,0.0
2736,-0.1851586519104433,0.0
2737,-0.053748368398890536,0.0
2738,-0.01221123640642683,0.0
2739,-0.02421722254678886,0.0
2740,0.3269190920128566,0.0
2741,3.9095799599150953,0.0
2742,6.549440669611308,0.0
2743,-0.9657480203855131,0.0
2744,-1.4880925595258843,0.0
2745,1.4831086993723732,0.0
2746,-0.9214665764748883,0.0
2747,0.20236186968103886,0.0
2748,-0.09749251681228768,0.0
2749,-0.12345531083193273,0.0
2750,-0.08146771747514017,0.0
2751,-0.018978210032469772,0.0
2752,-0.09070742827428167,0.0
2753,-0.1102590103057523,0.0
2754,-0.09234038872349067,0.0
2755,-0.08855189572819447,0.0
2756,-0.13417766634968809,0.0
2757,-0.1073552944162165,0.0
2758,-0.05261304730803662,0.0
2759,-0.10781213049892932,0.0
2760,0.2187133420703843,0.0
2761,3.97565194294193,0.0
2762,6.598918162962484,0.0
2763,-1.0118615352021678,0.0
2764,-1.6687015152300158,0.0
2765,1.3984324538370758,0.0
2766,-0.8337736922546486,0.0
2767,0.10100468281274944,0.0
2768,-0.09196567517297224,0.0
2769,-0.13724619434521976,0.0
2770,-0.07311015595160172,0.0
2771,-0.060470016393329676,0.0
2772,-0.1197216032724575,0.0
2773,-0.04753914269650239,0.0
2774,-0.06818957500481873,0.0
2775,-0.11123541588035304,0.0
2776,-0.026061994556222316,0.0
2777,-0.08941923104391723,0.0
2778,-0.10064589005040217,0.0
2779,-0.03186260488355279,0.0
2780,0.28769732958422195,0.0
2781,3.8803344538368085,0.0
2782,6.544883948692075,0.0
2783,-1.0691879349010898,0.0
2784,-1.6471789642775434,0.0
2785,1.3348759027405674,0.0
2786,-0.9630282797905754,0.0
2787,0.11705276234561826,0.0
2788,-0.13435932819165472,0.0
2789,-0.10233626645810562,0.0
2790,-0.05019504051568112,0.0
2791,-0.08713279200983504,0.0
2792,-0.06987594610337114,0.0
2793,-0.16982530242104665,0.0
2794,-0.14954173107013036,0.0
2795,-0.15466613658751405,0.0
2796,-0.13944263286936823,0.0
2797,-0.006723035074347114,0.0
2798,-0.02666212715284512,0.0
2799,-0.10884632457331662,0.0
2800,0.19347293742432164,0.0
2801,3.974929998917395,0.0
2802,6.631533806474638,0.0
2803,-1.1291392493658146,0.0
2804,-1.4664851939581527,0.0
2805,1.319618209025535,0.0
2806,-0.8685753997005656,0.0
2807,0.21403387962206336,0.0
2808,-0.02558152910904878,0.0
2809,-0.12503356568010182,0.0
2810,0.02463070024840569,0.0
2811,-0.03898081982411083,0.0
2812,-0.014752221625155935,0.0
2813,0.04781328058617993,0.0
2814,-0.06927922671851351,0.0
2815,0.03170822392733359,0.0
2816,0.07695350890065884,0.0
2817,-0.10570201660568279,0.0
2818,0.020628929952159474,0.0
2819,-0.048604307397118865,0.0
2820,0.32939055569157744,0.0
2821,3.95408387628024,0.0
2822,6.544872809659068,0.0
2823,-1.0218257488610623,0.0
2824,-1.4926643461748728,0.0
2825,1.3556711073214867,0.0
2826,-0.8005182340466075,0.0
2827,0.1367859548952347,0.0
2828,-0.024470452364491517,0.0
2829,0.0026302631682931926,0.0
2830,-0.019904517097162282,0.0
2831,-0.0064942788232468796,0.0
2832,-0.16611876135358578,0.0
2833,-0.014742949122478373,0.0
2834,-0.04788274595282557,0.0
2835,-0.11251732405867568,0.0
2836,-0.10541383748804636,0.0
2837,-0.04529983613932701,0.0
2838,-0.05701458341012054,0.0
2839,-0.13649568017269498,0.0
2840,0.33875915142111224,0.0
2841,3.8961927936340115,0.0
2842,6.581317869054404,0.0
2843,-1.149963915743624,0.0
2844,-1.5099752138909377,0.0
2845,1.4195538753765524,0.0
2846,-0.8602413288133339,0.0
2847,0.09815315793652761,0.0
2848,-0.06760080436279274,0.0
2849,-0.07391099829637092,0.0
2850,0.037296302577521076,0.0
2851,-0.0811309769267882,0.0
2852,-0.11126784945712051,0.0
2853,0.014166129028820348,0.0
2854,-0.0415902148593935,0.0
2855,-0.05484796907400992,0.0
2856,-0.06726844883623548,0.0
2857,-0.017532660063131703,0.0
2858,-0.04832151250227522,0.0
2859,-0.00997966361874697,0.0
2860,0.39343618679658987,0.0
2861,3.8867675255015532,0.0
2862,6.578713392671305,0.0
2863,-1.06422682841036,0.0
2864,-1.4930840943451815,0.0
2865,1.4137219634428526,0.0
2866,-0.7778834528164424,0.0
2867,0.11881752328743939,0.0
2868,-0.062693833220621,0.0
2869,-0.11522261005511374,0.0
2870,-0.06620390773807414,0.0
2871,-0.00870513944518482,0.0
2872,0.013253395313266345,0.0
2873,-0.07445020881754957,0.0
2874,-0.06296311802258846,0.0
2875,-0.09942346363285577,0.0
2876,-0.08600187764554434,0.0
2877,-0.03222720735954425,0.0
2878,-0.019861811856573215,0.0
2879,0.04568104346522707,0.0
2880,0.37485505886726916,0.0
2881,4.008942843216495,0.0
2882,6.650762511678477,0.0
2883,-1.0048257378135306,0.0
2884,-1.4846610538375726,0.0
2885,1.473382547203668,0.0
2886,-0.828226709396677,0.0
2887,0.238200935082668,0.0
2888,0.030212320423908534,0.0
2889,-0.04187457108317967,0.0
2890,0.02105204256626851,0.0
2891,-0.11496038957437169,0.0
2892,-0.05301194602554012,0.0
2893,0.003910093217257347,0.0
2894,0.03076806777446986,0.0
2895,0.05690056945746559,0.0
2896,0.01620847890609406,0.0
2897,-0.060270844988373956,0.0
2898,0.021178837762899333,0.0
2899,0.042919110691464035,0.0
2900,0.43585245363098346,0.0
2901,4.053054308456825,0.0
2902,6.680524205853212,0.0
2903,-1.0149415573270473,0.0
2904,-1.4727989242757535,0.0
2905,1.516731821454004,0.0
2906,-0.7223560770166395,0.0
2907,0.12240468879074914,0.0
2908,-0.1472898382021567,0.0
2909,-0.07808510137845502,0.0
2910,0.06821073168078934,0.0
2911,-0.07870939045579234,0.0
2912,0.02806225917308804,0.0
2913,-0.027418740360485104,0.0
2914,0.0029026898224707933,0.0
2915,0.03554796172488742,0.0
2916,0.024884506159439372,0.0
2917,-0.004675384972631788,0.0
2918,-0.015363130172235697,0.0
2919,0.03438881102730475,0.0
2920,0.27991205531070024,0.0
2921,3.9750710419785866,0.0
2922,6.634684395469728,0.0
2923,-0.9999951553062931,0.0
2924,-1.4362024697640807,0.0
2925,1.458047723994958,0.0
2926,-0.7757343000361756,0.0
2927,0.3027343824440811,0.0
2928,0.00019792200833081489,0.0
2929,0.020664993857295817,0.0
2930,0.03847362402637959,0.0
2931,0.02016157856105403,0.0
2932,0.0900573849972744,0.0
2933,0.1335332025914883,0.0
2934,0.0781150597765957,0.0
2935,0.08934597730563222,0.0
2936,0.09369561565257731,0.0
2937,0.11382940658813505,0.0
2938,0.013195835730821573,0.0
2939,0.1105528905238911,0.0
2940,0.4343188569372518,0.0
2941,4.0497166554133734,0.0
2942,6.756972508513787,0.0
2943,-0.9945918094628468,0.0
2944,-1.4305377954888125,0.0
2945,1.4770353236668363,0.0
2946,-0.657863223872767,0.0
2947,0.2771203311848763,0.0
2948,0.034043017953695916,0.0
2949,0.10687479934480437,0.0
2950,0.11820306163239391,0.0
2951,0.04113093495778093,0.0
2952,0.17860301638750592,0.0
2953,0.14478481514203412,0.0
2954,-0.0012826389550468914,0.0
2955,0.11474238697491303,0.0
2956,0.08948988771759864,0.0
2957,-0.008738252857279173,0.0
2958,0.059872439448051956,0.0
2959,0.10565443375522313,0.0
2960,0.43066197963158104,0.0
2961,4.070124329779738,0.0
2962,6.66933222237847,0.0
2963,-0.9538629951919371,0.0
2964,-1.394494281198773,0.0
2965,1.4565231053996885,0.0
2966,-0.7080711545135686,0.0
2967,0.2478475922412507,0.0
2968,-0.02587587397838112,0.0
2969,-0.0626733810144031,0.0
2970,0.06418390538723712,0.0
2971,-0.03945323624904017,0.0
2972,0.026754211342953502,0.0
2973,0.06341782522273644,0.0
2974,0.02768344122159449,0.0
2975,0.017191728334385897,0.0
2976,0.07616787469558975,0.0
2977,0.04152010167695243,0.0
2978,-0.03949204791550315,0.0
2979,-0.0638914543178068,0.0
2980,0.4074904961661806,0.0
2981,4.020027173937902,0.0
2982,6.665240979980218,0.0
2983,-1.0340241729438406,0.0
2984,-1.6387987022663808,0.0
2985,1.4676873257256247,0.0
2986,-0.7662749743087004,0.0
2987,0.24760369950099625,0.0
2988,-0.038970510871458294,0.0
2989,0.03330699153293741,0.0
2990,0.07888815404645314,0.0
2991,0.009491040807218456,0.0
2992,0.04318995841174271,0.0
2993,0.0401949069983308,0.0
2994,0.019686161451048657,0.0
2995,0.0669027935343748,0.0
2996,0.003448579867882863,0.0
2997,0.0012935289886877518,0.0
2998,-0.04222156902293227,0.0
2999,-0.03044979255717354,0.0
3000,0.3902933497500176,0.0
3001,4.005009520889117,0.0
3002,6.6552576387072735,0.0
3003,-1.1284996109590828,0.0
3004,-1.5077868411415163,0.0
3005,1.4320220713873704,0.0
3006,-0.7540456515310803,0.0
3007,0.16257752391036798,0.0
3008,-0.09919976889126482,0.0
3009,-0.044062884485742554,0.0
3010,-0.011223420596318517,0.0
3011,0.004193263114538534,0.0
3012,-0.010632120781931424,0.0
3013,0.018787846738739393,0.0
3014,0.02200371510022562,0.0
3015,-0.07263256704526716,0.0
3016,-0.05382942439159042,0.0
3017,-0.041096435814950164,0.0
3018,-0.05047244872099875,0.0
3019,-0.12139326059698599,0.0
3020,0.35278392851191614,0.0
3021,4.067520947853559,0.0
3022,6.579306066059225,0.0
3023,-1.0929626263924903,0.0
3024,-1.4252331477036915,0.0
3025,1.416894300931311,0.0
3026,-0.9084198285613643,0.0
3027,0.12995702470705547,0.0
3028,-0.05003778125818999,0.0
3029,-0.045871885586701744,0.0
3030,-0.0041952882473702685,0.0
3031,-0.06520701412120494,0.0
3032,-0.010487928902863965,0.0
3033,-0.07631514739486472,0.0
3034,-0.05537972647167759,0.0
3035,0.011562624201011083,0.0
3036,-0.016097592972123584,0.0
3037,-0.08188967057423108,0.0
3038,-0.07587505096775131,0.0
3039,-0.0440342586068289,0.0
3040,0.31060123489798563,0.0
3041,4.021963103845397,0.0
3042,6.6466319428098934,0.0
3043,-1.1244857338328051,0.0
3044,-1.4808410532944638,0.0
3045,1.4276005025053655,0.0
3046,-0.7733132612169241,0.0
3047,0.21591425490426192,0.0
3048,0.007501174517857256,0.0
3049,-0.08574882514615548,0.0
3050,-0.13954206845102568,0.0
3051,-0.0028215208295074186,0.0
3052,0.06262867337145289,0.0
3053,-0.031781992386710575,0.0
3054,-0.08858091669443106,0.0
3055,0.030037274914305814,0.0
3056,0.029506165714432923,0.0
3057,-0.07574894491825374,0.0
3058,0.012423244889297445,0.0
3059,-0.050630656013337036,0.0
3060,0.43124871298863876,0.0
3061,4.098683815574964,0.0
3062,6.6481072451127545,0.0
3063,-1.0019317223712858,0.0
3064,-1.414962069101867,0.0
3065,1.3784240662778524,0.0
3066,-0.8003067825218848,0.0
3067,0.23358928438596765,0.0
3068,0.014617256278949109,0.0
3069,-0.09817462338166813,0.0
3070,-0.016953411763834213,0.0
3071,-0.06584694019849811,0.0
3072,-0.05125005203328853,0.0
3073,-0.0012130971793749765,0.0
3074,-0.06517719012948056,0.0
3075,-0.017002073885805255,0.0
3076,-0.06805865311179657,0.0
3077,-0.03369160120829187,0.0
3078,-0.07784323938278828,0.0
3079,-0.0368697678345925,0.0
3080,0.4066733525387999,0.0
3081,4.031561687942125,0.0
3082,6.657275060796816,0.0
3083,-1.1090055983221485,0.0
3084,-1.4498459032551043,0.0
3085,1.3487612297547422,0.0
3086,-0.7882867711302158,0.0
3087,0.18830495269300318,0.0
3088,0.054691099706809486,0.0
3089,-0.01894323479744066,0.0
3090,0.0003401390854580605,0.0
3091,-0.09535252663538944,0.0
3092,0.03220487340591821,0.0
3093,-0.12186155662860257,0.0
3094,0.005836185449638544,0.0
3095,-0.0679748929108738,0.0
3096,-0.05661508730707042,0.0
3097,0.0016797961537587868,0.0
3098,0.037651073316540114,0.0
3099,-0.008788539046443137,0.0
3100,0.40985879363884226,0.0
3101,4.186456657479231,0.0
3102,6.698746534330652,0.0
3103,-1.0680487129942067,0.0
3104,-1.3887005956201866,0.0
3105,1.4584123554412658,0.0
3106,-0.7503024059557954,0.0
3107,0.19346572045313767,0.0
3108,0.0633066110989577,0.0
3109,-0.03268952459574794,0.0
3110,-0.02034240575166493,0.0
3111,-0.059773242323734356,0.0
3112,0.07331940059995476,0.0
3113,-0.019584010448271755,0.0
3114,-0.011527230309396272,0.0
3115,0.04807840641850304,0.0
3116,0.03662757567162496,0.0
3117,0.015296009224578631,0.0
3118,-0.03220025978877457,0.0
3119,-0.06810821751932579,0.0
3120,0.4231031567758582,0.0
3121,4.095639816154107,0.0
3122,6.650657331313288,0.0
3123,-1.0321534891020998,0.0
3124,-1.4720854138640678,0.0
3125,1.4811463926115658,0.0
3126,-0.7893543114569667,0.0
3127,0.24508280475760283,0.0
3128,0.017828309616518774,0.0
3129,0.034624098855454,0.0
3130,0.11505173272433114,0.0
3131,0.053736661614737155,0.0
3132,-0.03048460575013885,0.0
3133,0.020659164881434877,0.0
3134,0.11402999405768437,0.0
3135,0.04052850893609218,0.0
3136,0.006623762688039982,0.0
3137,0.04867943399894547,0.0
3138,-0.0421365857277064,0.0
3139,-0.038257369086228205,0.0
3140,0.36649020007023886,0.0
3141,4.061530103450471,0.0
3142,6.644563123899847,0.0
3143,-1.1011987414129747,0.0
3144,-1.402005213114017,0.0
3145,1.4605058696075002,0.0
3146,-0.7860484654331494,0.0
3147,0.28169683989531547,0.0
3148,0.013646682491997832,0.0
3149,0.06004438923487983,0.0
3150,0.037447422630524516,0.0
3151,-0.11563898478744376,0.0
3152,0.011002688697361502,0.0
3153,-0.08671209503994387,0.0
3154,0.04576595147168474,0.0
3155,-0.0362858293598909,0.0
3156,0.056103464280078605,0.0
3157,-0.028533483938124802,0.0
3158,0.011513776840543707,0.0
3159,0.036938612951827286,0.0
3160,0.3680831196681252,0.0
3161,4.116707518353081,0.0
3162,6.548230672355567,0.0
3163,-1.1505324227050953,0.0
3164,-1.4531342831349499,0.0
3165,1.4008154748122548,0.0
3166,-0.8027392049119697,0.0
3167,0.2736709634165122,0.0
3168,0.021176716008157945,0.0
3169,-0.03399625818293512,0.0
3170,0.0804699910393924,0.0
3171,0.031828075233161335,0.0
3172,0.06607115536654098,0.0
3173,0.05972773120709833,0.0
3174,-0.041580482740519176,0.0
3175,0.07064659935673197,0.0
3176,0.0832835958108081,0.0
3177,-0.04371118448837591,0.0
3178,-0.030393129549519386,0.0
3179,-0.020350293315217767,0.0
3180,0.4704108127739257,0.0
3181,4.01503201717419,0.0
3182,6.667530926583103,0.0
3183,-1.0913287019204851,0.0
3184,-1.554762932172044,0.0
3185,1.3973533816031831,0.0
3186,-0.7790978699257216,0.0
3187,0.27960244112934063,0.0
3188,0.014107503411947702,0.0
3189,0.016758155651382355,0.0
3190,0.014840265915239178,0.0
3191,-0.04759161049499466,0.0
3192,0.04492797146654687,0.0
3193,0.047264766185499685,0.0
3194,-0.03808689355814835,0.0
3195,-0.07433163807351448,0.0
3196,0.01835643672693695,0.0
3197,-0.016198785575063525,0.0
3198,-0.027271450967207733,0.0
3199,0.05605288999129538,0.0
3200,0.375203125333619,0.0
3201,4.049282133862277,0.0
3202,6.566578232771413,0.0
3203,-1.086519239744519,0.0
3204,-1.3758276964773921,0.0
3205,1.4152873829426655,0.0
3206,-0.6666299972429942,0.0
3207,0.26073482718692387,0.0
3208,0.11024413876787403,0.0
3209,-0.004256628385877013,0.0
3210,0.036927952069268674,0.0
3211,-0.03957273175125516,0.0
3212,0.05947117728340614,0.0
3213,-0.02720342720141603,0.0
3214,0.034481756766996975,0.0
3215,-0.08547751739654383,0.0
3216,-0.030537943388167198,0.0
3217,0.04578506483077224,0.0
3218,0.05588669521932777,0.0
3219,0.07493185432422061,0.0
3220,0.41006309141443414,0.0
3221,4.096528930523506,0.0
3222,6.549427115282347,0.0
3223,-1.0637516263997473,0.0
3224,-1.3599831132648512,0.0
3225,1.3689306409664106,0.0
3226,-0.8347522587594146,0.0
3227,0.24824182939344067,0.0
3228,0.004330913953760833,0.0
3229,0.04395082416383289,0.0
3230,-0.023418080841053866,0.0
3231,0.005941554110248524,0.0
3232,0.005898570459363997,0.0
3233,-0.06837522390184564,0.0
3234,-0.030870600208068987,0.0
3235,0.08663156283367898,0.0
3236,0.08015641782410807,0.0
3237,0.08778196815270443,0.0
3238,-0.06543057322217245,0.0
3239,-0.019544674012268122,0.0
3240,0.3419912933761714,0.0
3241,4.087295502047889,0.0
3242,6.615682946556563,0.0
3243,-0.9819088340353237,0.0
3244,-1.4811292779046719,0.0
3245,1.50710206045948,0.0
3246,-0.7313321524063471,0.0
3247,0.32815825867889936,0.0
3248,0.024057648310568863,0.0
3249,-0.07631819881437524,0.0
3250,0.04378178125957179,0.0
3251,-0.05590207677096454,0.0
3252,-0.0039456590910391855,0.0
3253,0.09648909375432307,0.0
3254,0.011175889889206106,0.0
3255,-0.0032238533557577493,0.0
3256,0.09255524027435483,0.0
3257,0.024541550775512806,0.0
3258,0.11902437367264307,0.0
3259,0.021678004590939035,0.0
3260,0.45645471717955266,0.0
3261,4.1734157600126025,0.0
3262,6.564747556199396,0.0
3263,-1.2351355319886976,0.0
3264,-1.4436785610062939,0.0
3265,1.465619019283347,0.0
3266,-0.7447365964033735,0.0
3267,0.17306461896463995,0.0
3268,-0.15194583824438113,0.0
3269,-0.05082940383185302,0.0
3270,-0.10026328566628928,0.0
3271,-0.1094620758426185,0.0
3272,0.011692134950387179,0.0
3273,-0.0893322775688678,0.0
3274,-0.029757640552281306,0.0
3275,-0.08100999418818867,0.0
3276,-0.021494627749154574,0.0
3277,0.12968371146290256,0.0
3278,-0.008274388513210525,0.0
3279,-0.0174017035580643,0.0
3280,0.4054986684004014,0.0
3281,4.229423084098645,0.0
3282,6.704996302702748,0.0
3283,-1.081153900604685,0.0
3284,-1.3159750115885094,0.0
3285,1.5086159193768267,0.0
3286,-0.7248052819428386,0.0
3287,0.26346602362880267,0.0
3288,0.012782479727789418,0.0
3289,0.03515471366630263,0.0
3290,0.030858346900010325,0.0
3291,0.07552151155521225,0.0
3292,0.06094162245515604,0.0
3293,0.075795128561876,0.0
3294,0.057468669192446774,0.0
3295,0.10966842980486152,0.0
3296,0.0895034344519646,0.0
3297,0.16590331667383584,0.0
3298,0.060142566618987245,0.0
3299,0.06477117404658883,0.0
3300,0.4318049996661679,0.0
3301,4.1340542876980475,0.0
3302,6.645755578519454,0.0
3303,-1.0511697681944698,0.0
3304,-1.2905410894313114,0.0
3305,1.4091402458837765,0.0
3306,-0.7298801950923306,0.0
3307,0.3751883736981544,0.0
3308,0.03507878378997516,0.0
3309,0.12465694183777487,0.0
3310,-0.009806925626166738,0.0
3311,-0.045568651578807684,0.0
3312,0.013647483642148038,0.0
3313,-0.05185146401022329,0.0
3314,0.14782692288223975,0.0
3315,0.09411577209928518,0.0
3316,0.059429962349326175,0.0
3317,0.02088651897431268,0.0
3318,0.0034660441579695486,0.0
3319,0.04244800505567781,0.0
3320,0.41100452164692336,0.0
3321,4.069069411825459,0.0
3322,6.6400050219350035,0.0
3323,-1.041919499370784,0.0
3324,-1.3271179029451405,0.0
3325,1.5019478022915334,0.0
3326,-0.7156372415530209,0.0
3327,0.3238629478881636,0.0
3328,-0.023519218159869237,0.0
3329,0.0269964766250572,0.0
3330,0.03729188231566863,0.0
3331,0.08593482130431887,0.0
3332,0.16552200321456617,0.0
3333,0.12530803885339312,0.0
3334,0.057156413653366656,0.0
3335,0.08411891560324045,0.0
3336,0.024833414537515155,0.0
3337,0.08767284732772493,0.0
3338,0.04848941509335275,0.0
3339,0.05242322304041217,0.0
3340,0.45597482575619924,0.0
3341,4.1262772599426665,0.0
3342,6.5044305720826685,0.0
3343,-1.0642486979821437,0.0
3344,-1.3320850102564847,0.0
3345,1.3087343437581442,0.0
3346,-0.8765960272069668,0.0
3347,0.3128273471806171,0.0
3348,-0.053785566359453446,0.0
3349,0.00628386406082947,0.0
3350,0.03585178587268367,0.0
3351,-0.018781229496537606,0.0
3352,0.09014299383324528,0.0
3353,0.003511117219870838,0.0
3354,-0.01908808463208187,0.0
3355,0.04009808446215064,0.0
3356,-0.06170684018331306,0.0
3357,0.09156632193708408,0.0
3358,0.036794571593758735,0.0
3359,0.033919112832288247,0.0
3360,0.4213100223825823,0.0
3361,4.18231138386048,0.0
3362,6.648795622978183,0.0
3363,-1.1631738506273361,0.0
3364,-1.4167015520884654,0.0
3365,1.491277435829512,0.0
3366,-0.843993043091219,0.0
3367,0.10875560843832642,0.0
3368,-0.016615190314410763,0.0
3369,-0.0002937825847995207,0.0
3370,0.05246873029023026,0.0
3371,0.0668629366047331,0.0
3372,-0.0072255795704701435,0.0
3373,-0.10772323404102367,0.0
3374,0.0580939626109273,0.0
3375,-0.06739003890111489,0.0
3376,-0.04799818790980802,0.0
3377,0.03750547119647298,0.0
3378,0.0622009079884849,0.0
3379,0.05610560001703511,0.0
3380,0.48196862330797796,0.0
3381,4.060146034428052,0.0
3382,6.576235490041925,0.0
3383,-1.1609533658540794,0.0
3384,-1.4596150469000273,0.0
3385,1.4327361023414409,0.0
3386,-0.794515421216756,0.0
3387,0.2212884511862334,0.0
3388,-0.0006977099022220275,0.0
3389,-0.007642039784395607,0.0
3390,-0.000648097634609256,0.0
3391,0.060955301889055416,0.0
3392,-0.00044649851751498056,0.0
3393,-0.06578591717698815,0.0
3394,0.04906167641998783,0.0
3395,-0.05886107024973291,0.0
3396,0.0070017431200456275,0.0
3397,-0.004459103756448313,0.0
3398,0.06549508353663737,0.0
3399,0.03001145091428583,0.0
3400,0.5064308414139801,0.0
3401,4.053885911145837,0.0
3402,6.602600005832455,0.0
3403,-1.1377994325528389,0.0
3404,-1.4428857524547631,0.0
3405,1.4767486759083328,0.0
3406,-0.8569051161570165,0.0
3407,0.3101392429686801,0.0
3408,-0.05575666008711257,0.0
3409,-0.16810319173780858,0.0
3410,-0.022441171333555013,0.0
3411,-0.01086683053323056,0.0
3412,-0.0013089865974644302,0.0
3413,0.030842692569231868,0.0
3414,-0.0030149514814713854,0.0
3415,-0.05100065829125654,0.0
3416,0.024879610349027165,0.0
3417,-0.08150034505057974,0.0
3418,-0.02172241827042637,0.0
3419,-0.1025066692522527,0.0
3420,0.40171046923453413,0.0
3421,4.025596541658168,0.0
3422,6.5972637835764205,0.0
3423,-1.1401970480428119,0.0
3424,-1.438068097133573,0.0
3425,1.404360925766666,0.0
3426,-0.8322307659302447,0.0
3427,0.17948164496577212,0.0
3428,-0.009611376990990385,0.0
3429,-0.03655503582897099,0.0
3430,0.05395116175777898,0.0
3431,0.013094045089613926,0.0
3432,-0.0865653591875018,0.0
3433,0.06483638094328169,0.0
3434,0.0012386736848709924,0.0
3435,-0.06955749731881071,0.0
3436,-0.030241864690884024,0.0
3437,0.04577416838544292,0.0
3438,-0.03513986529853681,0.0
3439,-0.03802985715153569,0.0
3440,0.34796119255899916,0.0
3441,4.071293450173851,0.0
3442,6.606520105177453,0.0
3443,-1.0421464208484794,0.0
3444,-1.4944891170196517,0.0
3445,1.399179093874357,0.0
3446,-0.7751772784706457,0.0
3447,0.18991374429914348,0.0
3448,-0.07648563227721991,0.0
3449,-0.10699926431499586,0.0
3450,-0.097958316334387,0.0
3451,-0.04149988894173047,0.0
3452,-0.028540160710895993,0.0
3453,-0.06885086612464462,0.0
3454,-0.13174627753133172,0.0
3455,-0.06364923506992762,0.0
3456,-0.0028618895932498722,0.0
3457,-0.05460685201766092,0.0
3458,-0.06048065901985622,0.0
3459,-0.06681693027823107,0.0
3460,0.2943614185822719,0.0
3461,4.0700548466656326,0.0
3462,6.549623355261245,0.0
3463,-1.2444749288778048,0.0
3464,-1.4147402402799347,0.0
3465,1.357965294715546,0.0
3466,-0.7671159718287728,0.0
3467,0.18918996686106987,0.0
3468,0.017764912704696302,0.0
3469,-0.05847755411169779,0.0
3470,0.05588684072137116,0.0
3471,-0.03592081185467748,0.0
3472,0.00010507250955919204,0.0
3473,-0.059975314751448836,0.0
3474,0.06322373811642108,0.0
3475,0.017635962240802862,0.0
3476,-0.017560512407366766,0.0
3477,-0.04807930468752252,0.0
3478,0.11768091993593119,0.0
3479,-0.04879831769003221,0.0
3480,0.39724598099880204,0.0
3481,4.073918728631505,0.0
3482,6.5573230859439375,0.0
3483,-1.0987917834776195,0.0
3484,-1.3719955695700858,0.0
3485,1.3646922389918983,0.0
3486,-0.8124522840072894,0.0
3487,0.17335394828549824,0.0
3488,-0.06458386576750615,0.0
3489,-0.07424940108520099,0.0
3490,-0.03577875660128153,0.0
3491,-0.08412931711822015,0.0
3492,0.03349019583078722,0.0
3493,-0.043122287115363235,0.0
3494,0.00950076510262084,0.0
3495,0.043589329991671213,0.0
3496,0.0012514407583464116,0.0
3497,0.029065078234736752,0.0
3498,0.09977504189829417,0.0
3499,0.05034139905778427,0.0
3500,0.4525615997553764,0.0
3501,4.1930872847601375,0.0
3502,6.558621730496851,0.0
3503,-1.1161812982214918,0.0
3504,-1.3026292197043499,0.0
3505,1.4891036410146512,0.0
3506,-0.7818214876238316,0.0
3507,0.29171131624746544,0.0
3508,-0.059655089343874076,0.0
3509,0.049481659370143705,0.0
3510,0.0284959724458645,0.0
3511,-0.0010943114941251025,0.0
3512,0.04691059291339489,0.0
3513,0.053893380836470606,0.0
3514,0.06274286737566076,0.0
3515,0.056508249550671893,0.0
3516,0.007242012764664414,0.0
3517,0.07556593883350099,0.0
3518,-0.02603984158704676,0.0
3519,0.005782882427556459,0.0
3520,0.35910708029929106,0.0
3521,4.208936908200603,0.0
3522,6.622386987871191,0.0
3523,-1.1128795990018232,0.0
3524,-1.347523648430626,0.0
3525,1.4550181035617462,0.0
3526,-0.7677417275764166,0.0
3527,0.2970672287753034,0.0
3528,0.04435780889065699,0.0
3529,0.0382776059740138,0.0
3530,0.052676465799346,0.0
3531,0.09206444251963196,0.0
3532,0.0027954429896822897,0.0
3533,0.01596202519154823,0.0
3534,0.0002533726931072851,0.0
3535,0.0569157486881333,0.0
3536,-0.03355943448875523,0.0
3537,0.07747113634530886,0.0
3538,0.05328232809892599,0.0
3539,0.05698599521812365,0.0
3540,0.450915968173683,0.0
3541,4.256231374574832,0.0
3542,6.646196033881462,0.0
3543,-1.226504818612862,0.0
3544,-1.2663590763335737,0.0
3545,1.517479816991219,0.0
3546,-0.6538404563229621,0.0
3547,0.368025038715471,0.0
3548,0.07834173227532014,0.0
3549,0.060134063929566814,0.0
3550,0.05100169680303429,0.0
3551,0.13247993234314023,0.0
3552,0.08891381389590311,0.0
3553,0.05590229582231673,0.0
3554,0.0513315845466743,0.0
3555,-0.0031552765769807985,0.0
3556,-0.036023560371620064,0.0
3557,-0.022095004709828073,0.0
3558,0.09206253518308792,0.0
3559,0.0023287694343142873,0.0
3560,0.43149822314599934,0.0
3561,4.0518727303399,0.0
3562,6.515786239276836,0.0
3563,-1.1712634369875747,0.0
3564,-1.408168779746264,0.0
3565,1.4198141435625662,0.0
3566,-0.8193265579119933,0.0
3567,0.18786372865059447,0.0
3568,0.018343717190285047,0.0
3569,-0.02221448900994778,0.0
3570,0.051658469319949316,0.0
3571,-0.06106981395467654,0.0
3572,0.15793956858159547,0.0
3573,0.05288472090332182,0.0
3574,0.11473306431703864,0.0
3575,0.06797203333414684,0.0
3576,0.10203615539455857,0.0
3577,0.10967298771094455,0.0
3578,0.016535113210909787,0.0
3579,0.023218770158312245,0.0
3580,0.5268989449226816,0.0
3581,4.154140708895974,0.0
3582,6.593857706067744,0.0
3583,-1.1294081858084477,0.0
3584,-1.2256984012326508,0.0
3585,1.369474082415148,0.0
3586,-0.782155947939003,0.0
3587,0.2291913119815541,0.0
3588,0.02832319207684717,0.0
3589,-0.0031728874337109397,0.0
3590,-0.01342155108232123,0.0
3591,-0.03072225998881589,0.0
3592,0.11223092612038942,0.0
3593,0.02023984053349344,0.0
3594,-0.040000502132018834,0.0
3595,-0.004953267634679081,0.0
3596,-0.004388902411355752,0.0
3597,-0.03169514129850326,0.0
3598,-0.014181637991455935,0.0
3599,-0.06048215210524749,0.0
3600,0.3784509822582133,0.0
3601,4.162368679303852,0.0
3602,6.674559047520804,0.0
3603,-1.0891959645689548,0.0
3604,-1.4331610060080366,0.0
3605,1.3509265463718005,0.0
3606,-0.7673725246837569,0.0
3607,0.26935850779774706,0.0
3608,-0.037774526429232,0.0
3609,-0.039574712510321915,0.0
3610,-0.022565985814102088,0.0
3611,-0.055272908508754895,0.0
3612,0.03481019473482709,0.0
3613,0.03639000752776704,0.0
3614,-0.04642113034808234,0.0
3615,-0.06323701021204849,0.0
3616,0.03684971287026718,0.0
3617,-0.07996060197234788,0.0
3618,0.029900670190029267,0.0
3619,0.06030385988356172,0.0
3620,0.42334255777590296,0.0
3621,4.182152023754691,0.0
3622,6.531612502259323,0.0
3623,-1.2005541060611615,0.0
3624,-1.223259444557559,0.0
3625,1.584886282803338,0.0
3626,-0.7433191097268096,0.0
3627,0.28793518707235427,0.0
3628,0.03515696403498516,0.0
3629,-0.009996239968369151,0.0
3630,0.04933585380522698,0.0
3631,-0.019100504305269564,0.0
3632,0.053444779821629325,0.0
3633,0.02954286564065787,0.0
3634,0.06266374128170404,0.0
3635,-0.0494223417398514,0.0
3636,-0.055146693094508134,0.0
3637,0.008135747232875372,0.0
3638,-0.0080014484371108,0.0
3639,0.07064184383384262,0.0
3640,0.46397423794953513,0.0
3641,4.184590831165722,0.0
3642,6.551617453772439,0.0
3643,-1.1991889344598368,0.0
3644,-1.2317682848508849,0.0
3645,1.5164095056474414,0.0
3646,-0.6892478081632201,0.0
3647,0.2955963888572718,0.0
3648,-0.030172546207209744,0.0
3649,-0.05029783376045356,0.0
3650,0.08854366244138696,0.0
3651,0.043611234273520434,0.0
3652,0.06511248689396153,0.0
3653,0.05568293892521131,0.0
3654,0.09030260027800617,0.0
3655,0.10115390470463936,0.0
3656,0.10073583143107243,0.0
3657,0.10971965675974328,0.0
3658,0.12050154276634331,0.0
3659,0.03819625321494176,0.0
3660,0.562789878213486,0.0
3661,4.200829469254277,0.0
3662,6.593622549739867,0.0
3663,-1.1676698257275513,0.0
3664,-1.2978621714026426,0.0
3665,1.490434541202709,0.0
3666,-0.7123408830992751,0.0
3667,0.15703292433257285,0.0
3668,0.03648264211999944,0.0
3669,0.002237968016029095,0.0
3670,0.05976244013803634,0.0
3671,-0.037884502609925805,0.0
3672,0.029755344784056705,0.0
3673,0.03045444785197966,0.0
3674,-0.0391146290769456,0.0
3675,-0.020973548886432124,0.0
3676,0.017552171960739126,0.0
3677,0.012187547453766167,0.0
3678,-0.005968300692380444,0.0
3679,0.11823846530490757,0.0
3680,0.45821672843387407,0.0
3681,4.266255112586483,0.0
3682,6.644337765461252,0.0
3683,-1.1451511671248276,0.0
3684,-1.3647664391974035,0.0
3685,1.45560581269763,0.0
3686,-0.7797136829020183,0.0
3687,0.2606137089342023,0.0
3688,0.03655494722082772,0.0
3689,0.09669827574388697,0.0
3690,0.06429576570067713,0.0
3691,-0.01873375494938881,0.0
3692,0.032425756993488264,0.0
3693,0.0735131437241309,0.0
3694,0.06884110030588657,0.0
3695,0.06601917591159774,0.0
3696,0.05690619302534927,0.0
3697,0.11090032965577476,0.0
3698,0.006779732347806357,0.0
3699,0.013605604909644811,0.0
3700,0.5026183274662293,0.0
3701,4.219255564075054,0.0
3702,6.587110278830483,0.0
3703,-1.1591125609699444,0.0
3704,-1.3315863717931238,0.0
3705,1.50058289922741,0.0
3706,-0.7408021078857618,0.0
3707,0.30645119690761363,0.0
3708,0.08369144879887727,0.0
3709,-0.0036065364370162084,0.0
3710,0.07122787302011713,0.0
3711,0.11012166615572931,0.0
3712,0.08619291104730735,0.0
3713,0.1384295463231247,0.0
3714,0.08443286211213688,0.0
3715,0.12984378023599585,0.0
3716,0.10129127305088662,0.0
3717,0.1691877942746562,0.0
3718,0.11088319824846445,0.0
3719,0.0016086622957173502,0.0
3720,0.45399419517669554,0.0
3721,4.160168907051836,0.0
3722,6.598937019710286,0.0
3723,-1.1877108060516894,0.0
3724,-1.3334097355192982,0.0
3725,1.4491521860377237,0.0
3726,-0.6829899600851307,0.0
3727,0.2797788968587353,0.0
3728,0.059146991704041016,0.0
3729,0.012021391981489899,0.0
3730,0.151412997636974,0.0
3731,-0.021125388867802575,0.0
3732,0.06227131848553994,0.0
3733,-7.298320294249483e-05,0.0
3734,0.06748731004456572,0.0
3735,0.05859584463857801,0.0
3736,-0.03639287684059883,0.0
3737,0.07071527965718745,0.0
3738,0.08403036169729729,0.0
3739,0.11455423796168179,0.0
3740,0.5923633678536326,0.0
3741,4.296983534915904,0.0
3742,6.610180193147963,0.0
3743,-1.1826198851529355,0.0
3744,-1.2995908249643193,0.0
3745,1.5481178971380198,0.0
3746,-0.7516320898904154,0.0
3747,0.2530512734425123,0.0
3748,0.08757121216865023,0.0
3749,0.028363602550191092,0.0
3750,0.04641195461864191,0.0
3751,0.10717561899980993,0.0
3752,0.07582452560500615,0.0
3753,0.09433035722122121,0.0
3754,-0.003804021926662307,0.0
3755,0.08689526677551582,0.0
3756,0.07389989814000507,0.0
3757,0.13047580735073533,0.0
3758,0.12397433843275171,0.0
3759,0.010336861724249427,0.0
3760,0.5662758019280395,0.0
3761,4.302867148848047,0.0
3762,6.70352598850578,0.0
3763,-1.135956002323046,0.0
3764,-1.2252032774758839,0.0
3765,1.4827869068137927,0.0
3766,-0.7737265651731285,0.0
3767,0.3423864229353694,0.0
3768,0.06973908806838848,0.0
3769,0.04490084811748121,0.0
3770,0.015411490116770399,0.0
3771,0.08531818725327109,0.0
3772,0.023007607802734586,0.0
3773,0.08625042105168311,0.0
3774,0.0070837017563729066,0.0
3775,0.08409670587361709,0.0
3776,0.10771901473361797,0.0
3777,0.11745245827158762,0.0
3778,-0.014377273739125791,0.0
3779,0.12231649634691019,0.0
3780,0.5334202462273895,0.0
3781,4.307670148080128,0.0
3782,6.564934542290324,0.0
3783,-1.2757450532985046,0.0
3784,-1.2705323773148631,0.0
3785,1.4213152706105592,0.0
3786,-0.7124985885708189,0.0
3787,0.2639256974313855,0.0
3788,0.03192608220850893,0.0
3789,0.0031663039471782305,0.0
3790,0.11734104368429056,0.0
3791,0.11644226414434534,0.0
3792,0.04025208831800764,0.0
3793,-0.04430933504577157,0.0
3794,0.07648694704348377,0.0
3795,-0.03799890213909337,0.0
3796,0.08973244416676285,0.0
3797,0.02860785234719951,0.0
3798,0.03686755587403086,0.0
3799,-0.02299547498966243,0.0
3800,0.45649091727971924,0.0
3801,4.205001673146768,0.0
3802,6.6128343609356355,0.0
3803,-1.2359051671625374,0.0
3804,-1.2503003200124208,0.0
3805,1.3775248551033403,0.0
3806,-0.746337746567954,0.0
3807,0.32896555778132586,0.0
3808,0.004062699733482349,0.0
3809,0.05224742982537896,0.0
3810,-0.002096442092665865,0.0
3811,0.08724430767099203,0.0
3812,0.03994964549116568,0.0
3813,0.10079793022359768,0.0
3814,0.014151709410812664,0.0
3815,-0.00613378903567938,0.0
3816,0.06925186839508671,0.0
3817,0.10491229556943996,0.0
3818,0.004502640403795496,0.0
3819,-0.028573991492094462,0.0
3820,0.4356580532450468,0.0
3821,4.256832260658662,0.0
3822,6.557296728560226,0.0
3823,-1.2644529027400429,0.0
3824,-1.347576516903362,0.0
3825,1.4373572663695366,0.0
3826,-0.6932122142515551,0.0
3827,0.16158278127199707,0.0
3828,0.08225759896332815,0.0
3829,-0.0031312813290994453,0.0
3830,-0.0888527324192828,0.0
3831,0.06517873009011707,0.0
3832,-0.08127928335972466,0.0
3833,-0.04825433493173689,0.0
3834,-0.03179821196416694,0.0
3835,0.027897713734561784,0.0
3836,0.020482911048691432,0.0
3837,-0.04241609695602182,0.0
3838,-0.09476143171773013,0.0
3839,0.009010823282163526,0.0
3840,0.4188013263796919,0.0
3841,4.164090943756486,0.0
3842,6.419090381629328,0.0
3843,-1.2105642764304343,0.0
3844,-1.4069542798093282,0.0
3845,1.340112653624135,0.0
3846,-0.8165677263774413,0.0
3847,0.30517943525025315,0.0
3848,-0.025104867826011026,0.0
3849,-0.01860248724693607,0.0
3850,-0.02390083411006833,0.0
3851,-0.0053117772812056804,0.0
3852,-0.033576173160464864,0.0
3853,-0.07853858070520388,0.0
3854,0.028666770084252537,0.0
3855,-0.04235877937999265,0.0
3856,-0.07338595554459118,0.0
3857,-0.04174928892430743,0.0
3858,-0.08831928994440619,0.0
3859,-0.06372263616545601,0.0
3860,0.3738356049745045,0.0
3861,4.100876516758117,0.0
3862,6.483252331816753,0.0
3863,-1.4090556258035614,0.0
3864,-1.429050463466746,0.0
3865,1.4382656856843974,0.0
3866,-0.8833608377164741,0.0
3867,0.10314849597040178,0.0
3868,-0.025291488048597405,0.0
3869,-0.18141491897976741,0.0
3870,-0.1150946089812871,0.0
3871,0.007972771098008702,0.0
3872,-0.104089674091258,0.0
3873,-0.017017277918908016,0.0
3874,0.02571045026440545,0.0
3875,-0.05630994869728467,0.0
3876,-0.01978157210493202,0.0
3877,-0.03696852997574435,0.0
3878,-0.025811325773288714,0.0
3879,-0.004462483192165155,0.0
3880,0.34012338539520004,0.0
3881,4.166650023508134,0.0
3882,6.499835883680257,0.0
3883,-1.3098299140635243,0.0
3884,-1.390296699741858,0.0
3885,1.3081501180714836,0.0
3886,-0.7710497763898725,0.0
3887,0.18018189500656723,0.0
3888,-0.0840618035656274,0.0
3889,-0.17935957941466193,0.0
3890,-0.07420030763940068,0.0
3891,-0.13244583385859682,0.0
3892,-0.12869245420484285,0.0
3893,-0.08523317628757826,0.0
3894,-0.006032764673335536,0.0
3895,-0.07802241925140832,0.0
3896,-0.06468842430644794,0.0
3897,-0.11396725881682188,0.0
3898,-0.07784388574962142,0.0
3899,-0.1526238143508864,0.0
3900,0.37175763149811897,0.0
3901,4.07063909645251,0.0
3902,6.39711150424501,0.0
3903,-1.442397282411442,0.0
3904,-1.5076710249562524,0.0
3905,1.342294570710536,0.0
3906,-0.8514153544751022,0.0
3907,0.16596248343679001,0.0
3908,-0.1468541426955574,0.0
3909,-0.13097058436729653,0.0
3910,-0.08341332647758894,0.0
3911,-0.0538170034719945,0.0
3912,-0.10315815508795703,0.0
3913,-0.0920680196973507,0.0
3914,-0.09175759143796192,0.0
3915,-0.13031537611529845,0.0
3916,-0.1956122719303062,0.0
3917,0.006526248783616517,0.0
3918,-0.10308457048570627,0.0
3919,-0.09448593164279347,0.0
3920,0.40534429052469484,0.0
3921,4.113247671947026,0.0
3922,6.51055903695715,0.0
3923,-1.2990497442115576,0.0
3924,-1.3751818273319436,0.0
3925,1.295196937398032,0.0
3926,-0.8527672443280861,0.0
3927,0.1819589748837358,0.0
3928,-0.035465351204176696,0.0
3929,-0.1041336552592261,0.0
3930,-0.16290449647713492,0.0
3931,-0.03805566048512831,0.0
3932,-0.04071024450874388,0.0
3933,-0.11885861525570943,0.0
3934,-0.010637411404710348,0.0
3935,-0.05274655558048447,0.0
3936,-0.08983801160814965,0.0
3937,-0.11057579207207226,0.0
3938,-0.06291282228237474,0.0
3939,-0.09025973664363905,0.0
3940,0.3628136126632421,0.0
3941,4.111269035610398,0.0
3942,6.423650543286845,0.0
3943,-1.3979506285280447,0.0
3944,-1.3561095549885025,0.0
3945,1.2901335111925576,0.0
3946,-0.850638775851193,0.0
3947,0.16075182590920684,0.0
3948,-0.07115056950956525,0.0
3949,-0.10782374129388808,0.0
3950,-0.04247277686955693,0.0
3951,-0.15557820713019874,0.0
3952,-0.09191457251538421,0.0
3953,-0.07724459379388415,0.0
3954,-0.05996301402671455,0.0
3955,-0.042197659484315184,0.0
3956,-0.06289393329225834,0.0
3957,-0.044156316721703295,0.0
3958,-0.059138739513829815,0.0
3959,-0.1799091544754624,0.0
3960,0.27509397819014425,0.0
3961,4.175491126429601,0.0
3962,6.465739822508114,0.0
3963,-1.2971894437695302,0.0
3964,-1.412439498063143,0.0
3965,1.308322282834142,0.0
3966,-0.83809343085399,0.0
3967,0.12755954621220553,0.0
3968,-0.11951393140790247,0.0
3969,-0.2253810625143664,0.0
3970,-0.06894377691913446,0.0
3971,-0.10495735320702829,0.0
3972,-0.06871628956296152,0.0
3973,-0.05114552255255473,0.0
3974,-0.020338835537012386,0.0
3975,-0.031219881495711706,0.0
3976,-0.02576050232502134,0.0
3977,-0.05535894123374626,0.0
3978,-0.04401229104168114,0.0
3979,-0.03859155480975118,0.0
3980,0.44694384348766125,0.0
3981,4.168675617472443,0.0
3982,6.402188514432067,0.0
3983,-1.2662093435552157,0.0
3984,-1.3967768113735708,0.0
3985,1.2532980527287116,0.0
3986,-0.8050465962283248,0.0
3987,0.13194398046742478,0.0
3988,-0.12196626210533323,0.0
3989,-0.07879301184552667,0.0
3990,-0.024213738785336097,0.0
3991,0.02309932727213821,0.0
3992,-0.06570735485553304,0.0
3993,-0.0041534496823803155,0.0
3994,-0.050826004869481724,0.0
3995,-0.13927157488429953,0.0
3996,-0.02807324915038098,0.0
3997,-0.12167340826642922,0.0
3998,-0.05381579282221366,0.0
3999,-0.09456301420463367,0.0
4000,0.4398535375267468,0.0
4001,4.151546034799365,0.0
4002,6.503020942126499,0.0
4003,-1.4089397108649455,0.0
4004,-1.2878660904433754,0.0
4005,1.3682155007614956,0.0
4006,-0.8590354372517006,0.0
4007,0.26737634084530226,0.0
4008,0.008752680716609389,0.0
4009,-0.1404066333433546,0.0
4010,0.0071317087382979216,0.0
4011,-0.03958143757222241,0.0
4012,-0.017609614086200143,0.0
4013,-0.06013125912309043,0.0
4014,-0.020032421477493224,0.0
4015,-0.0928774468685152,0.0
4016,-0.0338021685772184,0.0
4017,-0.020662271275151384,0.0
4018,-0.09800162024296599,0.0
4019,0.08836564146855529,0.0
4020,0.4415209836199353,0.0
4021,4.1027813248171325,0.0
4022,6.4401858978852164,0.0
4023,-1.39239046279487,0.0
4024,-1.3935493176090563,0.0
4025,1.3140961724673532,0.0
4026,-0.8736484413424874,0.0
4027,0.17716972299766,0.0
4028,-0.0990828040037281,0.0
4029,-0.12649938548801964,0.0
4030,-0.0283788466925083,0.0
4031,-0.13678472800099556,0.0
4032,-0.02193390246013391,0.0
4033,-0.027832574148988307,0.0
4034,-0.021610075712249873,0.0
4035,-0.04246850391228227,0.0
4036,0.08311136216044238,0.0
4037,0.07011554934827592,0.0
4038,0.03286623352187275,0.0
4039,0.04957138610292538,0.0
4040,0.4749102455117663,0.0
4041,4.221567998271571,0.0
4042,6.48035689435693,0.0
4043,-1.3152419166110723,0.0
4044,-1.2260395160462525,0.0
4045,1.4634218906028456,0.0
4046,-0.781530704465665,0.0
4047,0.3733154285047754,0.0
4048,0.004921726364122529,0.0
4049,-0.03804471036554978,0.0
4050,0.13378511476429655,0.0
4051,-0.016922495970560857,0.0
4052,0.04729903777163852,0.0
4053,0.007971611783711672,0.0
4054,0.061143308635963275,0.0
4055,0.05813985385329696,0.0
4056,0.04042688394145109,0.0
4057,-0.010582432305941218,0.0
4058,0.033253161685446946,0.0
4059,0.0283646676958438,0.0
4060,0.4193404331941821,0.0
4061,4.198034135680518,0.0
4062,6.478925461932022,0.0
4063,-1.266873250656209,0.0
4064,-1.3185465488662311,0.0
4065,1.3848842180964493,0.0
4066,-0.8129635641273949,0.0
4067,0.29715570249698686,0.0
4068,-0.011102390837743548,0.0
4069,-0.022356749110052025,0.0
4070,-0.10075349848038402,0.0
4071,0.007830649928999489,0.0
4072,0.024526931085836,0.0
4073,0.010611824882530702,0.0
4074,0.04514362343756861,0.0
4075,0.01744404336728249,0.0
4076,-0.029253132931695673,0.0
4077,-0.06677938332417417,0.0
4078,0.0073624235183743555,0.0
4079,-0.10584241368770955,0.0
4080,0.4771836600683033,0.0
4081,4.225297607166285,0.0
4082,6.468563172583757,0.0
4083,-1.2755129620620655,0.0
4084,-1.301601618396394,0.0
4085,1.4031540604052881,0.0
4086,-0.8305744126369172,0.0
4087,0.21598929844150408,0.0
4088,0.05790501633819367,0.0
4089,-0.06161419552572926,0.0
4090,0.023357915769145518,0.0
4091,0.007002075159630049,0.0
4092,-0.09407215391806437,0.0
4093,-0.08286556889346053,0.0
4094,-0.043430447968225386,0.0
4095,-0.0015846712526452582,0.0
4096,-0.026500681860900183,0.0
4097,-0.02769208906535528,0.0
4098,-0.033329495438427455,0.0
4099,-0.10744710579591721,0.0
4100,0.3814401190028419,0.0
4101,4.162541298399137,0.0
4102,6.477966285877792,0.0
4103,-1.4481612157849035,0.0
4104,-1.2770151510000405,0.0
4105,1.2894464804402685,0.0
4106,-0.8168118574021843,0.0
4107,0.25123058711549234,0.0
4108,-0.05745659923042371,0.0
4109,-0.05856833198376889,0.0
4110,0.01722326028786736,0.0
4111,-0.12039180616794548,0.0
4112,-0.07338620601828202,0.0
4113,0.06262120238348697,0.0
4114,0.06621247039255929,0.0
4115,0.014175259937112928,0.0
4116,0.09258650965682885,0.0
4117,0.032653530609092804,0.0
4118,-0.033895080306470184,0.0
4119,0.07893892686957352,0.0
4120,0.403898992226449,0.0
4121,4.235562965357514,0.0
4122,6.449246254825696,0.0
4123,-1.4511432942498117,0.0
4124,-1.27492464785002,0.0
4125,1.3161584477130008,0.0
4126,-0.7372681008165707,0.0
4127,0.1991996315405632,0.0
4128,-0.003976428076014553,0.0
4129,0.026820816686168918,0.0
4130,-0.04141628578688043,0.0
4131,0.038799529685056566,0.0
4132,-0.02513841800077688,0.0
4133,-0.05438755387471935,0.0
4134,-0.005284317997938343,0.0
4135,0.009296972234515335,0.0
4136,-0.04002256536505657,0.0
4137,-0.0158018436327834,0.0
4138,-0.0329692343092563,0.0
4139,-0.046892050832689436,0.0
4140,0.3885127080718751,0.0
4141,4.120803373915614,0.0
4142,6.379045414621647,0.0
4143,-1.3859079563146601,0.0
4144,-1.303323093631748,0.0
4145,1.3973305631447575,0.0
4146,-0.8811002640565211,0.0
4147,0.19230653174857046,0.0
4148,-0.09551012603433497,0.0
4149,-0.1299825207441536,0.0
