timestamp,value-0,is_anomaly
0,0.260970946850996,0
1,3.447167197589537,0
2,6.806539694512598,0
3,-0.2403272606030398,0
4,-1.9188905709196236,0
5,1.5620633506399582,0
6,-0.7255826240429215,0
7,0.10755894223490377,0
8,0.07365525827199318,0
9,-0.13882971876309777,0
10,-0.015317736061088879,0
11,0.04954186960844251,0
12,-0.06315466860750368,0
13,-0.022604624174782113,0
14,-0.029750562906102014,0
15,-0.03472116880873738,0
16,-0.032573139094050504,0
17,0.001130699095273524,0
18,0.04091418992896099,0
19,-0.0189016772342084,0
20,0.18503768376555302,0
21,3.3989353441323034,0
22,6.777524770524,0
23,-0.41939366214751117,0
24,-2.006791366867386,0
25,1.621114098707522,0
26,-0.6726527966815746,0
27,0.1222203313995043,0
28,-0.1352926546585391,0
29,-0.14471546949196357,0
30,-0.13650354903918893,0
31,-0.06370886578177641,0
32,-0.0507801059757378,0
33,-0.005882613074358473,0
34,-0.010518099055046193,0
35,-0.10303862030370892,0
36,-0.07510595324658356,0
37,0.00047206643670404114,0
38,0.03178218394341252,0
39,0.05515764346220979,0
40,0.2752220192585091,0
41,3.3821082339249204,0
42,6.756203911475549,0
43,-0.27826531470297766,0
44,-1.9868606369110526,0
45,1.541737237532418,0
46,-0.7496828277322938,0
47,0.10340522337793505,0
48,0.014339853294252868,0
49,-0.14063815837137322,0
50,0.027138584723443895,0
51,-0.07862773066301945,0
52,-0.03255549164825477,0
53,-0.030808293159651303,0
54,-0.008922398353451032,0
55,-0.06586819347311061,0
56,0.1371915186709211,0
57,-0.034300191929040325,0
58,-0.009522353336625058,0
59,0.0829818485421095,0
60,0.2709753893301788,0
61,3.5854627133029204,0
62,6.8011030463553235,0
63,-0.3936071895888818,0
64,-1.9944602479172409,0
65,1.5151981102270404,0
66,-0.7131965334646707,0
67,0.09580936213834182,0
68,-0.016389457847458638,0
69,-0.12084952422860311,0
70,0.006569018782088404,0
71,-0.022798798897926437,0
72,-0.07225601653019173,0
73,-0.08833227436455085,0
74,-0.07982340936454771,0
75,-0.11283153210831282,0
76,-0.003594578906989457,0
77,-0.055815133706429265,0
78,0.10538122584138739,0
79,0.02128465979343107,0
80,0.3022056452691866,0
81,3.438843320694647,0
82,6.870874051529736,0
83,-0.2763988489578161,0
84,-1.998810935912751,0
85,1.5187390586631413,0
86,-0.7958962842311577,0
87,0.011764261759915004,0
88,-0.037962782871562226,0
89,-0.10234613347124383,0
90,-0.050069013543720634,0
91,-0.12687173578506591,0
92,-0.09938061197854507,0
93,-0.09605091878366408,0
94,-0.029972161492042067,0
95,-0.04906853480963958,0
96,-0.09343867333603881,0
97,-0.11474516300529786,0
98,0.019707819514148177,0
99,-0.11384534039758333,0
100,0.18364349785558792,0
101,3.4703475088966482,0
102,6.754378819041683,0
103,-0.2476138579233355,0
104,-1.9437006276527888,0
105,1.4922448434404088,0
106,-0.7706315630354799,0
107,0.14128334619150712,0
108,0.02166862532718635,0
109,-0.1644621441158341,0
110,0.032994821877130556,0
111,-0.08182906818802574,0
112,0.017883385825390695,0
113,-0.008245932637822452,0
114,-0.01962078533723286,0
115,0.0051808379391503345,0
116,-0.10766935286844055,0
117,0.09228098561085302,0
118,-0.06491519751708291,0
119,-0.04019343035405423,0
120,0.2004141870018636,0
121,3.440215539605867,0
122,6.866555978451254,0
123,-0.33049824133544914,0
124,-1.9322912412999402,0
125,1.552112965202553,0
126,-0.6824688987487707,0
127,0.2126194044362223,0
128,-0.013686440292650946,0
129,-0.05154043538810027,0
130,0.044811617641412754,0
131,0.0023868928046452734,0
132,0.003670550811972496,0
133,0.015809751099529184,0
134,0.021864531857777283,0
135,-0.06833524504314312,0
136,0.005821393696057187,0
137,-0.003942485987987006,0
138,-0.045413119450338914,0
139,0.035664875639982566,0
140,0.3087217131852708,0
141,3.505291922562002,0
142,6.897307930083989,0
143,-0.2717909775970112,0
144,-1.9103450189599767,0
145,1.5376307341791113,0
146,-0.7374059530666174,0
147,0.14166796296590028,0
148,0.07119428957496253,0
149,-0.11515164150444304,0
150,-0.04355690187507278,0
151,-0.0432978705807647,0
152,-0.04357405179693888,0
153,-0.11014388194147998,0
154,-0.041334839410907764,0
155,0.027983904968607753,0
156,0.09544069882120833,0
157,-0.07116241217476717,0
158,-0.01994707259169018,0
159,-0.042641784412409164,0
160,0.14523212130796953,0
161,3.507795790656677,0
162,6.874017254999243,0
163,-0.31672989462945544,0
164,-1.86509046438619,0
165,1.536503438506153,0
166,-0.7675073285607241,0
167,0.05246918372516884,0
168,-0.05683952033433321,0
169,-0.11240376519864842,0
170,0.07051275141275098,0
171,-0.0792033126453531,0
172,0.04799634628848014,0
173,-0.0919448051380703,0
174,0.008026934773065944,0
175,0.002508991013571618,0
176,-0.07618726367303905,0
177,-0.11486803574676299,0
178,-0.08032055091376428,0
179,-0.05381469837363416,0
180,0.1985527292992069,0
181,3.564056627904508,0
182,7.005335845516665,0
183,-0.2890427434929054,0
184,-1.9511589682487276,0
185,1.5933206330614296,0
186,-0.6354717541474575,0
187,0.11748478881947962,0
188,0.04971438290588581,0
189,0.041019657836254005,0
190,0.0825880101496172,0
191,0.09274458160196214,0
192,0.03808755010985404,0
193,-0.014549446917141391,0
194,0.05054852592262063,0
195,-0.0769456238773768,0
196,-0.06871251100594343,0
197,-0.017912432733786975,0
198,-0.06186001756569193,0
199,-0.0678298688991476,0
200,0.25490530292272184,0
201,3.5051477787876637,0
202,6.852362550297255,0
203,-0.35520047944705957,0
204,-1.983000877684874,0
205,1.547694017462101,0
206,-0.7764828965275832,0
207,0.07985515925760775,0
208,0.07657314802144038,0
209,0.01470607243091386,0
210,-0.060073590607503904,0
211,-0.054407150733622074,0
212,-0.016180957920420395,0
213,-0.10737091147567779,0
214,-0.10723682796116529,0
215,-0.07840966402544357,0
216,-0.029092738181876625,0
217,-0.013219375636107982,0
218,0.019427035460844927,0
219,-0.01561808177240765,0
220,0.33922686537160884,0
221,3.4778501821992163,0
222,6.851119157939997,0
223,-0.3114285926884414,0
224,-1.9427235643963303,0
225,1.5320019130996887,0
226,-0.698483768326856,0
227,0.05186882072885565,0
228,0.12948656881815596,0
229,-0.03970490358724913,0
230,0.028903976290673993,0
231,-0.06612598731828492,0
232,0.07709436140633863,0
233,0.016823561940994006,0
234,-0.051304253188633756,0
235,-0.04030162789330861,0
236,-0.05068203240711918,0
237,0.036266924860178136,0
238,-0.035624024431590996,0
239,-0.10171778143825236,0
240,0.39912922578478777,0
241,3.4801644240169356,0
242,6.883054043917286,0
243,-0.29264474525449635,0
244,-1.952370197346265,0
245,1.4423120862569376,0
246,-0.7293623460210008,0
247,0.1300233217844407,0
248,-0.053927039781372615,0
249,-0.08961416520654597,0
250,0.0187267477686942,0
251,-0.03994907669202268,0
252,-0.08484352597920634,0
253,-0.03768914841503458,0
254,-0.06812722153263953,0
255,0.0029024475954545215,0
256,-0.03489881824432393,0
257,-0.03141756900758989,0
258,-0.06869613437392097,0
259,-0.016026624388046595,0
260,0.24604714012020515,0
261,3.616168680230918,0
262,6.789597774682079,0
263,-0.2519265460788995,0
264,-2.0430675857428255,0
265,1.477677457287947,0
266,-0.7601931486703876,0
267,0.14396003665415594,0
268,0.0072683182348573,0
269,0.003807522808946001,0
270,-0.06283889954806965,0
271,0.01525827276542603,0
272,-9.867900826903905e-05,0
273,0.020784073387743834,0
274,0.0960443781921115,0
275,0.03324874343691868,0
276,-0.048094450025582755,0
277,0.0747580187839413,0
278,0.11038506627857161,0
279,0.04421436563020949,0
280,0.29303809781634066,0
281,3.62201606366851,0
282,6.850828243106643,0
283,-0.305261406722857,0
284,-1.9438705687252427,0
285,1.577502081672573,0
286,-0.7409286458001453,0
287,0.07112055325114804,0
288,-0.03183035644721818,0
289,0.005254574056495737,0
290,-0.061344479838396956,0
291,0.057694468065047494,0
292,-0.07467740182601987,0
293,-0.07126748707446964,0
294,-0.06116627824089195,0
295,-0.04232950062967117,0
296,0.03261080707439753,0
297,-0.02590715992283555,0
298,-0.03495885500947982,0
299,-0.09864807687478865,0
300,0.3496310336833696,0
301,3.5031980214323344,0
302,6.920091064967281,0
303,-0.37344276979767427,0
304,-1.9147769484213855,0
305,1.54423218738625,0
306,-0.7883094357237398,0
307,0.1536164293642301,0
308,-0.006348997402373304,0
309,-0.09587657219549474,0
310,-0.009624479407412553,0
311,-0.11731231853388474,0
312,-0.1110945188124824,0
313,0.04409953575615088,0
314,-0.0881005953232897,0
315,-0.04453665046777888,0
316,-0.05725027915471496,0
317,-0.017592194268563392,0
318,0.04584440373471969,0
319,-0.04603805770302228,0
320,0.19804494067499145,0
321,3.598994575304772,0
322,6.857690863973554,0
323,-0.36554325565111423,0
324,-1.8501361692727991,0
325,1.6184332759181588,0
326,-0.7472312012011321,0
327,0.21178581122170587,0
328,0.04611646389964875,0
329,-0.053910102534970264,0
330,0.10339978890913193,0
331,-0.04857737933731769,0
332,0.0012866539746850154,0
333,0.021963231879998955,0
334,0.01857079560708938,0
335,0.03276866136808309,0
336,-0.022331294382971604,0
337,0.04009566026274272,0
338,-0.031774808138636736,0
339,-0.026547351153321297,0
340,0.20879966758947544,0
341,3.5139461067005673,0
342,6.868579029862056,0
343,-0.398039763241,0
344,-1.8966865810186997,0
345,1.532512441479065,0
346,-0.8154476724337796,0
347,0.058273265533862084,0
348,0.07047626640827744,0
349,-0.05043108453070741,0
350,0.05130011853858825,0
351,0.07572557699007636,0
352,-0.03583033634535626,0
353,-0.03484476749978776,0
354,-0.010116208039296144,0
355,0.060116871728530384,0
356,-0.029484956292282885,0
357,0.013719406810716109,0
358,0.0847056941290667,0
359,-0.04665086694113976,0
360,0.23875687001193602,0
361,3.5579129881273746,0
362,6.895241776390516,0
363,-0.4466789640000935,0
364,-1.9944703698313078,0
365,1.6379491512611213,0
366,-0.6354894251946621,0
367,0.12868563133252378,0
368,-0.005288739050549891,0
369,-0.04168617216256977,0
370,-0.047154808423611735,0
371,-0.11531753436712862,0
372,0.04603543072635799,0
373,-0.1078760351619678,0
374,-0.029654537679512802,0
375,-0.03000455842269138,0
376,0.0003327265625746034,0
377,0.031618022225684786,0
378,-0.04266988262439095,0
379,0.026115877802077088,0
380,0.26083003591138526,0
381,3.631638936311123,0
382,6.851040010497395,0
383,-0.2869005787705967,0
384,-1.9679565562825065,0
385,1.5084196410004722,0
386,-0.7337389039659677,0
387,0.048319519517607754,0
388,0.1073086347491378,0
389,-0.021415231864515286,0
390,0.014346944600206753,0
391,-0.059275044731763524,0
392,-0.05752738687524462,0
393,-0.10412619356673701,0
394,0.07211130188690683,0
395,-0.029481826267585443,0
396,0.028960153095313787,0
397,-0.018243964561971342,0
398,-0.003999242728777837,0
399,-0.026063027635599423,0
400,0.3185373384563393,0
401,3.6651365583750484,0
402,6.8762225885805695,0
403,-0.3177220211063843,0
404,-1.9205227871083035,0
405,1.5952849424879214,0
406,-0.7282219221319873,0
407,0.2006818497074645,0
408,-0.08334768565680717,0
409,-0.08949157160154073,0
410,-0.0037262852823112813,0
411,0.0025298149311297575,0
412,0.0822356763208632,0
413,-0.11379965886840494,0
414,0.015787247526418278,0
415,0.03245747520779633,0
416,-0.047008932543499436,0
417,-0.010463417408969802,0
418,0.08789307800345185,0
419,0.015002175686794444,0
420,0.20983429429432887,0
421,3.6030645524735863,0
422,6.9287606034633225,0
423,-0.3501371935249613,0
424,-1.8839152322943007,0
425,1.5797077748662465,0
426,-0.6511879740004664,0
427,0.3871295660559363,0
428,0.09712961577614436,0
429,-0.051579542543574164,0
430,0.02911271919350117,0
431,0.03169744547504062,0
432,0.022494192401944273,0
433,0.06516704465566375,0
434,-0.0012883445308595476,0
435,0.03328806921236974,0
436,0.019209647727916807,0
437,-0.02499581634028613,0
438,0.03168180299827913,0
439,-0.02404554608432544,0
440,0.3716665747869782,0
441,3.460894543906778,0
442,6.824672605740362,0
443,-0.34706932252468914,0
444,-1.8510256036501833,0
445,1.4109202790647424,0
446,-0.6922456207447211,0
447,0.16587926970423733,0
448,0.10993420970013289,0
449,0.05088124102167997,0
450,0.03459237149921539,0
451,-0.016071726008936964,0
452,0.12019417476373159,0
453,0.023289252284278153,0
454,0.08057560348204304,0
455,0.04345147839299002,0
456,-0.10617289078209025,0
457,0.0423232651628679,0
458,0.11392806688557494,0
459,0.08566897244171817,0
460,0.34159191077315054,0
461,3.6630235961338884,0
462,6.8617939276624345,0
463,-0.3160035562503625,0
464,-1.8818630928203381,0
465,1.5635110893518702,0
466,-0.7149910202154034,0
467,0.21202245211623535,0
468,-0.016739049936289822,0
469,-0.12319505582470694,0
470,0.04620008598433973,0
471,-0.0595519944499028,0
472,0.015221775226978306,0
473,-0.01202517557232805,0
474,0.0015129717386413114,0
475,-0.009272971113342812,0
476,-0.01317719508169464,0
477,0.010217724285654544,0
478,-0.03707101424858909,0
479,-0.0900321916946892,0
480,0.2862615511341156,0
481,3.571282594421745,0
482,6.796835574590172,0
483,-0.3368343320210063,0
484,-1.969751763805525,0
485,1.6196188166739742,0
486,-0.6988601025410931,0
487,0.14224543326793293,0
488,0.037653737608895954,0
489,-0.02061750211785171,0
490,0.10576822298498761,0
491,0.0361696279484418,0
492,0.05411279789281991,0
493,-0.007769872730285683,0
494,0.007208408725573025,0
495,-0.030241638208442896,0
496,0.06506424435900415,0
497,0.021937742809293524,0
498,0.11416501603403133,0
499,-0.06460013557103193,0
500,0.35556744266416235,0
501,3.5935381519812606,0
502,6.939764556720303,0
503,-0.3241784043613783,0
504,-1.8470418869103193,0
505,1.5970706569357305,0
506,-0.6411153071121751,0
507,0.08845104068046583,0
508,0.1100114565611512,0
509,-0.03123846861382707,0
510,0.17078871687841363,0
511,-0.013325673940136847,0
512,0.07313086521451895,0
513,0.056335146653230715,0
514,0.12183955233882865,0
515,-0.03964133114001691,0
516,0.05084765463003744,0
517,0.06749145198828142,0
518,0.16559793436133524,0
519,0.10576353348543469,0
520,0.37552483013721805,0
521,3.6126349958640533,0
522,6.865418539864164,0
523,-0.38977890814751837,0
524,-1.8829773868885897,0
525,1.667542209095767,0
526,-0.6957575602630035,0
527,0.19380851312527422,0
528,0.09666503263783138,0
529,-0.040030113635772184,0
530,0.09955000985048346,0
531,-0.008416420702838094,0
532,0.12012363981335607,0
533,0.03718516856054216,0
534,0.06578385217970313,0
535,0.07284018233112895,0
536,0.09292743855641933,0
537,0.04916493089671731,0
538,-0.01175676685273136,0
539,0.036994669467628145,0
540,0.2559992499188041,0
541,3.6236177847937405,0
542,6.913296826174387,0
543,-0.27503974238906476,0
544,-1.8343449233134295,0
545,1.5679816791089658,0
546,-0.7503059537606909,0
547,0.24731875154555563,0
548,0.12903612133015285,0
549,0.017540799226953244,0
550,0.10712324992413859,0
551,0.11026688925087234,0
552,0.018896181919153203,0
553,-0.08159285274029045,0
554,0.11816528239209786,0
555,-0.051401373530627646,0
556,0.01299776791008888,0
557,0.04434701273090583,0
558,0.046255899911777476,0
559,-0.10625112040336315,0
560,0.3361862121028589,0
561,3.61456834017314,0
562,6.868051501306761,0
563,-0.31376953354139897,0
564,-1.8283920698258105,0
565,1.6246240625948307,0
566,-0.53250041227097,0
567,0.30678012586891135,0
568,0.14542827776893494,0
569,0.034770925692127974,0
570,0.08099221489421723,0
571,0.11299850412503971,0
572,0.08555979519627761,0
573,0.14963289085126277,0
574,0.039703126039618925,0
575,0.04102990040859259,0
576,0.1452268818666031,0
577,0.03929787134332292,0
578,0.023578042512694193,0
579,0.08754479965194299,0
580,0.37307443292047504,0
581,3.6940295431833814,0
582,6.900122857119915,0
583,-0.4388125698316201,0
584,-1.8264349164161688,0
585,1.5090160108505901,0
586,-0.7371314878340554,0
587,0.16889999226514774,0
588,0.05348552638556292,0
589,-0.05559963438815092,0
590,0.11540674356550229,0
591,0.0791934672128009,0
592,0.01093453195269793,0
593,-0.04450125553831738,0
594,0.06016610565674157,0
595,-0.058755413677935006,0
596,-0.05635946989411077,0
597,0.051719293934113404,0
598,-0.0646609095933475,0
599,-0.06076453392785426,0
600,0.2141438705774279,0
601,3.615994757721077,0
602,6.827360408559197,0
603,-0.40378813354294435,0
604,-1.8454981042325551,0
605,1.560525186177164,0
606,-0.6541300884764318,0
607,0.18489860057790442,0
608,0.01028205336484602,0
609,0.005257159809980216,0
610,0.08794750986911513,0
611,-0.014383212348579703,0
612,0.015182783880310809,0
613,0.046001711478026064,0
614,-0.05313993878413033,0
615,0.009263883545462405,0
616,0.06277504495545781,0
617,0.055700349466789645,0
618,0.008397684537687342,0
619,0.06474904125299047,0
620,0.3235716318865217,0
621,3.4922193056259845,0
622,6.896572672411479,0
623,-0.44016442333338407,0
624,-1.840658923256441,0
625,1.5759543365319706,0
626,-0.7018961731319493,0
627,0.1979456851624147,0
628,0.04418769884365541,0
629,-0.06689853724944642,0
630,0.0802237606537057,0
631,-0.03654999460098751,0
632,-0.013315235002112447,0
633,-0.025884157091058724,0
634,0.006670693862341759,0
635,0.10803346353833614,0
636,0.0899692479698992,0
637,-0.02279624653794392,0
638,-0.027973800658589593,0
639,0.02873000721410239,0
640,0.21783174678246467,0
641,3.595165398275302,0
642,6.820864558359437,0
643,-0.4564485692476711,0
644,-1.748267962286524,0
645,1.4983129003138669,0
646,-0.7155569333415259,0
647,0.14418787121797882,0
648,0.026992951011043907,0
649,-0.07987519164036594,0
650,0.05822247465230317,0
651,0.08168989873302249,0
652,0.058390243309654366,0
653,0.04187920995060577,0
654,0.010147962274837226,0
655,-0.04110654575676485,0
656,0.044207314257999425,0
657,0.028400131470504485,0
658,0.07520905857834835,0
659,0.0338270921096034,0
660,0.35618519155690265,0
661,3.5515570424027882,0
662,6.810631553266303,0
663,-0.4653423160276098,0
664,-1.706838139711426,0
665,1.5333511650095926,0
666,-0.7067332180627323,0
667,0.12749608495483303,0
668,0.00375008209498498,0
669,-0.025185072349612952,0
670,0.13129029667983855,0
671,-0.050137405087510675,0
672,0.002709864245176337,0
673,-0.05005748879557805,0
674,0.048614364962900454,0
675,0.08047389369575937,0
676,0.01305355770011507,0
677,-0.0016595785834239152,0
678,0.06434354818391981,0
679,0.06564367369852246,0
680,0.3361407391584072,0
681,3.629296438739295,0
682,6.910134956916049,0
683,-0.38835151823489655,0
684,-1.8061684138999563,0
685,1.5316695047218376,0
686,-0.7219539516338063,0
687,0.12569237090760776,0
688,-0.00719109007893786,0
689,-0.08493050222972756,0
690,0.05587973756306493,0
691,-0.09942201417771346,0
692,-0.032195858429685746,0
693,-0.018731858896286212,0
694,0.07819538620544277,0
695,-0.046130402863097095,0
696,-0.032558305600602314,0
697,-0.012760175043138575,0
698,0.040226485079200396,0
699,0.07077399649129874,0
700,0.3378473992339677,0
701,3.634546919069497,0
702,6.86519048319687,0
703,-0.47217994707118344,0
704,-1.8031599570946548,0
705,1.544369581154499,0
706,-0.6412021372509747,0
707,0.17342012656457803,0
708,0.01867324184831515,0
709,-0.05285570493603667,0
710,0.007327452895523261,0
711,-0.014894878170510474,0
712,-0.036523484823818696,0
713,0.05501963058792031,0
714,0.010225841917238514,0
715,0.06184715533451825,0
716,-0.06505790984949232,0
717,0.012870416526050529,0
718,-0.03196863483611069,0
719,-0.012423400154382112,0
720,0.3968201305668395,0
721,3.575552536091289,0
722,6.893445722593358,0
723,-0.40968215630094845,0
724,-1.799378257494333,0
725,1.4587550367745867,0
726,-0.7555622332008397,0
727,0.13917314051015237,0
728,0.06905355340806382,0
729,-0.0054993290166003225,0
730,-0.026387261323519963,0
731,0.06100890208511807,0
732,0.01129155313371646,0
733,0.11507193519937253,0
734,0.03924840008432193,0
735,0.01728266404581456,0
736,0.07719423045352324,0
737,0.016480260326061917,0
738,-0.02547772252877444,0
739,0.06790853429269013,0
740,0.2998801780341036,0
741,3.679146289192808,0
742,6.978648700353591,0
743,-0.40906660853977156,0
744,-1.724238761547088,0
745,1.6046054435229675,0
746,-0.7243145489685963,0
747,0.10773617392795143,0
748,-0.046721623225058545,0
749,-0.0851597968593612,0
750,0.048343991891360856,0
751,-0.08582944791834324,0
752,0.01824667301857305,0
753,0.007002991072122208,0
754,0.03034335193940113,0
755,-0.03837167559013956,0
756,0.09434239989233548,0
757,0.0018445517988379678,0
758,-0.021041000210485522,0
759,0.038865713963061835,0
760,0.272282313908827,0
761,3.681533623449069,0
762,6.794890133731976,0
763,-0.38176282316334026,0
764,-1.9164701767880048,0
765,1.6658495332488406,0
766,-0.6879957902744526,0
767,0.16047481097865976,0
768,0.013106303499738826,0
769,-0.014877525650697363,0
770,0.03907844277758569,0
771,0.023198700481209204,0
772,-0.080690536341511,0
773,-0.06654644656066559,0
774,0.006184579536456803,0
775,0.02475182077657816,0
776,-0.08965492838056123,0
777,0.009523223683994095,0
778,-0.04691219395742247,0
779,-0.016761360873665494,0
780,0.20166422262979106,0
781,3.5990934832399977,0
782,6.810080194049174,0
783,-0.41365260405626963,0
784,-1.8614452929969492,0
785,1.5321480145021125,0
786,-0.7530018876520475,0
787,0.13071504792019953,0
788,0.016931316635864585,0
789,-0.05953895792491608,0
790,0.08692588809838382,0
791,-0.027519026837952158,0
792,-0.012201687694575266,0
793,-0.022027114433891673,0
794,-0.021835621464793536,0
795,0.0013305609563337532,0
796,-0.09562225930453548,0
797,-0.06954565679440519,0
798,-0.10238418200814185,0
799,0.03867289784108495,0
800,0.18382119931605767,0
801,3.5686745109141116,0
802,6.69759069427226,0
803,-0.48322474865329723,0
804,-1.8966494250125767,0
805,1.4511515303262368,0
806,-0.8406116339395043,0
807,0.17233900071253372,0
808,0.11047054725095012,0
809,-0.05686682791826215,0
810,0.12354429937780541,0
811,-0.02752392213141735,0
812,0.011961514656294867,0
813,-0.07351850159627539,0
814,-0.0424921252102992,0
815,-0.02220819731290762,0
816,-0.07576696944829976,0
817,-0.03877569056671978,0
818,-0.040182788845083514,0
819,0.045331738528137724,0
820,0.29343790263581043,0
821,3.6289225294797993,0
822,6.886899810334558,0
823,-0.39910137190501555,0
824,-1.756404373501959,0
825,1.4937636249140942,0
826,-0.8252405653812133,0
827,0.10810246004963028,0
828,0.002535541472156278,0
829,-0.10579476995021275,0
830,-0.06581229293900802,0
831,0.029643270506051925,0
832,0.0036433258747593394,0
833,-0.0004276733323703647,0
834,-0.0037001130764125357,0
835,-0.054121813164796015,0
836,-0.01490120246101909,0
837,0.025208511899866302,0
838,-0.07806974861275726,0
839,-0.061265533180963255,0
840,0.2547380661671952,0
841,3.605120859022013,0
842,6.752339837477958,0
843,-0.5024488811109254,0
844,-1.8753965819106626,0
845,1.4868839467783475,0
846,-0.8237317511522716,0
847,0.12102699390553337,0
848,-0.11200721825620036,0
849,-0.07803802144280403,0
850,0.0018205397823936806,0
851,-0.12006391104836817,0
852,-0.06906634492917726,0
853,-0.06058496926287443,0
854,-0.00366393199845344,0
855,-0.0546603892376956,0
856,-0.09076689765422788,0
857,0.027699974399513987,0
858,0.04805205454856394,0
859,-0.012769807176337206,0
860,0.2729183648538699,0
861,3.6053638216217294,0
862,6.813532108120436,0
863,-0.5742877068617999,0
864,-1.9696918871893416,0
865,1.4957504690851673,0
866,-0.7071168649116112,0
867,0.08761985222305638,0
868,-0.02637745234862993,0
869,-0.06407398000847286,0
870,-0.010687697347758342,0
871,-0.002893052237291631,0
872,0.0030922125690775286,0
873,-0.07870958703130511,0
874,-0.05753978664854461,0
875,-0.08547674842842763,0
876,-0.034445380877018456,0
877,0.05711525547929581,0
878,0.011213360836541359,0
879,-0.0022223601302172272,0
880,0.37995944877463067,0
881,3.6839117411217694,0
882,6.8414223921873445,0
883,-0.3970402713355562,0
884,-1.920722000468252,0
885,1.4214991697319348,0
886,-0.788909663965795,0
887,0.08785357522818835,0
888,0.023288270848905255,0
889,-0.06394548399507562,0
890,-0.11745180850872108,0
891,-0.017896971837227972,0
892,-0.049518815039204925,0
893,-0.026022265038365848,0
894,-0.03998348116218473,0
895,0.037293363412552946,0
896,0.052199198090302795,0
897,-0.023144291229579367,0
898,0.09897721541661163,0
899,0.08556367489780069,0
900,0.29600170627906586,0
901,3.6659912776673087,0
902,6.847293024409005,0
903,-0.3959258746340183,0
904,-1.8193745272742292,0
905,1.47114641608668,0
906,-0.833149142257394,0
907,0.192233063745519,0
908,0.04274659932682276,0
909,-0.05297650225959773,0
910,-0.03874894172441193,0
911,-0.05189971380185113,0
912,0.034288886337608404,0
913,-0.0828569282786451,0
914,0.0624472973780769,0
915,0.04407980582421667,0
916,-0.01583664741161032,0
917,-0.037200162271533,0
918,0.013409395220305091,0
919,-0.0612144212510161,0
920,0.2932451785339431,0
921,3.5875658428437527,0
922,6.809967637415748,0
923,-0.5392543203907437,0
924,-1.7450115091432337,0
925,1.4969559202731393,0
926,-0.7928773675371468,0
927,0.16581993383921506,0
928,0.04975947967133554,0
929,-0.1279964781077644,0
930,0.030369248778930387,0
931,-0.08035870065985637,0
932,0.038917994984715265,0
933,0.01024583897155414,0
934,0.0759288973091639,0
935,-0.05180143464933187,0
936,-0.02068738463803745,0
937,-0.04167295897587941,0
938,-0.010846603732281874,0
939,-0.07540338740019706,0
940,0.3093995286898894,0
941,3.730104299712911,0
942,6.810377799479615,0
943,-0.6191274771732013,0
944,-1.7739352370680095,0
945,1.4387379403508573,0
946,-0.8272646920487153,0
947,0.0696199355779568,0
948,-0.06869708657392529,0
949,-0.07871033681545694,0
950,0.022911870300880516,0
951,-0.14260543950757593,0
952,-0.049096168871454064,0
953,-0.14454267560309986,0
954,-0.058554056244217355,0
955,-0.18278734529359197,0
956,-0.0022003350419658244,0
957,-0.034680995871368275,0
958,0.0012405536321877415,0
959,-0.01372892026811032,0
960,0.22155739299841418,0
961,3.596946964343693,0
962,6.845690117760332,0
963,-0.4656315223695342,0
964,-1.7589317984409396,0
965,1.5212151098040596,0
966,-0.7843503664329319,0
967,0.1495552047404083,0
968,0.06656455073017811,0
969,0.03286835360257618,0
970,-0.013459406763857762,0
971,0.024960437918049413,0
972,-0.10601382797943347,0
973,0.03609928949014885,0
974,0.028392638155804405,0
975,-0.036366748607941805,0
976,0.08434099457074776,0
977,0.027202419989848667,0
978,-0.09931866016611819,0
979,-0.03490159534068486,0
980,0.3071642222088559,0
981,3.6234127082224235,0
982,6.768730246047408,0
983,-0.5721631725059899,0
984,-1.8324721516141569,0
985,1.5937804368660358,0
986,-0.7717723946864108,0
987,0.17571609099882668,0
988,0.048598277786008816,0
989,-0.0908806714244773,0
990,0.0806362443169743,0
991,0.05449453997793369,0
992,0.05964302186591826,0
993,-0.07030750412981487,0
994,0.052599678327273656,0
995,0.009605223294772827,0
996,0.050535258227672325,0
997,0.036834729002282976,0
998,0.020443377038621563,0
999,-0.008810062999929709,0
1000,0.4435387700759062,0
1001,3.751220049659585,0
1002,6.885015591653503,0
1003,-0.4403730352689782,0
1004,-1.7814697719899864,0
1005,1.5474570638713172,0
1006,-0.6974700375339388,0
1007,0.20964993606122687,0
1008,-0.00606246030033273,0
1009,0.010200934812037585,0
1010,0.00011650955127914114,0
1011,0.043279044631555186,0
1012,0.05818444163753711,0
1013,0.0012896358035893096,0
1014,-0.0588980391164853,0
1015,0.01206519349447796,0
1016,0.010371156006064502,0
1017,-0.00111838483767456,0
1018,-0.03942073940299443,0
1019,-0.0349433278440997,0
1020,0.38729827180405196,0
1021,3.6168515701215993,0
1022,6.835677121347848,0
1023,-0.4979203041854827,0
1024,-1.852101621471649,0
1025,1.5066037590185446,0
1026,-0.6540376682366051,0
1027,0.23776874026134354,0
1028,0.07212493168427114,0
1029,0.03787131150066781,0
1030,0.05816960612405018,0
1031,0.04968992921692897,0
1032,0.03868533747258086,0
1033,0.0965487804117319,0
1034,0.04390865295723775,0
1035,0.09666977579728417,0
1036,0.17943731948973657,0
1037,0.11272274969686938,0
1038,0.1019249517233771,0
1039,0.06104665850163741,0
1040,0.3899607801954966,0
1041,3.7371790351252105,0
1042,6.9105749284627,0
1043,-0.4992769708934068,0
1044,-1.8235176251200151,0
1045,1.6345642483374516,0
1046,-0.6688715197740526,0
1047,0.18942178149944217,0
1048,0.01780931112162292,0
1049,0.006181439009448044,0
1050,0.004636822560010204,0
1051,-0.003434418413495524,0
1052,0.05979587225884467,0
1053,0.10748016268745288,0
1054,0.025949297083590832,0
1055,0.0888938935934595,0
1056,0.22741751338247768,0
1057,-0.04871009169060891,0
1058,0.07187458603821625,0
1059,0.04617767515053109,0
1060,0.2783817579165879,0
1061,3.8031579065534378,0
1062,6.929796144740817,0
1063,-0.5144754097681031,0
1064,-1.722606702630648,0
1065,1.6265272273682232,0
1066,-0.6799317356256027,0
1067,0.13481057513197,0
1068,0.08673560871428937,0
1069,-0.05053965045754313,0
1070,0.08890227950044392,0
1071,0.09546846085606625,0
1072,0.1603201331806045,0
1073,0.11872654513292782,0
1074,0.10268240583361657,0
1075,0.14541096508404464,0
1076,0.05907352479570449,0
1077,0.01924724588955598,0
1078,0.07904389968529965,0
1079,0.01742290721713515,0
1080,0.32083360182847936,0
1081,3.7533833354305046,0
1082,6.931599341210283,0
1083,-0.47414587492043136,0
1084,-1.733826720325599,0
1085,1.5430811325166556,0
1086,-0.6734701225829587,0
1087,0.1587584227525551,0
1088,-0.020206643591535303,0
1089,0.04821989620998672,0
1090,0.08064473146489136,0
1091,0.12789520805013166,0
1092,0.07266941700254442,0
1093,0.013784442425611635,0
1094,0.020558578482176126,0
1095,0.10597459673879431,0
1096,0.09222425468226654,0
1097,0.005162285555503264,0
1098,0.04390141355773751,0
1099,-0.030724227931901583,0
1100,0.38163686149105924,0
1101,3.7370975535062607,0
1102,6.843007216202713,0
1103,-0.5236014079705905,0
1104,-1.807673585488703,0
1105,1.550206321692974,0
1106,-0.7651271826905044,0
1107,0.12928791632689052,0
1108,0.11852343199749601,0
1109,0.011834876036313946,0
1110,-0.028715731392205946,0
1111,-0.11311494245597714,0
1112,-0.06950809701079835,0
1113,-0.1169570288747429,0
1114,-0.029512485188415347,0
1115,0.022199459302772246,0
1116,0.04714726613500362,0
1117,0.05412681490490797,0
1118,-0.058862289053266015,0
1119,0.10594213206296663,0
1120,0.26918015437099463,0
1121,3.686679663513994,0
1122,6.825685463978911,0
1123,-0.5546349545890866,0
1124,-1.9005553316900834,0
1125,1.4667461688191645,0
1126,-0.7409537556756576,0
1127,0.20975253539884237,0
1128,-0.012300391373840737,0
1129,0.04268021067875039,0
1130,0.07432059561202234,0
1131,0.04641497441582754,0
1132,0.05809533800097558,0
1133,-0.025268664271551868,0
1134,0.037512362616774174,0
1135,0.06283888416008943,0
1136,0.13756722707444696,0
1137,-0.006186429986048698,0
1138,0.0678552936102586,0
1139,0.013306881124383937,0
1140,0.29465458106136283,0
1141,3.6967462113337106,0
1142,6.802078289470654,0
1143,-0.5597722244628207,0
1144,-1.766031823261925,0
1145,1.5221495255226087,0
1146,-0.705094831330879,0
1147,0.06370877677416402,0
1148,0.018034183195834014,0
1149,-0.06819689379817984,0
1150,-0.019670502182170757,0
1151,-0.04863547809566429,0
1152,-0.04017726779232736,0
1153,0.04348780340940962,0
1154,-0.006292969357065244,0
1155,-0.025556480735163964,0
1156,0.0725282261718363,0
1157,0.055498889473885295,0
1158,0.06756147918099456,0
1159,0.02657321104245168,0
1160,0.33756351349784297,0
1161,3.7287621933881523,0
1162,6.83772637544034,0
1163,-0.6464988601845827,0
1164,-1.8089057415938716,0
1165,1.478955127433106,0
1166,-0.7381357084659141,0
1167,0.16176601058549944,0
1168,0.031576294365744016,0
1169,-0.09933682794034526,0
1170,-0.03884926335206163,0
1171,-0.09486100407012557,0
1172,-0.12476486449201368,0
1173,0.0022045379520296837,0
1174,0.025968091924489303,0
1175,-0.1365444562505455,0
1176,-0.07509375962922854,0
1177,-0.03029433463017276,0
1178,-0.04449610536586292,0
1179,0.014490722118914917,0
1180,0.3087238445794311,0
1181,3.656196532894565,0
1182,6.777782620277699,0
1183,-0.5984281925939607,0
1184,-1.8054054065774767,0
1185,1.5361947646307703,0
1186,-0.8130274065183969,0
1187,0.1351228727493222,0
1188,0.010801882463684548,0
1189,-0.036539576845005105,0
1190,0.03939155094613765,0
1191,-0.02620284732198186,0
1192,0.047686954624914756,0
1193,-0.13309369089929599,0
1194,-0.003175960139041957,0
1195,-0.006775629166293309,0
1196,0.08763747056751822,0
1197,-0.001459890696180255,0
1198,-0.05512237380528713,0
1199,-0.059287990233344426,0
1200,0.36185738155360825,0
1201,3.7990747347630736,0
1202,6.858067033103419,0
1203,-0.5319731740005152,0
1204,-1.800794370293202,0
1205,1.5733267300859208,0
1206,-0.7981691645678491,0
1207,0.15118932384384728,0
1208,0.0371618658889458,0
1209,-0.02456952395472045,0
1210,-0.0030500136870446597,0
1211,-0.06797996718137839,0
1212,-0.059541522858213916,0
1213,-0.06560280690444781,0
1214,-0.05602368628093113,0
1215,-0.010074777344003562,0
1216,-0.05717685716729874,0
1217,-0.08830452240189018,0
1218,-0.07837415750472616,0
1219,-0.02964337996643083,0
1220,0.13721464621005602,0
1221,3.7082045273541566,0
1222,6.793547862611028,0
1223,-0.6151168262863854,0
1224,-1.8413717372384693,0
1225,1.5016363427664898,0
1226,-0.7735628378283076,0
1227,0.11691142763277733,0
1228,-0.00517260481782569,0
1229,-0.08857142341001586,0
1230,0.03413853915382899,0
1231,-0.10507245389720742,0
1232,0.03045561174847334,0
1233,-0.09879112098438601,0
1234,-0.0362173710100896,0
1235,-0.03795374894316106,0
1236,-0.008370836070945433,0
1237,-0.075518768746032,0
1238,-0.15356883738586508,0
1239,-0.028442390636830978,0
1240,0.33447792209495625,0
1241,3.8722623185143314,0
1242,6.793421081264671,0
1243,-0.5312742352370479,0
1244,-1.8257017769996482,0
1245,1.5024435535895122,0
1246,-0.8920093135742473,0
1247,0.13195557624965537,0
1248,-0.042395636381123404,0
1249,-0.13364098127797747,0
1250,0.033233568997640614,0
1251,-0.01454410391402904,0
1252,-0.0038013124542567445,0
1253,0.04601110950905966,0
1254,-0.11219913284252381,0
1255,-0.02728790953419776,0
1256,-0.05973878128754173,0
1257,-0.018816908494899223,0
1258,0.048452387428710345,0
1259,-0.08851145948981232,0
1260,0.30345501970215377,0
1261,3.6427960054313115,0
1262,6.748321416678106,0
1263,-0.7063842620553925,0
1264,-1.8012805381753987,0
1265,1.4966071445509561,0
1266,-0.8590024324354661,0
1267,0.18112098822532358,0
1268,-0.05763674108016085,0
1269,-0.11542711554142382,0
1270,-0.015561063127244656,0
1271,-0.010965073381846838,0
1272,-0.021023446098754877,0
1273,-0.01328645044703785,0
1274,-0.06403668563433608,0
1275,-0.0900942500354265,0
1276,-0.0825989652241085,0
1277,-0.16326458991912737,0
1278,-0.1881978393071666,0
1279,-0.1417488785904245,0
1280,0.1296475402609284,0
1281,3.552877807148449,0
1282,6.690718482524385,0
1283,-0.7426667891010005,0
1284,-1.9082159105751775,0
1285,1.3729719639474045,0
1286,-0.8746930601993462,0
1287,0.10799284145288038,0
1288,-0.020550319487262735,0
1289,-0.08057266025538048,0
1290,0.01821411079492828,0
1291,-0.0053581142177342445,0
1292,0.058065609484770284,0
1293,0.020948493128830743,0
1294,0.06393716475945758,0
1295,0.01077672308990946,0
1296,-0.04110388935525477,0
1297,-0.008589155575948195,0
1298,-0.0900207680367294,0
1299,-0.018455427907704925,0
1300,0.18273422013808402,0
1301,3.710576947964784,0
1302,6.846541097228844,0
1303,-0.6017931144360985,0
1304,-1.7369842617909272,0
1305,1.4649313653145701,0
1306,-0.7471265107953993,0
1307,0.13389946652025916,0
1308,-0.049316952935638134,0
1309,-0.0787031222563584,0
1310,-0.1018970790806536,0
1311,0.0073519481795980245,0
1312,0.05587156621915429,0
1313,0.06693992470821646,0
1314,-0.03576220478793801,0
1315,0.02213091405268173,0
1316,0.01702777987934664,0
1317,-0.05792203219701307,0
1318,-0.1092948598418013,0
1319,-0.051567719323243076,0
1320,0.2844594222454989,0
1321,3.7478157521175057,0
1322,6.764204042746597,0
1323,-0.6533348834107677,0
1324,-1.7966181970134176,0
1325,1.5698308858332037,0
1326,-0.7124855509578282,0
1327,0.10586109109845997,0
1328,0.04078412636536475,0
1329,-0.04588509951739367,0
1330,-0.03653891194772649,0
1331,-0.047521142831185664,0
1332,-0.007307049064398333,0
1333,0.11440265431853137,0
1334,0.0629412891160237,0
1335,-0.04133610556809337,0
1336,0.01327618557541501,0
1337,0.016583498678878105,0
1338,0.058179647373240606,0
1339,0.0547154161615768,0
1340,0.37893921595419255,0
1341,3.789732916695149,0
1342,6.90525016818127,0
1343,-0.574546819164844,0
1344,-1.7340327595733533,0
1345,1.5250779716382104,0
1346,-0.7309253094406681,0
1347,0.08553666638787476,0
1348,0.11681094354028304,0
1349,-0.020490966324349845,0
1350,0.10880039016035689,0
1351,-0.062117834692092276,0
1352,-0.04113700631127909,0
1353,-0.016298246243232787,0
1354,0.055772338166370033,0
1355,0.028170707004071822,0
1356,-0.045095023557100544,0
1357,0.08131115145786941,0
1358,-0.031078022197159563,0
1359,-0.009596045465807255,0
1360,0.3023059123873435,0
1361,3.7212605123630857,0
1362,6.814022263763245,0
1363,-0.6703136594884822,0
1364,-1.7273220069567308,0
1365,1.5635789442042896,0
1366,-0.6718752986705732,0
1367,0.21117004400252679,0
1368,-0.012246926152196337,0
1369,0.01678946920204226,0
1370,-0.00560455163822355,0
1371,0.01168380540227687,0
1372,0.003029780352002881,0
1373,-0.02748605062155622,0
1374,-0.0861276752139194,0
1375,0.03325980710578365,0
1376,-0.0040186522863881954,0
1377,0.0947405364578429,0
1378,-0.030018750700517027,0
1379,-0.037291129162135936,0
1380,0.3875391749922712,0
1381,3.7153524706174674,0
1382,6.810282879104277,0
1383,-0.5464178603971419,0
1384,-1.8276776860302908,0
1385,1.453222090259677,0
1386,-0.8075496064668453,0
1387,0.18624507710975113,0
1388,0.09423606539654597,0
1389,-0.024310927137834948,0
1390,-0.023435076825565122,0
1391,-0.04168405644618343,0
1392,-0.0364556163435325,0
1393,-0.034106602226758743,0
1394,0.016917913360488236,0
1395,-0.033790622759429484,0
1396,0.11986487487347762,0
1397,-0.04487694087544285,0
1398,-0.018046922836978754,0
1399,0.03033276849242198,0
1400,0.3628862515414792,0
1401,3.8164738670103433,0
1402,6.822929464521034,0
1403,-0.6013132391436221,0
1404,-1.6679295906250604,0
1405,1.6266048451085446,0
1406,-0.5907168519779812,0
1407,0.23650295659167564,0
1408,0.1046062068257851,0
1409,0.002424320631271848,0
1410,0.060168186913674454,0
1411,0.07559620164720914,0
1412,0.0952788327321042,0
1413,-0.01820225941677877,0
1414,0.041932533464670706,0
1415,0.023885311436326696,0
1416,0.05642866403670334,0
1417,0.0696058303911397,0
1418,0.003691930030277452,0
1419,-0.013612278571569963,0
1420,0.3149810319650921,0
1421,3.716645248568856,0
1422,6.779405119246209,0
1423,-0.6721404976438801,0
1424,-1.8024851882598076,0
1425,1.5105278498610422,0
1426,-0.8618564650954511,0
1427,0.193555153218547,0
1428,-0.008319656484963092,0
1429,-0.007269347906220913,0
1430,0.06374988861345576,0
1431,-0.028744353775648674,0
1432,-0.00261205472550664,0
1433,-0.01190768961963869,0
1434,-0.0850673936017663,0
1435,0.09738433819613512,0
1436,0.006236837093615895,0
1437,0.10724089300078284,0
1438,0.008935874082476654,0
1439,-0.01839054911920363,0
1440,0.3749242081039221,0
1441,3.7416611690278456,0
1442,6.8890421094031336,0
1443,-0.5631980600863881,0
1444,-1.6715548336125587,0
1445,1.4837297924716086,0
1446,-0.7258156685650682,0
1447,0.2277704273526763,0
1448,-0.0719146938628892,0
1449,0.015263428225357888,0
1450,0.000565366638722066,0
1451,-0.005745270323166132,0
1452,-0.05688000010762609,0
1453,0.03693998591906014,0
1454,0.08509896263997413,0
1455,0.03933312813577611,0
1456,-0.04710453407310296,0
1457,0.06587766673266868,0
1458,0.0164436902235075,0
1459,0.045115379379056575,0
1460,0.4238113890720516,0
1461,3.6959140695500188,0
1462,6.838314685596414,0
1463,-0.5931818204824303,0
1464,-1.6879163867082758,0
1465,1.5381926357251121,0
1466,-0.8028934722286448,0
1467,0.12267981002764738,0
1468,0.13730447665629947,0
1469,0.139064149969931,0
1470,0.04861673532527793,0
1471,0.048757996577940305,0
1472,0.04446935449698362,0
1473,0.09226754644899199,0
1474,-0.003703179322174663,0
1475,0.07126187394409676,0
1476,0.09505405319569875,0
1477,0.07507132999327894,0
1478,0.001886537680542394,0
1479,0.06581324333959832,0
1480,0.3263663142186738,0
1481,3.74896554185453,0
1482,6.788626500547187,0
1483,-0.6792256354404281,0
1484,-1.7285558044518519,0
1485,1.5028057347866486,0
1486,-0.7380146099943145,0
1487,0.17584803962071624,0
1488,0.03505501913813407,0
1489,-0.030203424097255935,0
1490,0.0919162228753767,0
1491,-0.04776911807056035,0
1492,-0.02126658986660932,0
1493,-0.0083007155865903,0
1494,-0.02795275659906194,0
1495,-0.07610842019621666,0
1496,0.07374577480416637,0
1497,0.09582089365652947,0
1498,0.004383530388005902,0
1499,0.06648112504514547,0
1500,0.47518778729124356,0
1501,3.8317004964445793,0
1502,6.944326440286969,0
1503,-0.5894305425489037,0
1504,-1.6788444964231308,0
1505,1.5582077348224892,0
1506,-0.7093463770360612,0
1507,0.22905562815850383,0
1508,0.1548165233392355,0
1509,-0.0509344613767383,0
1510,0.024229996283870393,0
1511,-0.0892818177324965,0
1512,0.004012974862281984,0
1513,0.09857570851428105,0
1514,-0.005068430917559104,0
1515,0.06322658054863607,0
1516,0.06583461657083195,0
1517,0.06931205499729098,0
1518,-0.002192249029294699,0
1519,0.00887789624915905,0
1520,0.40373684445851193,0
1521,3.835941971142764,0
1522,6.806686449443911,0
1523,-0.6475262073748312,0
1524,-1.6920961923871396,0
1525,1.547320486530331,0
1526,-0.6319707580606939,0
1527,0.18696365677834473,0
1528,0.08628999679639499,0
1529,0.033127846300174534,0
1530,0.07828752079316673,0
1531,0.03825810279479056,0
1532,0.05921385538890041,0
1533,0.015498081467644753,0
1534,0.09680769909683887,0
1535,0.08093080817755205,0
1536,0.11314001882756257,0
1537,0.11293167324991782,0
1538,0.06724815676018514,0
1539,0.12582022945525567,0
1540,0.4959855030509871,0
1541,3.904368728346476,0
1542,6.975296058794764,0
1543,-0.5900771307413331,0
1544,-1.546735975132363,0
1545,1.613209862865814,0
1546,-0.7193101455694346,0
1547,0.29305356778371927,0
1548,0.09950784398743419,0
1549,-0.002777904387256183,0
1550,0.032593130026885055,0
1551,0.0967317147084725,0
1552,0.03237347173896269,0
1553,0.006691436424068543,0
1554,0.0067102336489420385,0
1555,0.068989780222584,0
1556,0.005173722319275889,0
1557,0.02319669273812849,0
1558,-0.0426331663750914,0
1559,0.053579561039528614,0
1560,0.2532210522321722,0
1561,3.756379860491411,0
1562,6.83438808216773,0
1563,-0.6488737627874527,0
1564,-1.6827992031380403,0
1565,1.5741492468220153,0
1566,-0.7408799986495895,0
1567,0.22942678361876243,0
1568,0.1506521375975182,0
1569,-0.05846090347559292,0
1570,0.015547028401822947,0
1571,0.062015800626717146,0
1572,0.18429801129570517,0
1573,0.00042461953672112696,0
1574,-0.014170589232917231,0
1575,0.0006506740443182682,0
1576,-0.09120480240423973,0
1577,0.08192845630674664,0
1578,-0.011494468489654235,0
1579,0.08199315206207246,0
1580,0.34770039913591116,0
1581,3.806013748482981,0
1582,6.77426933269177,0
1583,-0.684703457907937,0
1584,-1.721137925626577,0
1585,1.5287276015969227,0
1586,-0.7414818460358127,0
1587,0.17750820247807136,0
1588,-0.08931181593255116,0
1589,0.032659554077477795,0
1590,0.02491113903633781,0
1591,-0.018745641533099135,0
1592,-0.028028453925169953,0
1593,-0.022533297652753748,0
1594,-0.0377387863578076,0
1595,-0.050134572368538646,0
1596,0.022987501163699638,0
1597,-0.10874261423355167,0
1598,-0.0012658330516030838,0
1599,0.05762600197941594,0
1600,0.32024379494812677,0
1601,3.832273586482632,0
1602,6.799140802434783,0
1603,-0.6489721317377513,0
1604,-1.6914376011583798,0
1605,1.5678627552296525,0
1606,-0.8451419115543666,0
1607,0.12447805522463712,0
1608,-0.06088737082629252,0
1609,0.010955588746067751,0
1610,0.026833199419611493,0
1611,0.06088742140373767,0
1612,0.07462425482858215,0
1613,-0.058864957206358995,0
1614,-0.07839976737939869,0
1615,-0.01803474188422198,0
1616,-0.06490286364924794,0
1617,0.04816008766464931,0
1618,0.015752197763147298,0
1619,-0.024627700967012917,0
1620,0.36617437163537053,0
1621,3.7920286776398235,0
1622,6.741198501088533,0
1623,-0.6663510013563169,0
1624,-1.7216147058945452,0
1625,1.5702910504310215,0
1626,-0.7691602531000086,0
1627,0.14495820371782872,0
1628,0.049917178424964924,0
1629,0.004357951905926416,0
1630,0.029799141951358642,0
1631,-0.04074419724638901,0
1632,-0.08045887840774871,0
1633,0.04508108462847837,0
1634,-0.029594463410837855,0
1635,-0.004061631897079747,0
1636,-0.08890933461272497,0
1637,-0.016287089399798404,0
1638,-0.006927714354905333,0
1639,-0.022940049853421303,0
1640,0.31962474536083746,0
1641,3.707762763421958,0
1642,6.7671492582209565,0
1643,-0.7440940982829778,0
1644,-1.6740152022080648,0
1645,1.575153574552728,0
1646,-0.7761626997291613,0
1647,0.17661065200482795,0
1648,-0.04628531745474429,0
1649,-0.2071751004647317,0
1650,0.015045412542886667,0
1651,-0.07858218248310822,0
1652,-0.06776510659135002,0
1653,-0.044821363021182996,0
1654,-0.08271433336485301,0
1655,-0.08205026034654658,0
1656,0.008200638260182608,0
1657,-0.09346506250127957,0
1658,-0.06791747698831208,0
1659,-0.10244085736154902,0
1660,0.26999891838880824,0
1661,3.7319555147278742,0
1662,6.748429338585024,0
1663,-0.7615911585519529,0
1664,-1.7844196012458458,0
1665,1.5818257536916798,0
1666,-0.7700773729772866,0
1667,0.13886566583085638,0
1668,0.049319170008382006,0
1669,-0.17138020116112251,0
1670,-0.11589727717144849,0
1671,-0.056125534426423575,0
1672,0.010079482727658268,0
1673,-0.13335411775497158,0
1674,-0.09389100055795425,0
1675,-0.07382913917530166,0
1676,-0.08864324976215131,0
1677,0.03713071471356047,0
1678,-0.06326460404162418,0
1679,-0.09699003018917254,0
1680,0.36998935921676773,0
1681,3.7188773811657443,0
1682,6.648074672046547,0
1683,-0.6678428020325382,0
1684,-1.8085083736183563,0
1685,1.4375176597603576,0
1686,-0.7560905911686167,0
1687,0.08130215212745101,0
1688,0.016464621989009907,0
1689,-0.10561611735883525,0
1690,-0.03585128703828369,0
1691,0.054693481087286694,0
1692,-0.08385386443636515,0
1693,-0.054426412931501064,0
1694,-0.12014278015140473,0
1695,-0.08455798786255223,0
1696,-0.09562785729023171,0
1697,-0.028953635497154157,0
1698,-0.057506925387174314,0
1699,-0.027957267753340953,0
1700,0.2879499332005705,0
1701,3.761103780416897,0
1702,6.736723056582343,0
1703,-0.7834636548080205,0
1704,-1.7067758427435513,0
1705,1.5783414352735483,0
1706,-0.7447744189766433,0
1707,0.10891389205803972,0
1708,-0.08614309349054766,0
1709,-0.03659825235400131,0
1710,-0.056556308091206306,0
1711,-0.16373000287675699,0
1712,0.040469715473148524,0
1713,-0.12977097690991551,0
1714,-0.0737282295964077,0
1715,0.0012789839494932453,0
1716,-0.020842282258087746,0
1717,0.010798236654550458,0
1718,-0.09223867174218406,0
1719,0.047844690379929375,0
1720,0.34344239632542534,0
1721,3.7604297738258787,0
1722,6.683612231011955,0
1723,-0.7656488071817081,0
1724,-1.698317875701372,0
1725,1.4134188874078488,0
1726,-0.8012396370421963,0
1727,0.09101032764682204,0
1728,-0.10998653471710079,0
1729,-0.2026261277052952,0
1730,-0.14508140292437827,0
1731,-0.09064769748426285,0
1732,-0.03134904544456224,0
1733,0.008854777128597446,0
1734,-0.006798453986974762,0
1735,-0.02223676202049179,0
1736,-0.028482677009376497,0
1737,-0.0678916376955612,0
1738,0.01446782394992506,0
1739,-0.10277595673663037,0
1740,0.3991520340843644,0
1741,3.7758752248400276,0
1742,6.69651688625209,0
1743,-0.772756777656218,0
1744,-1.6661639829259973,0
1745,1.5163376299475553,0
1746,-0.7387957207532858,0
1747,0.1608080939036088,0
1748,-0.009991046002092947,0
1749,0.10316394654822834,0
1750,0.04786706402443223,0
1751,-0.08543356402777898,0
1752,0.011277445720721107,0
1753,0.014222012499279846,0
1754,-0.0886469145273878,0
1755,-0.0856222433598647,0
1756,0.0032345359032358596,0
1757,0.06088868281792913,0
1758,0.026721211879739002,0
1759,0.01530728206277359,0
1760,0.30716494972582287,0
1761,3.8275006743235274,0
1762,6.759231824363435,0
1763,-0.7987500407606382,0
1764,-1.64817299551033,0
1765,1.4256672004528066,0
1766,-0.7157650793003213,0
1767,0.15461551374971122,0
1768,-0.054142813104824036,0
1769,-0.12379037781746231,0
1770,0.05290990900698202,0
1771,-0.0606918335857196,0
1772,0.017822282614690946,0
1773,-0.05265178757040597,0
1774,-0.10312519864488398,0
1775,-0.03462454830195784,0
1776,-0.012487224780680477,0
1777,0.05011400595193946,0
1778,0.01108243483575655,0
1779,0.015583267901902953,0
1780,0.35099283153566885,0
1781,3.724180142508344,0
1782,6.790785132526451,0
1783,-0.7442533888084908,0
1784,-1.662005279731307,0
1785,1.3751796795837654,0
1786,-0.7498401225558885,0
1787,0.13056926350827208,0
1788,0.0035307437954704753,0
1789,-0.12810972323937722,0
1790,0.06766539293315478,0
1791,0.029557070949977046,0
1792,0.04067036934314243,0
1793,-0.06532328230221887,0
1794,0.0753620420308506,0
1795,-0.0004617156876128882,0
1796,-0.0002463772695690744,0
1797,0.029248826642677486,0
1798,0.027284966307777374,0
1799,-0.013606715306163503,0
1800,0.35542336651267287,0
1801,3.7741044360523555,0
1802,6.799970533023232,0
1803,-0.7054213595369323,0
1804,-1.5971531736870843,0
1805,1.4962521478901127,0
1806,-0.8025868379394654,0
1807,0.2020485481337752,0
1808,0.017627825477686317,0
1809,-0.05089653017907583,0
1810,0.04286940555145752,0
1811,-0.07085822132055704,0
1812,0.017664935576353947,0
1813,-0.01857277564203174,0
1814,0.0005323002814425961,0
1815,-0.0029235947046081893,0
1816,-0.022319345923189356,0
1817,0.040599634750995074,0
1818,0.007522431995857122,0
1819,0.13284433220471475,0
1820,0.4128455929938178,0
1821,3.784282907068297,0
1822,6.681579066140938,0
1823,-0.881234939508253,0
1824,-1.8088559062347978,0
1825,1.493411050035986,0
1826,-0.9111242351998587,0
1827,0.20966219267912725,0
1828,0.006303642690006777,0
1829,-0.017340143082617335,0
1830,0.011000049023843673,0
1831,-0.0281020651213628,0
1832,0.032901297711065036,0
1833,0.00556950920628943,0
1834,0.021250291080377945,0
1835,0.08603424452260573,0
1836,0.0504502336209411,0
1837,0.036379542612884966,0
1838,0.03276272596570124,0
1839,0.024728785821224782,0
1840,0.38474188895211636,0
1841,3.8277947117679583,0
1842,6.771328343211492,0
1843,-0.6889099078710711,0
1844,-1.6075063103716294,0
1845,1.4056801399186027,0
1846,-0.672388897714836,0
1847,0.23511186411117468,0
1848,-0.0264203046473925,0
1849,-0.05088779700701106,0
1850,0.00853990916336405,0
1851,0.024550709895834886,0
1852,-0.07838429937680236,0
1853,-0.007738236680265983,0
1854,0.001761179070826042,0
1855,-0.04585864291935568,0
1856,-0.026207477985101844,0
1857,0.02588586209850221,0
1858,0.03312332368634594,0
1859,-0.08948752311584908,0
1860,0.2427645616916197,0
1861,3.8713293660151598,0
1862,6.746382656677257,0
1863,-0.769914131177096,0
1864,-1.6619177581889129,0
1865,1.516240596337053,0
1866,-0.7147665064972613,0
1867,0.2943194487523932,0
1868,0.04798735206938598,0
1869,-0.01587307932029326,0
1870,0.013865416220611358,0
1871,-0.038677591587438345,0
1872,0.0032073222462849008,0
1873,0.03144745153999536,0
1874,0.09248005924604627,0
1875,-0.06738842227807335,0
1876,0.07630161189050542,0
1877,0.030425109935456756,0
1878,0.03958913441581749,0
1879,-0.01067451486358715,0
1880,0.33046777567677643,0
1881,3.8680890017074465,0
1882,6.857213355728997,0
1883,-0.7460919514389062,0
1884,-1.698932768152444,0
1885,1.5686912547501306,0
1886,-0.8201348063059232,0
1887,0.3114005339621741,0
1888,-0.030331186383096627,0
1889,0.03764378279484709,0
1890,0.07452872864823604,0
1891,0.04334459399259298,0
1892,0.040933815582772315,0
1893,0.036032761998220274,0
1894,0.07217794506114203,0
1895,0.0628497701040436,0
1896,0.06248100135663765,0
1897,0.0754686671608439,0
1898,0.015031271869782151,0
1899,0.03153843708552544,0
1900,0.4170083726825863,0
1901,3.9444564869897234,0
1902,6.8398108265823945,0
1903,-0.795609702920907,0
1904,-1.5521808316703374,0
1905,1.5941754564355675,0
1906,-0.8053465282583983,0
1907,0.1886716624398554,0
1908,0.0338843662951205,0
1909,-0.036776191783347116,0
1910,0.07719590002895425,0
1911,0.0017221373446066682,0
1912,0.03860432702366665,0
1913,-0.004543163495920051,0
1914,0.03521318187326229,0
1915,0.0022698198143182094,0
1916,-0.011869917375603965,0
1917,0.028174779934600526,0
1918,0.004704421372148368,0
1919,0.10242402342451512,0
1920,0.38635656151238135,0
1921,3.8813582609161457,0
1922,6.80268881898005,0
1923,-0.7514230026617945,0
1924,-1.634434365333901,0
1925,1.5695610692210487,0
1926,-0.793235178943133,0
1927,0.18305622715630596,0
1928,-0.03311466332350593,0
1929,0.06614046338033945,0
1930,0.10612058684213944,0
1931,-0.02175495073754697,0
1932,0.08168029403337879,0
1933,0.18119719247684263,0
1934,0.06689787327524187,0
1935,0.05731670630846782,0
1936,0.1400818478226929,0
1937,0.049253932204458985,0
1938,0.14107259512117548,0
1939,0.10284780797159401,0
1940,0.4668513548866831,0
1941,3.971322935164445,0
1942,6.79904260305838,0
1943,-0.8378442910926273,0
1944,-1.5919648528202308,0
1945,1.5770948331958863,0
1946,-0.7784523371868023,0
1947,0.24290137376008902,0
1948,0.04544851428732627,0
1949,-0.015362691941341353,0
1950,0.0003753138334327971,0
1951,-0.0004653377751315385,0
1952,0.07853985991780926,0
1953,-0.023836008146394253,0
1954,0.03693352794927585,0
1955,-0.03933629346046912,0
1956,0.014326405292872393,0
1957,-0.07995793278281842,0
1958,0.11584679262213839,0
1959,0.07439422422631947,0
1960,0.34187540466394534,0
1961,3.891667672180507,0
1962,6.8129616340183485,0
1963,-0.7277908418044553,0
1964,-1.588076940466283,0
1965,1.577179182217238,0
1966,-0.7530035432709201,0
1967,0.2699465557188723,0
1968,0.0384459946398239,0
1969,0.01565839160850781,0
1970,0.0909965986091534,0
1971,0.04993001892472544,0
1972,0.10527629604761805,0
1973,0.06823231161297046,0
1974,0.025739783650479582,0
1975,0.03470144625054563,0
1976,0.03717452791658103,0
1977,0.027196061219313308,0
1978,0.03502471066955578,0
1979,-0.0197381034835191,0
1980,0.3168974266767559,0
1981,3.7808416273992806,0
1982,6.758123982151112,0
1983,-0.8261739114177522,0
1984,-1.675140753091372,0
1985,1.403101063378337,0
1986,-0.7880875189253963,0
1987,0.08478798743886502,0
1988,-0.00829156787832033,0
1989,-0.068289477446182,0
1990,0.04848776941495046,0
1991,-0.03216994538301627,0
1992,-0.09621674728747755,0
1993,-0.02704045512959361,0
1994,-0.08429526560302691,0
1995,0.017849390867933114,0
1996,-0.06803793297575822,0
1997,-0.015606067375826371,0
1998,-0.11271247315049873,0
1999,-0.09174210415022939,0
2000,0.2510190108211461,0
2001,3.6969649876202246,0
2002,6.652261551306242,0
2003,-0.8964709488213548,0
2004,-1.7215096891548878,0
2005,1.4044512113077334,0
2006,-0.8046246294980824,0
2007,0.08781088546648617,0
2008,-0.12495193783896277,0
2009,-0.17392867665766812,0
2010,0.06251739856754374,0
2011,-0.1053160078799215,0
2012,-0.003833256958984097,0
2013,0.002298143782732409,0
2014,-0.08225696222944387,0
2015,0.006666076618237038,0
2016,0.03851130166586553,0
2017,-0.09378843733295891,0
2018,0.03298431737749011,0
2019,0.01707319009845297,0
2020,0.31632144005255153,0
2021,3.734874337881632,0
2022,6.618446500584333,0
2023,-0.8240321962000626,0
2024,-1.6634406119343426,0
2025,1.4397866255903822,0
2026,-0.7895696111461151,0
2027,0.17049063033493236,0
2028,-0.021920131031137102,0
2029,-0.053079575616908035,0
2030,0.05526498287611268,0
2031,-0.01961753263385647,0
2032,-0.038037407234791626,0
2033,-0.012771592095329383,0
2034,0.005356954695905115,0
2035,0.002984221358342639,0
2036,-0.0006735820821710094,0
2037,0.03807899019377468,0
2038,-0.029942645826973646,0
2039,0.02862164839716607,0
2040,0.3543774079996202,0
2041,3.8267086225050133,0
2042,6.688704814847074,0
2043,-0.7779045499668213,0
2044,-1.6431238793729102,0
2045,1.5090933623439156,0
2046,-0.7079878203808201,0
2047,0.1226586820755953,0
2048,-0.0028939300739750685,0
2049,-0.03171739769193255,0
2050,0.011916878790868932,0
2051,-0.0010750946279676904,0
2052,-0.10298303052541999,0
2053,-0.06525838919444006,0
2054,-0.04515638407867832,0
2055,-0.09690590708748305,0
2056,-0.09205647739617784,0
2057,0.011564688034604573,0
2058,-0.05821990582745812,0
2059,-0.06820011339738473,0
2060,0.25324045675446694,0
2061,3.917580158250077,0
2062,6.729287783530566,0
2063,-0.8531784721495075,0
2064,-1.593503951126528,0
2065,1.433049393801602,0
2066,-0.8022816796260293,0
2067,0.18440344365229255,0
2068,-0.00636193860209844,0
2069,-0.13995626786985166,0
2070,0.021004397804070436,0
2071,0.021163824063279456,0
2072,-0.11732275858739058,0
2073,-0.05055951975238501,0
2074,-0.041667199375133954,0
2075,-0.08841969456131955,0
2076,-0.016101007382090488,0
2077,-0.018585424498785502,0
2078,-0.012490128701149926,0
2079,-0.0532940607882896,0
2080,0.31317953885051947,0
2081,3.8211912651963207,0
2082,6.694509831692499,0
2083,-0.8503098432750252,0
2084,-1.6544439368132609,0
2085,1.3071896217527776,0
2086,-0.8391121080813484,0
2087,0.058321407624827126,0
2088,-0.14290074987916376,0
2089,-0.14000124091278301,0
2090,0.01086321267316092,0
2091,-0.11720243863325758,0
2092,-0.02952044932939204,0
2093,0.06265525046695301,0
2094,-0.04398480694089625,0
2095,-0.02985002338815064,0
2096,-0.07333855468755236,0
2097,0.05229386837774372,0
2098,-0.09136028306770727,0
2099,0.02114459698944173,0
2100,0.3762092760668628,0
2101,3.9563352892635613,0
2102,6.781346160873959,0
2103,-0.7811696119468947,0
2104,-1.5924518051033023,0
2105,1.533693199687526,0
2106,-0.7016859626255818,0
2107,0.2099662168275233,0
2108,-0.043100712209018247,0
2109,-0.06175568094872591,0
2110,0.05914322809214959,0
2111,0.04932281469013016,0
2112,-0.042503787321445934,0
2113,-0.00812744063871913,0
2114,-0.046095772147649,0
2115,0.02266305964025423,0
2116,0.03898083973491984,0
2117,0.021769819583002156,0
2118,0.06298386498236407,0
2119,-0.03178331815205459,0
2120,0.1855685197989031,0
2121,3.8550084647125895,0
2122,6.729895836221224,0
2123,-0.7305408006859682,0
2124,-1.4819420911827579,0
2125,1.4733568368717367,0
2126,-0.749728118116174,0
2127,0.14256328526712084,0
2128,0.0626112589919911,0
2129,-0.10089695640079613,0
2130,-0.0767532001594392,0
2131,-0.13926717383481865,0
2132,-0.020482960092090847,0
2133,-0.0223181997276971,0
2134,0.022916051846633076,0
2135,0.016489015800994967,0
2136,-0.06770744022080562,0
2137,-0.065815185494845,0
2138,-0.03868525570414645,0
2139,0.03233278427711293,0
2140,0.3599895703366756,0
2141,3.914238946784125,0
2142,6.658816836732459,0
2143,-0.8873921052317316,0
2144,-1.671038687800365,0
2145,1.4723890206799988,0
2146,-0.6640486027357617,0
2147,0.13900033178671384,0
2148,-0.03689859111457096,0
2149,0.02464434382685699,0
2150,-0.022067103823137018,0
2151,-0.061421067146396766,0
2152,0.09943893233854266,0
2153,0.03448562158056518,0
2154,-0.013533700475352992,0
2155,0.06661639349873241,0
2156,0.07585530370383446,0
2157,-0.057061430862425225,0
2158,0.0853983965284357,0
2159,-0.01669570794375592,0
2160,0.33043388623376935,0
2161,3.878991764520182,0
2162,6.719472583015282,0
2163,-0.8250795388340798,0
2164,-1.6472599775611338,0
2165,1.509589754626849,0
2166,-0.7790388996674169,0
2167,0.12598097572649378,0
2168,-0.06381923277124942,0
2169,0.01973423440633338,0
2170,-0.0029676793814535467,0
2171,0.09929129746604529,0
2172,-0.00956423574560103,0
2173,-0.016080546280942624,0
2174,-0.04761175310064161,0
2175,-0.05388025271490243,0
2176,-0.04707951238150808,0
2177,-0.03776444641468752,0
2178,-0.15726594234590086,0
2179,-0.034017027285018826,0
2180,0.36224541418768785,0
2181,3.8830544912283638,0
2182,6.68174220712309,0
2183,-0.8040412497999099,0
2184,-1.55334926813271,0
2185,1.450372245886131,0
2186,-0.7313133552314387,0
2187,0.17082006815179127,0
2188,0.025994450033435076,0
2189,-0.07287311429193928,0
2190,0.032251913307522126,0
2191,0.008136438067669529,0
2192,-0.06087208052340508,0
2193,-0.05552808661854449,0
2194,-0.03072957165441293,0
2195,0.016965645354659303,0
2196,-0.06170758051878383,0
2197,0.04850382722330994,0
2198,-0.03479336330295023,0
2199,-0.03944635303122852,0
2200,0.3272056060514391,0
2201,3.938789218965601,0
2202,6.673171137946531,0
2203,-0.8835017693857494,0
2204,-1.4992485182570068,0
2205,1.4369224183195906,0
2206,-0.7843329828226541,0
2207,0.297421579096451,0
2208,0.06267990827313005,0
2209,0.033830229037797005,0
2210,0.08919103641469367,0
2211,0.05593255482567856,0
2212,0.06513808047070069,0
2213,0.18599273541938371,0
2214,0.10461098962713332,0
2215,0.12276253836883516,0
2216,0.11065088933149253,0
2217,0.16088459233954475,0
2218,0.017146689847664966,0
2219,0.013359333898297559,0
2220,0.3441628224245781,0
2221,3.9601706095011617,0
2222,6.720288603023431,0
2223,-0.811404719733684,0
2224,-1.637311578752482,0
2225,1.4867520002479115,0
2226,-0.8256207279225735,0
2227,0.28744911223164726,0
2228,0.026079857635580395,0
2229,-0.07234575516382408,0
2230,-0.041692357158623364,0
2231,-0.01891741135151017,0
2232,0.015851011199170807,0
2233,-0.003320931596154616,0
2234,0.013537641112995987,0
2235,0.018004557091389102,0
2236,-0.017580578079656704,0
2237,0.04975739256618236,0
2238,0.09363428053975247,0
2239,-0.05877363405570461,0
2240,0.3237579096343183,0
2241,3.940376811958333,0
2242,6.647864438164966,0
2243,-0.8411241206428928,0
2244,-1.539702386645965,0
2245,1.463162378746517,0
2246,-0.7728721926654939,0
2247,0.25967801925038514,0
2248,0.031202528970730645,0
2249,-0.04555990329741923,0
2250,0.0012217738637588862,0
2251,0.05581649702730798,0
2252,0.09791545544662464,0
2253,0.10772068665261185,0
2254,0.013344369113223627,0
2255,0.08709186543970279,0
2256,0.04871953839496187,0
2257,0.14832240962941015,0
2258,0.04222878145199782,0
2259,0.05040378366156671,0
2260,0.28107600614890305,0
2261,4.0195318498247445,0
2262,6.773357143121289,0
2263,-0.7908114221536455,0
2264,-1.6553027464385968,0
2265,1.4400660897071855,0
2266,-0.791829340226216,0
2267,0.052755341439125775,0
2268,0.0018060797307288853,0
2269,-0.05524907220708217,0
2270,-0.04682259286611755,0
2271,0.0339057197573223,0
2272,-0.07229091117134265,0
2273,0.0013370628574678814,0
2274,-0.0011860806916776084,0
2275,-0.057476372616366594,0
2276,-0.06659900157656436,0
2277,-0.03856887297380714,0
2278,-0.01820434277838401,0
2279,-0.10672258296500953,0
2280,0.3410761093599653,0
2281,3.9267218733165423,0
2282,6.701796078716537,0
2283,-0.9257857924097641,0
2284,-1.6096181812766877,0
2285,1.4226493815885157,0
2286,-0.8229235336917874,0
2287,0.2042633668698154,0
2288,0.006035489035458802,0
2289,-0.08835318640910741,0
2290,-0.003479723551274839,0
2291,-0.017054964902936367,0
2292,0.003393559136233461,0
2293,-0.05885994960061299,0
2294,0.006442851894045174,0
2295,0.010466610187464292,0
2296,0.05182176470446645,0
2297,-0.024929451855786537,0
2298,-0.07696227123722008,0
2299,-0.11481928275811573,0
2300,0.31926371503354756,0
2301,3.8813854613497165,0
2302,6.717417162026211,0
2303,-0.8935767895074629,0
2304,-1.5811768854219665,0
2305,1.3970640442128501,0
2306,-0.8110406014860098,0
2307,0.21401289473260315,0
2308,0.012448084961114245,0
2309,0.004761652001868597,0
2310,-0.019740429906786934,0
2311,0.021608694276103034,0
2312,0.061043569156761596,0
2313,0.053407445393284986,0
2314,0.06613641797198247,0
2315,0.08879079731131116,0
2316,0.004833703115386494,0
2317,0.07174706850702454,0
2318,0.02746544632558512,0
2319,-0.002868623001233088,0
2320,0.26330592589784024,0
2321,3.875974689061756,0
2322,6.711981119549812,0
2323,-0.9201208697152062,0
2324,-1.5863950882118512,0
2325,1.503655814644594,0
2326,-0.7784047663939713,0
2327,0.1686276714036259,0
2328,-0.058345325183879526,0
2329,-0.06741680393880323,0
2330,-0.018267457485420423,0
2331,-0.15651151354883647,0
2332,-0.011411125782530509,0
2333,0.00672841038787703,0
2334,0.006767986114813109,0
2335,-0.012084734795005053,0
2336,0.05421156368401167,0
2337,0.0017222955740165725,0
2338,0.04919537902740825,0
2339,0.05138442478255023,0
2340,0.3197191477780942,0
2341,3.957680337386916,0
2342,6.816122569018069,0
2343,-0.818381793471517,0
2344,-1.5071665693980545,0
2345,1.4162139813230514,0
2346,-0.7619329395470514,0
2347,0.2039188047649346,0
2348,0.01071622434435784,0
2349,0.04196551827530391,0
2350,0.03980924164134805,0
2351,0.018377035055476575,0
2352,0.018818361347491805,0
2353,-0.09164410588932502,0
2354,0.009691910655322874,0
2355,0.045951854612932726,0
2356,-0.020600737623686645,0
2357,0.007765801721522383,0
2358,-0.05945779318676596,0
2359,-0.015825899183249517,0
2360,0.36576550697011406,0
2361,3.982221955601748,0
2362,6.716088239342825,0
2363,-0.8579918549614227,0
2364,-1.55624413040004,0
2365,1.5138912383168823,0
2366,-0.7081315448984048,0
2367,0.2472701027989189,0
2368,-0.02490732081289422,0
2369,0.006399540505811721,0
2370,0.05212638337056057,0
2371,-0.027984638810606553,0
2372,0.09629309934284483,0
2373,0.016512673437105968,0
2374,0.026207853940577557,0
2375,0.00035869244989600313,0
2376,0.04174383006073826,0
2377,-0.025320524887810808,0
2378,0.02043755787255722,0
2379,-0.008550008027256334,0
2380,0.3751397731226482,0
2381,3.896972576298811,0
2382,6.724675300460844,0
2383,-0.8019444353503103,0
2384,-1.5207422411411697,0
2385,1.6032724373147464,0
2386,-0.6901639616311258,0
2387,0.22834311199494647,0
2388,0.07595506167721909,0
2389,0.1378079235166273,0
2390,0.10299310458904389,0
2391,0.028760788855767085,0
2392,0.052758030677143894,0
2393,0.09071929221320799,0
2394,0.033864690600640956,0
2395,0.11972810873496213,0
2396,0.005662219569189567,0
2397,0.10435976632162666,0
2398,0.039256454116138866,0
2399,0.05226040211711371,0
2400,0.3965022246386318,0
2401,4.071907429240744,0
2402,6.717159066874809,0
2403,-0.8209872318884238,0
2404,-1.456769362109683,0
2405,1.542692207443435,0
2406,-0.8366781803349755,0
2407,0.23868351241886565,0
2408,-0.021143390450724747,0
2409,0.0025627615496638598,0
2410,0.004705381420330446,0
2411,0.041924540827056114,0
2412,0.022437227284681237,0
2413,0.042148932952951905,0
2414,0.046273776372180275,0
2415,0.008022040652231,0
2416,-0.0025219245680568395,0
2417,-0.004704391403906376,0
2418,0.05845543163228273,0
2419,-0.00100450133066822,0
2420,0.49436813335341334,0
2421,4.005979277884432,0
2422,6.616284564360616,0
2423,-0.8965279256193139,0
2424,-1.4851178781545664,0
2425,1.432746530173011,0
2426,-0.7674924902515239,0
2427,0.32185472485174826,0
2428,0.06240128246699195,0
2429,0.047799522711354465,0
2430,0.0475107798667976,0
2431,-0.039084724371224074,0
2432,0.04194498520093748,0
2433,0.015352675844234102,0
2434,-0.03239002977438973,0
2435,0.003763046826697737,0
2436,0.025096446243741348,0
2437,0.09253385931429613,0
2438,0.020663672213816528,0
2439,0.016081956614894397,0
2440,0.39226499140862664,0
2441,4.005252677683192,0
2442,6.775049914181782,0
2443,-0.8860740937649505,0
2444,-1.5564041662079462,0
2445,1.5715612256619897,0
2446,-0.7188743969006685,0
2447,0.33110446112268516,0
2448,0.035381248749388465,0
2449,0.05324834274646546,0
2450,0.2013121696290055,0
2451,0.09341863775201747,0
2452,0.012163874673418285,0
2453,0.11324739322196109,0
2454,0.058461544443734983,0
2455,0.056057827420761236,0
2456,0.14312199471909837,0
2457,0.0872740974342907,0
2458,0.0902012697597172,0
2459,0.004533198235423169,0
2460,0.3719986443917647,0
2461,4.090712570787524,0
2462,6.7594198525674605,0
2463,-0.8799355478769018,0
2464,-1.4813158493206535,0
2465,1.540447128489686,0
2466,-0.6739559257162697,0
2467,0.2718396563747844,0
2468,0.03940116873840332,0
2469,0.04924886722988556,0
2470,0.016151910474490175,0
2471,0.07751782920137265,0
2472,0.05062689789046328,0
2473,-0.01811266827705562,0
2474,0.1252436022661948,0
2475,-0.0005367529867497597,0
2476,-0.045827029155883936,0
2477,0.01440584147877438,0
2478,0.020458574098226094,0
2479,0.07089385009341526,0
2480,0.39981626268269166,0
2481,3.974343948802304,0
2482,6.717901875526176,0
2483,-0.9749460470695441,0
2484,-1.5421860050005574,0
2485,1.5138260047551229,0
2486,-0.7712446419466734,0
2487,0.20601717048871876,0
2488,0.05557963553730071,0
2489,0.009023389670845039,0
2490,-0.09608859850504411,0
2491,0.0005976898718151208,0
2492,-0.0544644171956436,0
2493,0.002918715488346626,0
2494,0.03715840681814104,0
2495,0.03718719947486088,0
2496,0.11099800283423905,0
2497,0.00688684537487844,0
2498,0.02241257085047303,0
2499,0.02905839951174852,0
2500,0.46593076679311424,0
2501,3.936651548791453,0
2502,6.622763434484464,0
2503,-0.91917431714169,0
2504,-1.4929162886971923,0
2505,1.4757215783605877,0
2506,-0.7603202143095891,0
2507,0.18234594069757976,0
2508,-0.07375585803926385,0
2509,-0.08256852836495399,0
2510,0.061279295384774043,0
2511,-0.008092291578905049,0
2512,-0.10242628540407876,0
2513,-0.08549326770339785,0
2514,-0.03762062814587107,0
2515,-0.13274682507295796,0
2516,-0.030530545398846715,0
2517,-0.01133583719778386,0
2518,0.021758402818824088,0
2519,0.007805864743727298,0
2520,0.3682136797221454,0
2521,3.866417089290028,0
2522,6.599939899600633,0
2523,-0.9970955411889821,0
2524,-1.5291786609868914,0
2525,1.5199885947203264,0
2526,-0.712513848697118,0
2527,0.24274388041757072,0
2528,-0.002171923731205689,0
2529,-0.07498700669808928,0
2530,-0.021192241888316123,0
2531,-0.055520666125110196,0
2532,0.010565488649448361,0
2533,0.0017847458802053174,0
2534,-0.02445967538270779,0
2535,0.021014959487099256,0
2536,-0.11399560964772681,0
2537,0.04037479387685425,0
2538,-0.07250002812028847,0
2539,-0.06647697045359693,0
2540,0.3075414421726281,0
2541,3.860763152750463,0
2542,6.634644376063388,0
2543,-0.989991566499924,0
2544,-1.5805672915332623,0
2545,1.4642239893314388,0
2546,-0.73459348613009,0
2547,0.22098448408869464,0
2548,-0.07988053101585449,0
2549,-0.03015778277188669,0
2550,0.03732331584230992,0
2551,0.009483956854240631,0
2552,-0.017927073310122513,0
2553,0.07233705693115758,0
2554,0.004198163181643663,0
2555,0.007561288628888569,0
2556,-0.031351045053063326,0
2557,-0.005907128934693882,0
2558,-0.10265390611804456,0
2559,0.0736831417366077,0
2560,0.3638424074519875,0
2561,3.90462914024043,0
2562,6.59055894444358,0
2563,-0.9496029299678461,0
2564,-1.5750986939248615,0
2565,1.3834055704903525,0
2566,-0.7717319012579765,0
2567,0.19251187030495165,0
2568,0.010081848971186295,0
2569,-0.034178462622559184,0
2570,-0.054368690452527915,0
2571,-0.05450509085592187,0
2572,-0.14374292033489044,0
2573,-0.07636180649982208,0
2574,-0.0878956802453639,0
2575,-0.04756304887934576,0
2576,0.00606846428959254,0
2577,-0.062316165445000654,0
2578,-0.06543348219124692,0
2579,0.013763076045024799,0
2580,0.3261213755257946,0
2581,4.065560720046344,0
2582,6.639270287173342,0
2583,-0.9797350414601816,0
2584,-1.4995595902343548,0
2585,1.3384961246316676,0
2586,-0.7852564169565166,0
2587,0.12242581861715021,0
2588,-0.055321701170835125,0
2589,0.004676351005290215,0
2590,-0.030581652888181356,0
2591,-0.04163650750020557,0
2592,-0.07770309504125507,0
2593,0.022287332058434507,0
2594,-0.0641690613634446,0
2595,-0.07731799802873576,0
2596,-0.03215496661154178,0
2597,-0.08563916427123686,0
2598,-0.13420692143649474,0
2599,-0.06258258036366286,0
2600,0.272777786618669,0
2601,3.883388019739877,0
2602,6.730634365559921,0
2603,-1.0503959456670484,0
2604,-1.5875322502107763,0
2605,1.4473350482055753,0
2606,-0.8535873926371415,0
2607,0.26142163484484215,0
2608,-0.1501694497237272,0
2609,-0.032218816690311305,0
2610,-0.00662173125389582,0
2611,-0.035770712161968435,0
2612,-0.12233988234240216,0
2613,0.054038690546562504,0
2614,-0.007058429888637495,0
2615,-0.06960776390844524,0
2616,-0.06120344333026158,0
2617,-0.07862753236230541,0
2618,-0.056173997225530674,0
2619,-0.06940767273938103,0
2620,0.3646174400835178,0
2621,3.9581280990521974,0
2622,6.560143828217408,0
2623,-0.960708467885494,0
2624,-1.6564424151252952,0
2625,1.4676933348999865,0
2626,-0.8030800128451825,0
2627,0.15126456009148745,0
2628,-0.10559922074357225,0
2629,-0.09380439206316707,0
2630,0.011969956045178386,0
2631,0.03272856836539374,0
2632,0.09338770474898248,0
2633,-0.07879465935240736,0
2634,0.03639147152824707,0
2635,-0.08215743769226619,0
2636,0.023215639012715117,0
2637,-0.14656509396739603,0
2638,-0.12821091078921598,0
2639,0.022993053306623927,0
2640,0.39182618338039643,0
2641,3.8170187266100295,0
2642,6.660319168361673,0
2643,-1.0526623800349735,0
2644,-1.5725197435968012,0
2645,1.4057619734719549,0
2646,-0.7768732076818063,0
2647,0.16131570902356404,0
2648,0.01384427372654884,0
2649,-0.11822589508943204,0
2650,0.0184321856349261,0
2651,0.052564848307039225,0
2652,0.03493434601017373,0
2653,-0.04447442070535575,0
2654,0.052302829827330255,0
2655,-0.06552577452970385,0
2656,-0.013138215562394358,0
2657,-0.029008577600613764,0
2658,0.042697600991629295,0
2659,-0.02108970564546409,0
2660,0.3020898427729814,0
2661,3.9306251826190133,0
2662,6.646880800488753,0
2663,-1.1462000414200573,0
2664,-1.5793377822296986,0
2665,1.436824627232099,0
2666,-0.8640927746792045,0
2667,0.1908060415969453,0
2668,-0.040063495642602205,0
2669,-0.07550124933507905,0
2670,0.04932341253871927,0
2671,-0.0972957695249324,0
2672,-0.11641285836431217,0
2673,-0.02721244289037327,0
2674,-0.07616202496440407,0
2675,-0.090146254164105,0
2676,-0.011081949726371887,0
2677,-0.012587770191001102,0
2678,-0.0741342759826727,0
2679,-0.10773870147757295,0
2680,0.3292132210425905,0
2681,3.999327445827592,0
2682,6.542316546138627,0
2683,-1.0163400152686528,0
2684,-1.5677744229548718,0
2685,1.388320591884423,0
2686,-0.8579432210419226,0
2687,0.16532443168308764,0
2688,-0.030866717766656088,0
2689,-0.01755119788681475,0
2690,-0.037918052186650154,0
2691,-0.08491956852587285,0
2692,-0.08813356630615289,0
2693,-0.1312062348342852,0
2694,-0.009836255621409024,0
2695,-0.069586242278408,0
2696,-0.0913848992290549,0
2697,-0.05936366509182348,0
2698,-0.07871451988965349,0
2699,-0.09134745908920763,0
2700,0.37635670481822814,0
2701,3.860645289012332,0
2702,6.588539406953386,0
2703,-0.9147555191295694,0
2704,-1.5704861455810395,0
2705,1.4555024414262603,0
2706,-0.9049668289917652,0
2707,0.16786869128114548,0
2708,-0.11504075906025962,0
2709,-0.07621452226265604,0
2710,-0.11165790587298041,0
2711,-0.11812237412585323,0
2712,-0.047614563785654276,0
2713,-0.026797169823860822,0
2714,-0.044158314975403956,0
2715,0.008286549963812735,0
2716,-0.04156299427129871,0
2717,-0.017326270000070036,0
2718,-0.08857640507185599,0
2719,-0.03303688235243411,0
2720,0.31523297271989237,0
2721,4.023899746696262,0
2722,6.637970576751743,0
2723,-0.9928101476097775,0
2724,-1.5723241629784985,0
2725,1.3792186214259856,0
2726,-0.7487704156337934,0
2727,0.1425131650965215,0
2728,-0.022105636382797257,0
2729,-0.026491956356340593,0
2730,-0.04551433964380714,0
2731,-0.09427724572519385,0
2732,-0.08893662382631604,0
2733,-0.02354064607150729,0
2734,-0.04317677239954041,0
2735,-0.06452681098999777,0
2736,-0.11260447912656812,0
2737,-0.03970346847497245,0
2738,-0.1302058557520904,0
2739,-0.07729369891699123,0
2740,0.2666678764234024,0
2741,3.9725116577187514,0
2742,6.531202927198392,0
2743,-1.1811780211332856,0
2744,-1.5905260640701042,0
2745,1.4290087727673118,0
2746,-0.8663279958049177,0
2747,0.1955051069299941,0
2748,-0.140182041678449,0
2749,-0.14479944797947553,0
2750,-0.05251940579081108,0
2751,-0.1484101132116421,0
2752,-0.0545466600244276,0
2753,-0.037205926385176835,0
2754,0.017308080026577518,0
2755,-0.07409863311859166,0
2756,-0.030496989907204505,0
2757,-0.03519331636466684,0
2758,0.029264837175538412,0
2759,0.05643593910042569,0
2760,0.3365544780599063,0
2761,3.9537090877831425,0
2762,6.645916384462409,0
2763,-0.9224633726267363,0
2764,-1.4759536514042342,0
2765,1.4176037208776864,0
2766,-0.781291322186273,0
2767,0.303132826364797,0
2768,0.05926925574053842,0
2769,-0.06924140147348702,0
2770,-0.0005474673818756295,0
2771,0.0018881398255457416,0
2772,0.007950229226973027,0
2773,-0.04086059105370944,0
2774,-0.009783140470042924,0
2775,-0.08295782816900651,0
2776,-0.04742982021197179,0
2777,-0.018221026857059397,0
2778,-0.03440052679590974,0
2779,-0.08778888943866897,0
2780,0.3015598595431396,0
2781,3.9859570368453356,0
2782,6.624924171795337,0
2783,-1.0249638846106779,0
2784,-1.5821142035796392,0
2785,1.378193074118728,0
2786,-0.8500073380552274,0
2787,0.14762354717978687,0
2788,-0.04452735524316829,0
2789,-0.018886754619485552,0
2790,0.07382384979230489,0
2791,0.009837484590901703,0
2792,-0.07636091634499054,0
2793,-0.008823435345192993,0
2794,0.03867089935068921,0
2795,-0.0052126450115973135,0
2796,-0.01999169355992262,0
2797,-0.07465659570185794,0
2798,-0.009208024048817896,0
2799,0.038497130038319796,0
2800,0.4624573260058659,0
2801,3.9931954675652457,0
2802,6.584043944391486,0
2803,-1.0539977111999703,0
2804,-1.4969710530980123,0
2805,1.376644984782559,0
2806,-0.8225343569853653,0
2807,0.2052680701096472,0
2808,-0.06982214331315328,0
2809,0.0626545123652692,0
2810,0.004310087066648113,0
2811,0.021864852433301937,0
2812,0.032945101592538314,0
2813,0.046244932626039695,0
2814,-0.01581573922745452,0
2815,0.03618067241762565,0
2816,0.004881337014993197,0
2817,0.02550890091814196,0
2818,0.01953654547348664,0
2819,0.04124640138187759,0
2820,0.38923080942546445,0
2821,4.062166506936511,0
2822,6.692808939816108,0
2823,-1.037993472592204,0
2824,-1.5030060753101242,0
2825,1.4666874447811105,0
2826,-0.6958133796949048,0
2827,0.28787842459037594,0
2828,0.010352151104418849,0
2829,-0.018967214732936746,0
2830,-0.06907218159597614,0
2831,0.010637057199841152,0
2832,-0.036984504002560176,0
2833,-0.027469432019684447,0
2834,0.00995849645546111,0
2835,0.006018272725827502,0
2836,-0.02460346941991627,0
2837,0.052346403828609646,0
2838,0.019640498980358558,0
2839,-0.03818577349508129,0
2840,0.46481605707620405,0
2841,4.024377668199524,0
2842,6.71998084552025,0
2843,-0.9841991534280519,0
2844,-1.4535837367389834,0
2845,1.5543304509110196,0
2846,-0.7998634819160246,0
2847,0.21184467801788623,0
2848,-0.058784198103635936,0
2849,0.11673791855705337,0
2850,0.02009242770097748,0
2851,-0.00035695624834498896,0
2852,-0.019625799611074482,0
2853,0.08157245385307485,0
2854,0.005733583742114287,0
2855,-0.047547632123337444,0
2856,0.001915057649974291,0
2857,0.045280900762083104,0
2858,0.0034204823301547966,0
2859,0.03094172978189726,0
2860,0.44643895272770895,0
2861,3.9532644181961145,0
2862,6.575402371202936,0
2863,-1.0346578052215551,0
2864,-1.4030306267317882,0
2865,1.4477127593219208,0
2866,-0.7520404849815017,0
2867,0.2289650021033131,0
2868,-0.08765893578634702,0
2869,-0.11238342116460592,0
2870,0.03076785374744721,0
2871,0.035515422220287696,0
2872,-0.013932326462751833,0
2873,0.0020556480115387936,0
2874,0.08510972613757588,0
2875,-0.04126251415464777,0
2876,0.0244743009466224,0
2877,0.0275457835339336,0
2878,0.09126188412326557,0
2879,-0.015502305376880694,0
2880,0.40656554426180797,0
2881,4.038783887265427,0
2882,6.64636432442888,0
2883,-1.0566321223171982,0
2884,-1.382235044825195,0
2885,1.4498258541959084,0
2886,-0.7964278804526927,0
2887,0.3139869813903031,0
2888,0.028502766515370828,0
2889,-0.003646123549116774,0
2890,0.12724765510757158,0
2891,0.08755554676403783,0
2892,0.07960761801127747,0
2893,0.05419043978149213,0
2894,0.036271876769107994,0
2895,0.06034478309300016,0
2896,0.0717585276166998,0
2897,0.03924074176599448,0
2898,-0.006000644846837211,0
2899,0.0032900043181560493,0
2900,0.3677066276238638,0
2901,4.059854809254427,0
2902,6.639511847652085,0
2903,-0.9713334470516866,0
2904,-1.4582471214582184,0
2905,1.5560276043183827,0
2906,-0.7667198306093491,0
2907,0.20152539671525693,0
2908,0.10759279006356988,0
2909,-0.05262813255446841,0
2910,0.00811376636607673,0
2911,0.13223852214329787,0
2912,0.0811300292538776,0
2913,0.08255473994228181,0
2914,0.05325649923998919,0
2915,0.018658924705674037,0
2916,0.048845489585041243,0
2917,-0.017886145816739633,0
2918,0.06318766034612534,0
2919,-0.012129767402949725,0
2920,0.4186699148267353,0
2921,3.9880960489500805,0
2922,6.71396065531004,0
2923,-0.9537393615884915,0
2924,-1.511833578583565,0
2925,1.4677445745591315,0
2926,-0.6845129260303672,0
2927,0.3221885772215823,0
2928,0.049255297193638574,0
2929,0.010665958685704989,0
2930,0.16120260013553428,0
2931,-0.014642184611364538,0
2932,0.05704390366506466,0
2933,-0.010460749866890173,0
2934,0.05952498591058021,0
2935,-0.010849881592859413,0
2936,0.022650836937056277,0
2937,0.10304365505927256,0
2938,-0.027686472522407926,0
2939,0.04362348249905678,0
2940,0.37981112823823443,0
2941,3.972202965504085,0
2942,6.533743469761338,0
2943,-0.9716798241813063,0
2944,-1.4509431597779177,0
2945,1.4429510394763658,0
2946,-0.6780741548070501,0
2947,0.23437339663229922,0
2948,-0.06139646269952477,0
2949,-0.028260255789131158,0
2950,0.04063395391665405,0
2951,0.07395121484209922,0
2952,0.11159607034100374,0
2953,0.16723496276167968,0
2954,0.06242600411509536,0
2955,-0.018780022587739587,0
2956,0.08250373810534106,0
2957,0.05669888080128915,0
2958,-0.04375695188098129,0
2959,0.054708779798946616,0
2960,0.42663746884346104,0
2961,3.981835454212118,0
2962,6.613793154211264,0
2963,-0.9985308093171912,0
2964,-1.453295690583942,0
2965,1.4164384991396795,0
2966,-0.7688734999371339,0
2967,0.1676606620044749,0
2968,-0.0980885282238802,0
2969,0.009108530243326307,0
2970,0.03684721110125893,0
2971,-0.00796410114799357,0
2972,0.02017300944920439,0
2973,-0.0037684101098239813,0
2974,-0.06838510323952855,0
2975,-0.013467446171104753,0
2976,0.08362810965346176,0
2977,0.01383535804051462,0
2978,-0.03940129032329635,0
2979,-0.055633436389360025,0
2980,0.43189054937246174,0
2981,4.05315273086666,0
2982,6.6331021702809005,0
2983,-1.066741305045116,0
2984,-1.386657506673424,0
2985,1.432795333338001,0
2986,-0.7122030841647542,0
2987,0.1815679224379043,0
2988,0.01926619663464693,0
2989,-0.04715956306391246,0
2990,0.029880784884194937,0
2991,0.0493412102847543,0
2992,0.07499025657844424,0
2993,0.04265242547716991,0
2994,0.03211114474436505,0
2995,-0.05146612019907698,0
2996,0.0011666374046113877,0
2997,0.11057125525781204,0
2998,-0.03492209373476668,0
2999,-0.023961565793146674,0
3000,0.4724084327623511,0
3001,3.952768347585692,0
3002,6.650963168758896,0
3003,-1.1003881139205907,0
3004,-1.4658672213903747,0
3005,1.391369174723328,0
3006,-0.7146738712429986,0
3007,0.22139185331027036,0
3008,0.05002340658234554,0
3009,0.0023185982379803557,0
3010,0.016676953767996733,0
3011,0.06621959896501917,0
3012,-0.0964083012404349,0
3013,0.021116567225751524,0
3014,0.056364953233424164,0
3015,0.009108323813306597,0
3016,-0.02404522948299966,0
3017,0.0753387704695259,0
3018,0.1470869165340373,0
3019,0.10150350054389795,0
3020,0.3663858501328839,0
3021,4.15707035743997,0
3022,6.701951116239218,0
3023,-0.9884503741094209,0
3024,-1.3601994344104698,0
3025,1.3995337693685501,0
3026,-0.6264838579836043,0
3027,0.28690477346852217,0
3028,0.0798577463773654,0
3029,0.0040023416759935645,0
3030,0.0420639157028089,0
3031,0.003862652375777405,0
3032,0.041374458411355584,0
3033,0.005017450258396486,0
3034,-0.032924904496905216,0
3035,-0.0354044262804243,0
3036,-0.04317832865847187,0
3037,0.02120148285054113,0
3038,-0.11802976430336085,0
3039,-0.0066411013002494156,0
3040,0.4066869682442996,0
3041,4.064154850442795,0
3042,6.6243218654469445,0
3043,-1.0284811904944913,0
3044,-1.4252281849664177,0
3045,1.4554211232110852,0
3046,-0.782731314753331,0
3047,0.23978955903864696,0
3048,-0.019443406610974157,0
3049,0.05025589689487469,0
3050,0.03527664974687562,0
3051,0.012603148033504059,0
3052,0.018080894511285993,0
3053,-0.002886599080324694,0
3054,0.03295565636034363,0
3055,0.12851793575258058,0
3056,0.05130829656096006,0
3057,0.12059489901895067,0
3058,-0.026600119513879,0
3059,0.10240335667991152,0
3060,0.41696654183041015,0
3061,4.0682037906176705,0
3062,6.548077096576184,0
3063,-0.9905215230122528,0
3064,-1.4901550706373925,0
3065,1.4482080665892931,0
3066,-0.7558785146246151,0
3067,0.298614432725206,0
3068,0.03037389987778894,0
3069,-0.026488348177182215,0
3070,-0.013603767163084104,0
3071,0.05582619558140269,0
3072,-0.06091157007798993,0
3073,0.09335511366472365,0
3074,0.03538927076472087,0
3075,0.07667046897960111,0
3076,0.04745002083004977,0
3077,0.02512514418900497,0
3078,0.02890298374866853,0
3079,-0.002192068488390958,0
3080,0.4381453246049087,0
3081,4.1883136454496475,0
3082,6.598723567757737,0
3083,-1.0174306173155263,0
3084,-1.434037216261934,0
3085,1.540029074913757,0
3086,-0.777844428259346,0
3087,0.19123043430448483,0
3088,0.04655187949255821,0
3089,-0.03145666111550215,0
3090,0.05049981488957462,0
3091,-0.01527733931125536,0
3092,-0.06849180877606287,0
3093,0.0044845154763430515,0
3094,0.07313338437999457,0
3095,-0.08213061868427546,0
3096,0.05321706024391232,0
3097,-0.012924479586015922,0
3098,0.0181153047464511,0
3099,-0.027833070783790846,0
3100,0.3987142767486928,0
3101,4.143316790376345,0
3102,6.698427352693537,0
3103,-1.0641343703193649,0
3104,-1.4071529039116553,0
3105,1.3957733880532905,0
3106,-0.7861590785639452,0
3107,0.2110332900996387,0
3108,-0.08993701311755373,0
3109,-0.011301617018250294,0
3110,0.029235711665595937,0
3111,0.04516240142200906,0
3112,0.0021172339872906933,0
3113,0.029299528013797458,0
3114,0.012468665907476065,0
3115,0.07654943976486073,0
3116,0.057290865759833096,0
3117,0.02479675898510012,0
3118,0.04831116705184856,0
3119,0.05020042171344297,0
3120,0.4275229183862369,0
3121,4.027659491370031,0
3122,6.617350855975505,0
3123,-1.1684576732858407,0
3124,-1.4392266773320648,0
3125,1.3960955593206048,0
3126,-0.7618263752877731,0
3127,0.248572424599997,0
3128,-0.05558835157308546,0
3129,-0.03513175915642671,0
3130,0.0790715332359207,0
3131,-0.023686232004926942,0
3132,-0.0795284912797513,0
3133,-0.06786975064230483,0
3134,0.03706031196629729,0
3135,0.01975077244987232,0
3136,-0.004350648382721856,0
3137,-0.05854468590657868,0
3138,0.042167237565181356,0
3139,0.04728315478073953,0
3140,0.3840280580742495,0
3141,4.159574686881043,0
3142,6.612838150456771,0
3143,-1.2214155009555905,0
3144,-1.3199579975801432,0
3145,1.4175589427838922,0
3146,-0.8495351442251524,0
3147,0.21657296258744313,0
3148,0.0773870643412034,0
3149,-0.015928117318399767,0
3150,0.019803226810792166,0
3151,0.021288250299531443,0
3152,0.020493308754859496,0
3153,-0.040100727421442536,0
3154,-0.055937706868517935,0
3155,-0.04636751773230456,0
3156,-0.07861876257823494,0
3157,0.011502960357528673,0
3158,-0.03689035927152726,0
3159,0.04612140813387995,0
3160,0.32965177018181313,0
3161,4.070036593391924,0
3162,6.633785976082205,0
3163,-1.1386504982963366,0
3164,-1.4475895038289477,0
3165,1.419371330789832,0
3166,-0.7940117848491889,0
3167,0.2956238081365926,0
3168,-0.043670377824148905,0
3169,4.2794287371038936e-05,0
3170,0.05768669533482001,0
3171,0.021464571839709835,0
3172,-0.011088132491383589,0
3173,-3.90329048418547e-05,0
3174,-0.016461518796602653,0
3175,0.061573967742677614,0
3176,-0.053752459068912455,0
3177,0.01220696020224038,0
3178,0.031178613959844816,0
3179,-0.00848398353458635,0
3180,0.4685750652019871,0
3181,4.055861231807443,0
3182,6.581569783352082,0
3183,-1.1305194326967,0
3184,-1.485120802209771,0
3185,1.388766753296973,0
3186,-0.8604983049887789,0
3187,0.209063361201261,0
3188,-0.09640674959782355,0
3189,-0.0560619778675059,0
3190,-0.05704932226025158,0
3191,-0.07064724854601642,0
3192,0.0024578728046432408,0
3193,-0.06356905804984674,0
3194,-0.06801874485423812,0
3195,0.08965044679488035,0
3196,-0.014901119792930902,0
3197,0.09619103193339955,0
3198,-0.0483097798301902,0
3199,0.04856712097546189,0
3200,0.37105044689585454,0
3201,4.0773266840237445,0
3202,6.632413020477002,0
3203,-0.9842811509710814,0
3204,-1.3274017861733785,0
3205,1.518263545872388,0
3206,-0.8104891568970666,0
3207,0.2540560000048849,0
3208,0.023446063999050692,0
3209,0.019150263427932204,0
3210,0.0173458928782105,0
3211,-0.0888092505438636,0
3212,-0.06466543029525956,0
3213,0.03769481638298442,0
3214,-0.013313885756796708,0
3215,0.06912293237027811,0
3216,0.09067381438361512,0
3217,0.054909106250337215,0
3218,-0.023690800720782626,0
3219,0.05560179386285017,0
3220,0.34838384235675,0
3221,4.10250548554799,0
3222,6.542982701940257,0
3223,-1.2371866670093317,0
3224,-1.479499389800933,0
3225,1.382849928561347,0
3226,-0.8234727532884066,0
3227,0.22864755528118524,0
3228,-0.04777538360393458,0
3229,-0.05618349498319938,0
3230,0.0018878046277025218,0
3231,-0.12777277189497965,0
3232,-0.12082413802580699,0
3233,0.002216246162253785,0
3234,-0.09346264127122973,0
3235,0.020729637258262615,0
3236,-0.2207303776031986,0
3237,-0.04713624588044146,0
3238,-0.036436232745610565,0
3239,-0.05879605770931129,0
3240,0.26225132605465795,0
3241,3.9842995889230366,0
3242,6.615431445125731,0
3243,-1.047250468519249,0
3244,-1.4452439793744358,0
3245,1.264248957217538,0
3246,-0.8556050155204169,0
3247,0.2140496615376423,0
3248,-0.11888241995405371,0
3249,-0.04356523624616253,0
3250,0.06964235514024758,0
3251,-0.08135965486602229,0
3252,-0.037970861367756806,0
3253,-0.01108210564745931,0
3254,-0.04811730078087827,0
3255,-0.07504443864554264,0
3256,-0.009368263850628698,0
3257,-0.024824465204518288,0
3258,-0.04768488777759575,0
3259,0.024901703943916005,0
3260,0.36430378810000075,0
3261,4.029988885181879,0
3262,6.68860399390667,0
3263,-1.128506434509173,0
3264,-1.3761843784423309,0
3265,1.478667996005077,0
3266,-0.841346374350179,0
3267,0.24717559954109664,0
3268,0.07122050012433984,0
3269,-0.04459658607060748,0
3270,0.019346400411302648,0
3271,0.0007405062348566811,0
3272,-0.024147827899942666,0
3273,-0.020870368188708913,0
3274,-0.10367662526289591,0
3275,-0.04944692753439072,0
3276,-0.027912060909737097,0
3277,0.006182250188121123,0
3278,-0.09275056073200211,0
3279,-0.12298454982290152,0
3280,0.3123211201224298,0
3281,3.988446162424089,0
3282,6.642782051250922,0
3283,-1.1820165879889128,0
3284,-1.5421928426839953,0
3285,1.3909183027434977,0
3286,-0.7802234824440726,0
3287,0.2083697755929654,0
3288,0.0004290424960523946,0
3289,0.04407827050996977,0
3290,0.0580302734355261,0
3291,0.06409279138446265,0
3292,0.03956199812653323,0
3293,0.025834289358775055,0
3294,0.016189033265489768,0
3295,-0.024048278855585907,0
3296,0.024979186365211684,0
3297,0.07190085621012533,0
3298,0.10547793068803221,0
3299,-0.00856428175597612,0
3300,0.4709947375911754,0
3301,4.108788978064379,0
3302,6.624188716147519,0
3303,-1.1608356572387728,0
3304,-1.5496087351915704,0
3305,1.4066593297132686,0
3306,-0.8260224047932875,0
3307,0.16268071519448826,0
3308,-0.13496733383361997,0
3309,-0.03421635820695212,0
3310,0.07505528254007424,0
3311,0.08038188940355735,0
3312,-0.014160696301528742,0
3313,0.0056922669863920215,0
3314,0.05687288784986265,0
3315,-0.09642642747546651,0
3316,0.009459391997678448,0
3317,0.03815364517001855,0
3318,0.07250861936726552,0
3319,0.0025689248757098954,0
3320,0.34250478915532556,0
3321,4.134454230310326,0
3322,6.616422896953027,0
3323,-1.1387158927004963,0
3324,-1.3500522506679997,0
3325,1.3779233578519103,0
3326,-0.7382271978498147,0
3327,0.2917185851900046,0
3328,0.07765481359170942,0
3329,-0.08391777023900406,0
3330,-0.04604790322592288,0
3331,0.02104101985566642,0
3332,0.036606750180857406,0
3333,-0.04702635605088916,0
3334,-0.012652126767339431,0
3335,-0.005368328550940157,0
3336,0.03501320451009311,0
3337,-0.09658382279389281,0
3338,-0.02209993166856109,0
3339,0.004784460634107271,0
3340,0.3260549694640419,0
3341,4.136749476290329,0
3342,6.628232232071311,0
3343,-1.1755971416140678,0
3344,-1.4514643831870824,0
3345,1.3456721905060534,0
3346,-0.8032438970481048,0
3347,0.2010311836017859,0
3348,-0.08222077974920323,0
3349,-0.09797704305152527,0
3350,-0.021591872024763557,0
3351,-0.030780374058669503,0
3352,0.12793819290566663,0
3353,-0.029269008847631006,0
3354,0.07281498896353203,0
3355,-0.05638812889782128,0
3356,0.003986934479837138,0
3357,0.059678762935393,0
3358,-0.06138304844392799,0
3359,0.002602291920289091,0
3360,0.44736571466757846,0
3361,4.047785414716944,0
3362,6.569254176928596,0
3363,-1.1622507643468891,0
3364,-1.405320083854231,0
3365,1.421126115130719,0
3366,-0.7499925636554123,0
3367,0.3121115530099282,0
3368,0.017976646204216115,0
3369,-0.1059056680099919,0
3370,0.03443684629103193,0
3371,-0.08185650536133883,0
3372,0.05439807479702726,0
3373,0.0064203156974707125,0
3374,0.04095331087953654,0
3375,0.030674276524515695,0
3376,-0.017989590383705928,0
3377,0.07878837848050455,0
3378,0.11917530720401673,0
3379,0.038429276332748216,0
3380,0.523785473972844,0
3381,4.124189407875195,0
3382,6.549928670183025,0
3383,-1.1085010493681173,0
3384,-1.3682549872908747,0
3385,1.483941085230138,0
3386,-0.7898401613283623,0
3387,0.1787478052534962,0
3388,0.041818961631727276,0
3389,-0.05425396450908164,0
3390,-0.021044237653347155,0
3391,0.10151995204435459,0
3392,-0.019136680587554647,0
3393,0.06472643990940952,0
3394,0.1392093413269547,0
3395,0.022267326492749148,0
3396,-0.028442098794185057,0
3397,0.022390625783996806,0
3398,0.09287759080531342,0
3399,0.045303731662539246,0
3400,0.39811832546723597,0
3401,4.126659900704531,0
3402,6.704239290731068,0
3403,-1.1977362092104509,0
3404,-1.364413379237699,0
3405,1.4765972161430894,0
3406,-0.7858095033039854,0
3407,0.18331161396671736,0
3408,0.04707796646183787,0
3409,-0.02949450109999502,0
3410,0.06010792900361474,0
3411,0.008656942929701325,0
3412,0.08392480669539251,0
3413,-0.008830202030179715,0
3414,-0.09398780747599164,0
3415,-0.05967534814903169,0
3416,0.04164936629051992,0
3417,0.03698745929972245,0
3418,0.09513260503665381,0
3419,0.059500948236009196,0
3420,0.46654920075020706,0
3421,4.150254280465928,0
3422,6.610925220957764,0
3423,-1.1134577882601489,0
3424,-1.3334142176667056,0
3425,1.450732572479631,0
3426,-0.7660669083424968,0
3427,0.29374950626775637,0
3428,0.05730798872945697,0
3429,0.09179776471388472,0
3430,0.07478544504650897,0
3431,0.05175759162138272,0
3432,0.027918228996171225,0
3433,-0.005950349862491884,0
3434,0.047964278332383606,0
3435,0.021684634334258587,0
3436,0.05251643016752566,0
3437,0.05972789532570477,0
3438,0.04618954785587372,0
3439,-0.03889698819288339,0
3440,0.5173263470012383,0
3441,4.043456567407928,0
3442,6.64688820138744,0
3443,-1.1574756678895037,0
3444,-1.4526777382844618,0
3445,1.3745269829001374,0
3446,-0.7765473383202424,0
3447,0.1539720723649287,0
3448,-0.048373441236360774,0
3449,0.019296335381655108,0
3450,-0.024759938877829325,0
3451,0.013811097080530516,0
3452,-0.04139749921999804,0
3453,0.11374534204475086,0
3454,-0.0022805996668012647,0
3455,-0.017967048361099476,0
3456,0.053646715210180974,0
3457,0.033794415505445596,0
3458,0.016237734936713422,0
3459,0.03172594698543634,0
3460,0.49054842923010045,0
3461,4.254179357513495,0
3462,6.634405725371558,0
3463,-1.1119971448985446,0
3464,-1.323907527300687,0
3465,1.4540845983934292,0
3466,-0.8061433432913181,0
3467,0.2187273940813963,0
3468,0.05662068591290155,0
3469,-0.04936306483069926,0
3470,-0.001439273986234349,0
3471,0.10187594615773375,0
3472,0.030620145955417722,0
3473,0.13243340330434802,0
3474,-0.0018673555525106494,0
3475,0.032485380574118296,0
3476,-0.04647980130362017,0
3477,0.026971103205157346,0
3478,0.06740703429909743,0
3479,0.004256972507022446,0
3480,0.3936590667326562,0
3481,4.267165285490024,0
3482,6.604907697239345,0
3483,-1.0870914293516771,0
3484,-1.3658608803051437,0
3485,1.454967783787908,0
3486,-0.7939721956594621,0
3487,0.22533229014346576,0
3488,0.040384432921191635,0
3489,0.01946649379156571,0
3490,0.12285047891629328,0
3491,0.0027600596282441135,0
3492,-0.032845335313518104,0
3493,0.06997796288743562,0
3494,0.08152144114373026,0
3495,0.02676844826467948,0
3496,0.055070538574732014,0
3497,0.09555431509694935,0
3498,-0.023533278415038487,0
3499,-0.04458589077433854,0
3500,0.5106200895604357,0
3501,4.171974511328942,0
3502,6.654420850526117,0
3503,-1.2038254841326115,0
3504,-1.3031307634264304,0
3505,1.4303194438838853,0
3506,-0.7467722535819926,0
3507,0.292728907176418,0
3508,0.03441372692711062,0
3509,-0.09441511325408819,0
3510,0.05973715013887508,0
3511,0.03310837657974452,0
3512,0.01573161367054414,0
3513,-0.002125618189985981,0
3514,-0.06960349755724844,0
3515,0.08789051735313809,0
3516,-0.04583974066968717,0
3517,-0.05409529252931099,0
3518,0.009103548893717913,0
3519,0.008266929451936886,0
3520,0.507199025883107,0
3521,4.144447196369282,0
3522,6.500148550206476,0
3523,-1.1277153605121522,0
3524,-1.35153855309954,0
3525,1.418728199917265,0
3526,-0.7927392339498298,0
3527,0.22843465449776842,0
3528,-0.021536558974526294,0
3529,-0.02408864188042821,0
3530,0.06587757283269255,0
3531,0.05945024889305196,0
3532,0.07667925469246344,0
3533,-0.06213171439550644,0
3534,0.0039006335972933282,0
3535,-0.06597858607143131,0
3536,-0.036576276489713073,0
3537,-0.037773655564112704,0
3538,-0.03783468934907825,0
3539,0.033598230422952666,0
3540,0.38212326449844597,0
3541,4.088882959523433,0
3542,6.524151580515695,0
3543,-1.2363898581468018,0
3544,-1.4832174894810906,0
3545,1.3754875083427691,0
3546,-0.7861038357434871,0
3547,0.21598870164562525,0
3548,-0.1723681189083493,0
3549,-0.014777776817983992,0
3550,0.03645272109156682,0
3551,0.011869043263178933,0
3552,-0.10365198912563221,0
3553,-0.011866217892852762,0
3554,-0.021245214556750262,0
3555,0.01049562988950977,0
3556,-0.11780561071528693,0
3557,-0.08912775466777556,0
3558,-0.13107688574748538,0
3559,-0.02728969383051528,0
3560,0.4150262168349008,0
3561,4.187691003571584,0
3562,6.631368592085741,0
3563,-1.2638374718707042,0
3564,-1.2522218737766673,0
3565,1.385791985531572,0
3566,-0.7270644376240142,0
3567,0.2850055213100054,0
3568,-0.027281663668667827,0
3569,-0.09677495256017715,0
3570,0.08780713821199163,0
3571,0.05478629879494622,0
3572,0.03813939315216883,0
3573,-0.05606128431414344,0
3574,0.015224832451375014,0
3575,-0.06795066358870386,0
3576,0.048248415801392344,0
3577,-0.08307068981808238,0
3578,-0.04669932129338958,0
3579,-0.06653982807260356,0
3580,0.3267508508878352,0
3581,4.034781832153537,0
3582,6.428026071699738,0
3583,-1.247467002935638,0
3584,-1.5446614863460162,0
3585,1.2933388836489879,0
3586,-0.7979951471054249,0
3587,0.20796632737695236,0
3588,-0.05264289907354626,0
3589,-0.11217503555632402,0
3590,0.005361996467513749,0
3591,0.024894137989435825,0
3592,-0.013628640652821298,0
3593,0.03151820119205021,0
3594,0.01155060158729906,0
3595,0.09908005211130405,0
3596,0.06598029425739466,0
3597,0.09599904371713118,0
3598,0.08192657792583885,0
3599,0.021845109195960367,0
3600,0.37737029810005496,0
3601,4.206302480790941,0
3602,6.534018110400384,0
3603,-1.2266609763751077,0
3604,-1.3069660218410668,0
3605,1.3790330407217632,0
3606,-0.8093149743131165,0
3607,0.2825531947587331,0
3608,0.00831191595587142,0
3609,0.004648202278208391,0
3610,0.01494997469955586,0
3611,0.051022876031241476,0
3612,-0.0209964291154532,0
3613,-0.02491287454007706,0
3614,0.02408437333101333,0
3615,0.019994593268915645,0
3616,0.03617398142774578,0
3617,0.03725349606067213,0
3618,0.05416666091081164,0
3619,-0.03645800461102664,0
3620,0.320595669007339,0
3621,4.161337033739901,0
3622,6.571867944885344,0
3623,-1.2005243538848043,0
3624,-1.3491064071858085,0
3625,1.420396104450591,0
3626,-0.8807226426202523,0
3627,0.2582081955904513,0
3628,-0.04257113912754221,0
3629,-0.12010661481507548,0
3630,0.026163710702223758,0
3631,-0.04429344864022362,0
3632,-0.04327752875891583,0
3633,0.032100004721466874,0
3634,0.01867167328065117,0
3635,-0.027264088281336828,0
3636,0.05310834869978952,0
3637,0.10414336633527922,0
3638,0.055075063596017056,0
3639,-0.08982244288948447,0
3640,0.3833437155568258,0
3641,4.130945138243264,0
3642,6.5751453938730045,0
3643,-1.333928661403508,0
3644,-1.3248919343940817,0
3645,1.3589113309722196,0
3646,-0.7711934264185232,0
3647,0.15300178288362376,0
3648,0.06673920115341357,0
3649,0.009525306358063028,0
3650,0.01323287197908981,0
3651,-0.020415587989843813,0
3652,-0.07940359556093798,0
3653,0.07976686262057958,0
3654,3.392358585439445e-05,0
3655,0.018493276129269973,0
3656,-0.012416051089740015,0
3657,0.021324921699449537,0
3658,0.06389047552841459,0
3659,-0.047175029160679754,0
3660,0.40227406574355073,0
3661,4.094381187742545,0
3662,6.488301361030844,0
3663,-1.2527735972180234,0
3664,-1.3471028449635734,0
3665,1.42268859773868,0
3666,-0.7567127367175407,0
3667,0.21012200930766736,0
3668,0.005558334971672865,0
3669,-0.07382267754384689,0
3670,-0.01836257324520016,0
3671,0.02545708279151189,0
3672,0.04847324343201699,0
3673,-0.05837316997190954,0
3674,0.0035397915743243104,0
3675,0.051025647410522616,0
3676,-0.05877670884352102,0
3677,0.022343688335995242,0
3678,0.08739504624736039,0
3679,0.046491092916485836,0
3680,0.46712061549747785,0
3681,4.285926250671348,0
3682,6.559158402304831,0
3683,-1.281615488924889,0
3684,-1.2470375908574292,0
3685,1.4118048642089602,0
3686,-0.728227834785644,0
3687,0.26679273049748603,0
3688,0.009193502610338047,0
3689,-0.00698487734406949,0
3690,0.030256677213769862,0
3691,-0.027244198699493467,0
3692,0.028310661535474707,0
3693,-0.08105283142929873,0
3694,0.0005789181259193141,0
3695,-0.14397203576864373,0
3696,0.029312605845642044,0
3697,0.03565955921928139,0
3698,-0.0011989719740695525,0
3699,0.09636393756013051,0
3700,0.45073105223851934,0
3701,4.239890177317651,0
3702,6.6570104508863635,0
3703,-1.2020260776332778,0
3704,-1.1942150962156872,0
3705,1.4424305564657869,0
3706,-0.7374197303135623,0
3707,0.2411140418176719,0
3708,0.02238359797516113,0
3709,-0.009538383773976715,0
3710,0.09772838231356559,0
3711,0.017004434431287872,0
3712,-0.046170200884885736,0
3713,0.10827817418909773,0
3714,0.048881270412154676,0
3715,0.03670572088298563,0
3716,0.06954728661397973,0
3717,0.15883344545307898,0
3718,-0.035897352027179336,0
3719,0.09625246423866793,0
3720,0.3428032627346263,0
3721,4.196526755868356,0
3722,6.568101955327587,0
3723,-1.225891335633866,0
3724,-1.2795613057060211,0
3725,1.4490559505886316,0
3726,-0.7766489524135181,0
3727,0.20231312693102568,0
3728,0.013478193682825804,0
3729,0.07178945162383216,0
3730,-0.01965118655659796,0
3731,0.010960771327320713,0
3732,-0.00014196581082710595,0
3733,0.05280541985851792,0
3734,-0.009711236251613783,0
3735,0.04981337571020624,0
3736,-0.026080150577896186,0
3737,-0.06984950865773094,0
3738,0.03508950527195225,0
3739,-0.011177779678955132,0
3740,0.38929457683425595,0
3741,4.094988965645172,0
3742,6.536328326798671,0
3743,-1.3098778310950439,0
3744,-1.3816879086619898,0
3745,1.348504028320725,0
3746,-0.7494831144173119,0
3747,0.2748848124375697,0
3748,-0.00303204868858023,0
3749,0.06564831143374875,0
3750,-0.002955643154091303,0
3751,-0.04074128464883799,0
3752,-0.021820135785457134,0
3753,0.015473562033333162,0
3754,0.00019764753156319148,0
3755,-0.03061844075247678,0
3756,0.03347049868453798,0
3757,-0.009852187145865832,0
3758,0.05147982522092605,0
3759,0.017691133450428866,0
3760,0.4814731091252393,0
3761,4.1282749317642935,0
3762,6.526228532090824,0
3763,-1.1752426226821928,0
3764,-1.1805871388734497,0
3765,1.4635935343611655,0
3766,-0.8446915930879302,0
3767,0.19428604051266746,0
3768,-0.06196714138006423,0
3769,-0.0032761646484348594,0
3770,0.0026346566212080633,0
3771,-0.02529774939183386,0
3772,-0.04511210997280864,0
3773,-0.018161155694374143,0
3774,0.03583319370022563,0
3775,0.053827948418384564,0
3776,0.05008372353390869,0
3777,-0.00555834965606453,0
3778,0.024565127693028647,0
3779,-0.020305388298255934,0
3780,0.4939105344498643,0
3781,4.251800027793781,0
3782,6.6102958923703525,0
3783,-1.2932333502294002,0
3784,-1.4234953491836912,0
3785,1.3839049953450853,0
3786,-0.8147300494964392,0
3787,0.17090058730676977,0
3788,0.023071186402618283,0
3789,-0.05817713595290496,0
3790,0.03724476827225237,0
3791,0.041796007536535104,0
3792,0.04268316385575509,0
3793,0.011238314932175773,0
3794,0.04754906289720602,0
3795,-0.02697919271416825,0
3796,0.07889397286599635,0
3797,0.0028683312326289664,0
3798,0.02506045047410092,0
3799,0.03011324072745576,0
3800,0.5622151198200956,0
3801,4.24652102779141,0
3802,6.5400056679278995,0
3803,-1.369195313474044,0
3804,-1.4121617357714304,0
3805,1.3790355022447145,0
3806,-0.8119790373482658,0
3807,0.1756026056742222,0
3808,0.04599767791211746,0
3809,-0.06863310593110067,0
3810,0.0806667328320913,0
3811,-0.026542333052583366,0
3812,0.06026988515031369,0
3813,0.05033319072575358,0
3814,-0.0015885338502891495,0
3815,-0.020732966223495426,0
3816,0.04726947846597875,0
3817,0.19436238940540249,0
3818,-0.051306289008166375,0
3819,0.017054908451528062,0
3820,0.42549839556105984,0
3821,4.28374404761469,0
3822,6.531546687030082,0
3823,-1.268659320570114,0
3824,-1.3340320639324543,0
3825,1.4300046246795277,0
3826,-0.7847191488483765,0
3827,0.17116046753851835,0
3828,0.003568228139481662,0
3829,-0.023185009032762844,0
3830,0.014868000801908563,0
3831,-0.041706507245035884,0
3832,-0.08445119977783042,0
3833,0.056288258272579,0
3834,-0.10337834015391645,0
3835,-0.12637470598674916,0
3836,-0.022387215657861864,0
3837,-0.06917310643236352,0
3838,-0.11595656074387564,0
3839,-0.0842119371441107,0
3840,0.35820616702776653,0
3841,4.238054714841085,0
3842,6.41071854401647,0
3843,-1.271134687616601,0
3844,-1.3420516719767959,0
3845,1.356741463315681,0
3846,-0.876388542732236,0
3847,0.23419427468537743,0
3848,-0.02946123012609324,0
3849,-0.04499528457577531,0
3850,-0.023784529024871277,0
3851,0.04164991304097271,0
3852,-0.024387245715504192,0
3853,-0.034746920028179876,0
3854,-0.07751366224261699,0
3855,0.03713703463760236,0
3856,0.057620556174372846,0
3857,-0.011088140409792209,0
3858,-0.009820675386091987,0
3859,-0.06322119455416542,0
3860,0.4375595574551008,0
3861,4.21288111007454,0
3862,6.512785311952554,0
3863,-1.3953717076272096,0
3864,-1.3689709758820825,0
3865,1.4025097296997127,0
3866,-0.7819926476005379,0
3867,0.2941516585670329,0
3868,0.011549540053588402,0
3869,-0.00797932955941109,0
3870,0.0035904126751908176,0
3871,0.04043579577928223,0
3872,-0.05336641607536072,0
3873,-0.027481351413891453,0
3874,0.026108920140584087,0
3875,0.051216164257463906,0
3876,0.04200852409981029,0
3877,-0.015478317291051494,0
3878,-0.009499529632188811,0
3879,0.02172278337400743,0
3880,0.394455243237937,0
3881,4.197488932598162,0
3882,6.505552025169939,0
3883,-1.2910790191550898,0
3884,-1.3650991294523322,0
3885,1.3608766539220762,0
3886,-0.829852939164256,0
3887,0.12543987237604948,0
3888,-0.04879517529676909,0
3889,-0.024639423257583476,0
3890,0.006414329587727856,0
3891,-0.047939928193008935,0
3892,0.03727896280000771,0
3893,-0.029605412390146663,0
3894,-0.026512385900600465,0
3895,-0.04002410736093336,0
3896,-0.03266687919379361,0
3897,-0.04508021089077202,0
3898,-0.02648729952365769,0
3899,-0.11730089561378203,0
3900,0.38243044094030293,0
3901,4.151614382634882,0
3902,6.4117211659184745,0
3903,-1.372692375465542,0
3904,-1.3618381606489183,0
3905,1.4359573521208844,0
3906,-0.8188747422808107,0
3907,0.2666056308958564,0
3908,-0.011474440997609414,0
3909,-0.050214196622146025,0
3910,0.058969373210822254,0
3911,-0.007364659734079553,0
3912,-0.026128401649636215,0
3913,-0.10997060953281974,0
3914,-0.10006823725881386,0
3915,-0.040831157586323774,0
3916,-0.024235583365122437,0
3917,-0.019962344299222334,0
3918,-0.013154859152676739,0
3919,0.014959546158733739,0
3920,0.460305649527275,0
3921,4.209060341019757,0
3922,6.495268753161323,0
3923,-1.2148781433973321,0
3924,-1.2468173643984788,0
3925,1.4286408346212172,0
3926,-0.7729692742134548,0
3927,0.2996703578065219,0
3928,-0.040954853647130654,0
3929,-0.050745382255247995,0
3930,-0.04360221634991397,0
3931,-0.03356557290690689,0
3932,0.07370110442569182,0
3933,-0.021581999674611076,0
3934,-0.025614253353234813,0
3935,-0.07271572597385452,0
3936,0.01711706130797403,0
3937,-0.06289916611342489,0
3938,0.010787961333987723,0
3939,0.03185416255896928,0
3940,0.4460666806621846,0
3941,4.213865524722559,0
3942,6.497436793384527,0
3943,-1.3675945279853634,0
3944,-1.3402101979607723,0
3945,1.3206975723346464,0
3946,-0.7894845710138843,0
3947,0.23334576504654653,0
3948,-0.053048333509214236,0
3949,-0.03211041704436255,0
3950,-0.010988841213807662,0
3951,0.04215507709448767,0
3952,0.11889064149452973,0
3953,-0.14132263072386272,0
3954,0.054817930279648486,0
3955,0.10332013092720115,0
3956,0.05368482395192129,0
3957,-0.009695944638098038,0
3958,0.0026945918066402412,0
3959,0.0758383474458621,0
3960,0.4377950583563773,0
3961,4.214803689142964,0
3962,6.478067732305754,0
3963,-1.3011583139525473,0
3964,-1.3193092675279656,0
3965,1.370377726372109,0
3966,-0.8369745977896554,0
3967,0.23098602692373083,0
3968,-0.08145737666317268,0
3969,-0.10346714774024862,0
3970,-0.04436897988434729,0
3971,-0.08636738353002904,0
3972,-0.06496351170693707,0
3973,-0.06561186154177548,0
3974,-0.053715370871485854,0
3975,0.05036226350025895,0
3976,-0.04190123516920455,0
3977,0.01835277192239113,0
3978,0.005268592416381161,0
3979,0.031706114753508534,0
3980,0.47222245111409134,0
3981,4.182767222339959,0
3982,6.642394368704981,0
3983,-1.311547762537946,0
3984,-1.2218671438354012,0
3985,1.5019224424784245,0
3986,-0.7260598249811379,0
3987,0.24060015069735935,0
3988,0.0576791833251445,0
3989,0.03333360503985382,0
3990,0.09934809715651602,0
3991,-0.04253068440194751,0
3992,-0.007214227857465037,0
3993,0.030144915532864778,0
3994,0.13148245778627143,0
3995,-0.043422990987151064,0
3996,0.010320497893496821,0
3997,0.05244082542936747,0
3998,0.0333760328513964,0
3999,-0.00845094238627266,0
4000,0.4787087021748243,0
4001,4.293247960880043,0
4002,6.484670478529112,0
4003,-1.2834670017412444,0
4004,-1.2273807026650985,0
4005,1.3928279707045452,0
4006,-0.7475527374934385,0
4007,0.19295038104221734,0
4008,-0.08099702241406473,0
4009,-0.0709701679810778,0
4010,-0.04419444408550344,0
4011,-0.04680888363172403,0
4012,-0.014577885654164069,0
4013,0.005609411239136513,0
4014,-0.06449241739744505,0
4015,0.0352225379423466,0
4016,0.01765484731452483,0
4017,0.11949720644427572,0
4018,0.01659498530907053,0
4019,0.021155118068514625,0
4020,0.5183562629741586,0
4021,4.33035823547127,0
4022,6.517255129044719,0
4023,-1.2543390024566943,0
4024,-1.2991492710575687,0
4025,1.4066300817876893,0
4026,-0.7292714454077848,0
4027,0.2614461760859974,0
4028,-0.018128814052849062,0
4029,-0.028571653754591128,0
4030,0.022209123767038708,0
4031,-0.0911009718199209,0
4032,-0.10281516179466779,0
4033,-0.024691464914328526,0
4034,-0.0695951919565666,0
4035,-0.11139118436326306,0
4036,-0.13005898577767622,0
4037,-0.04043671603883486,0
4038,-0.0595300863950217,0
4039,-0.05825451393435929,0
4040,0.3856007097826603,0
4041,4.237357331898631,0
4042,6.519050100913591,0
4043,-1.370731485022338,0
4044,-1.3130044619254593,0
4045,1.3198867066256055,0
4046,-0.8184755168492173,0
4047,0.31798198028964436,0
4048,0.0484426435311439,0
4049,-0.04744944526224916,0
4050,0.14326128106063385,0
4051,-0.018027064035269987,0
4052,-0.035414477397701205,0
4053,0.08038025443430875,0
4054,0.02814595546129843,0
4055,0.1270208103198387,0
4056,0.1263882156961663,0
4057,0.08503491353726561,0
4058,0.07019702380486538,0
4059,0.006610945100211214,0
4060,0.40444126606637,0
4061,4.224958574174708,0
4062,6.499791056477297,0
4063,-1.250936175269293,0
4064,-1.1670854789814533,0
4065,1.3216473663582686,0
4066,-0.797288372970747,0
4067,0.2360242261148744,0
4068,-0.08276056671920276,0
4069,0.009861292566410522,0
4070,0.04423743822646273,0
4071,-0.057232195254864345,0
4072,-0.05886791166637011,0
4073,-0.014300096688812243,0
4074,0.11251227639949271,0
4075,0.06069293996447882,0
4076,-0.040834584710448485,0
4077,0.016533114463996346,0
4078,-0.034216905088612595,0
4079,0.020267417824819875,0
4080,0.4234496121831107,0
4081,4.247332300602491,0
4082,6.500821306908856,0
4083,-1.3221571150445262,0
4084,-1.1995590799639384,0
4085,1.4352018336391243,0
4086,-0.7209211817852785,0
4087,0.2770632277051527,0
4088,-0.019242099967557567,0
4089,0.030397819339782015,0
4090,-0.02759479206000047,0
4091,0.020436757868521768,0
4092,0.09500938573555255,0
4093,0.06408440223485548,0
4094,0.04090400285777719,0
4095,0.01904046725049804,0
4096,-0.017382880342738546,0
4097,0.006478940063427755,0
4098,0.014149083763579068,0
4099,0.022027842911366752,0
4100,0.4502575773677887,0
4101,4.326270451303733,0
4102,6.486444588100875,0
4103,-1.3554672613670256,0
4104,-1.2230684915398617,0
4105,1.36055131297205,0
4106,-0.7990599928333519,0
4107,0.20480119425485155,0
4108,0.04906187813171255,0
4109,-0.0626323423990528,0
4110,0.0571316240423833,0
4111,0.10812435549684798,0
4112,-0.003336658310917947,0
4113,0.02786814516819553,0
4114,0.022966211212778052,0
4115,0.024714343978074073,0
4116,0.009038848792525056,0
4117,-0.055646995000530955,0
4118,0.002599538134628909,0
4119,-0.08682969804612159,0
4120,0.49737586573706954,0
4121,4.213498815629768,0
4122,6.4562153744206965,0
4123,-1.3039811309316012,0
4124,-1.2503467933982628,0
4125,1.3985732041347787,0
4126,-0.8049212548688832,0
4127,0.24168646745224892,0
4128,0.06242965328457934,0
4129,0.09277896786608675,0
4130,0.08483859824046248,0
4131,0.018852323147822456,0
4132,-0.014237302656047342,0
4133,0.04375331322793685,0
4134,0.03377623792970803,0
4135,0.10253726254799798,0
4136,0.10953691751094853,0
4137,0.004908898608158491,0
4138,0.057060101797354476,0
4139,0.07176452784855579,0
4140,0.6601410442083819,1
4141,3.5960325167648013,1
4142,6.6233735517477985,1
4143,-0.3155696076798604,1
4144,-1.6562434209824124,1
4145,1.0936528015087683,1
4146,-1.1212417609851673,1
4147,0.09648158279756128,1
4148,0.43075913723479337,1
4149,0.5982058296500172,1
4150,-0.016562435584589044,0
4151,0.030810862216122288,0
4152,-0.030693251788309797,0
4153,0.021519748743779755,0
4154,-0.017945133162469356,0
4155,-0.051953435864065964,0
4156,0.04229591868976213,0
4157,0.04799055758907336,0
4158,-0.020136551289806175,0
4159,-0.041068063019143355,0
4160,0.548128262617971,0
4161,4.238277975642226,0
4162,6.499933261124844,0
4163,-1.4230455332957208,0
4164,-1.3090305199417913,0
4165,1.3292950226723272,0
4166,-0.9092113760740219,0
4167,0.16163137271299524,0
4168,-0.053339050346993544,0
4169,-0.05803307854561916,0
4170,0.03853985643533317,0
4171,-0.009324560862263437,0
4172,-0.03797226626062635,0
4173,0.0027049060466158015,0
4174,0.00950480553584147,0
4175,-0.06896212439575283,0
4176,-0.06571476868649986,0
4177,-0.09358102717040223,0
4178,-0.024831230696383,0
4179,0.045442702418721066,0
4180,0.41576939204343893,0
4181,4.1455444173904334,0
4182,6.481409592955023,0
4183,-1.3899975944197733,0
4184,-1.2861716353534947,0
4185,1.411374341726937,0
4186,-0.8041808511478343,0
4187,0.2602534055247582,0
4188,-0.02624413089112829,0
4189,-0.09018676423225297,0
4190,-0.04738534452149483,0
4191,-0.007544926840618926,0
4192,0.0039460000510955495,0
4193,-0.010262109331306321,0
4194,-0.060251997137802354,0
4195,-0.021691909400404146,0
4196,-0.052516354242581234,0
4197,-0.06008185998697101,0
4198,0.05522458398903697,0
4199,-0.04075889115260532,0
4200,0.48801645238138,0
4201,4.136765024329427,0
4202,6.485740032596712,0
4203,-1.4300467693010765,0
4204,-1.3263301570103618,0
4205,1.3227751014069171,0
4206,-0.8987651268502916,0
4207,0.2854079382350775,0
4208,-0.05024223457465466,0
4209,-0.06831581014732024,0
4210,-0.023335771986689558,0
4211,-0.011920257755655108,0
4212,-0.0395329420356941,0
4213,-0.040533751782312125,0
4214,0.0844153084259727,0
4215,-0.022701230723734225,0
4216,0.09476331004087254,0
4217,-0.05779868107821671,0
4218,0.046838933150614465,0
4219,0.07801254701353323,0
4220,0.4724248330043017,0
4221,4.23495062659385,0
4222,6.463625211008795,0
4223,-1.3190958506955062,0
4224,-1.2581126388123278,0
4225,1.331908397518361,0
4226,-0.8665689285190028,0
4227,0.26096020086541305,0
4228,-0.02020858006847297,0
4229,0.014724291803651646,0
4230,0.010789063616930404,0
4231,-0.011233839674605178,0
4232,-0.0029236286199384245,0
4233,-0.01790035770701298,0
4234,-0.016008023427521154,0
4235,0.025374350292068096,0
4236,-0.037812867451915276,0
4237,-0.042472061663560795,0
4238,-0.025824816095418972,0
4239,-0.13673421237347455,0
4240,0.30763655453473954,0
4241,4.18600213336106,0
4242,6.281017711004877,0
4243,-1.5877861476516768,0
4244,-1.3231443878815425,0
4245,1.2542284902191532,0
4246,-0.8955755328427382,0
4247,0.11930049608764084,0
4248,-0.09681552623433057,0
4249,-0.05694819625831918,0
4250,-0.03761548328054068,0
4251,0.06259893907715525,0
4252,-0.10114534007268683,0
4253,-0.06693113191438324,0
4254,-0.021671778639965493,0
4255,-0.005465377810851807,0
4256,-0.06372312067168762,0
4257,-0.01672902652758169,0
4258,-0.01161543811131242,0
4259,-0.09414560201355023,0
4260,0.4360498448681315,0
4261,4.221797985899484,0
4262,6.349424909113421,0
4263,-1.4181096537675009,0
4264,-1.261626434234989,0
4265,1.2650947199197176,0
4266,-0.8753791007443714,0
4267,0.24074589073989164,0
4268,-0.0770861147691345,0
4269,0.03693173686735468,0
4270,-0.07068411542262718,0
4271,-0.0195405145544699,0
4272,-0.038355394260453736,0
4273,-0.02742085853746849,0
4274,-0.09003713710801704,0
4275,-0.0004987065134898182,0
4276,-0.04205915345663948,0
4277,-0.08697610605293614,0
4278,-0.11252633791622788,0
4279,0.090557775993732,0
4280,0.4467482037328892,0
4281,4.288928311594471,0
4282,6.466245130044667,0
4283,-1.4081223457542094,0
4284,-1.2683266273575362,0
4285,1.3922971010864034,0
4286,-0.7977607550301462,0
4287,0.34797720582831376,0
4288,-0.013997891174510078,0
4289,-0.006096562122570307,0
4290,0.01326299584905356,0
4291,0.028265225799115806,0
4292,0.07385576879520356,0
4293,0.019980439966080916,0
4294,0.06612087619020593,0
4295,0.07363023740137072,0
4296,0.014728291511249908,0
4297,-0.010806247700896296,0
4298,-0.07330637919626623,0
4299,0.05550654338943384,0
4300,0.36053792020219666,0
4301,4.298031385957261,0
4302,6.472537484342641,0
4303,-1.4012174716420496,0
4304,-1.2347055342237587,0
4305,1.388334797637173,0
4306,-0.7369930706738144,0
4307,0.24895154916920495,0
4308,-0.0172090784725327,0
4309,0.0487160087036712,0
4310,0.04028354916185723,0
4311,-0.026712708749739682,0
4312,0.04944385107794335,0
4313,0.06000207706017191,0
4314,0.05235986354551088,0
4315,-0.00915001201131857,0
4316,0.04202268287690266,0
4317,0.0022871709595722184,0
4318,-0.00504255355130042,0
4319,-0.002214027095620956,0
4320,0.5217914224716104,0
4321,4.336073953031677,0
4322,6.4751675730893234,0
4323,-1.3795359239859781,0
4324,-1.2870778758731864,0
4325,1.4203103985803553,0
4326,-0.7982702029702732,0
4327,0.2643677544466239,0
4328,-0.0476677462326118,0
4329,0.005497920869861013,0
4330,0.05457812184756825,0
4331,-0.022648363021800177,0
4332,0.02597772991873534,0
4333,0.027680843357999856,0
4334,-0.01446584985134128,0
4335,-0.004127214176578627,0
4336,0.002702122047711225,0
4337,0.06619272292583317,0
4338,0.05245484030199503,0
4339,0.0183946006679655,0
4340,0.4202480559368978,0
4341,4.248244669306102,0
4342,6.542437595346999,0
4343,-1.3617542070509416,0
4344,-1.1627117272940468,0
4345,1.345174518947589,0
4346,-0.7457564327237208,0
4347,0.28748325368527516,0
4348,0.050112717118148076,0
4349,0.004699299272348807,0
4350,0.08072906409978267,0
4351,0.19199739514055217,0
4352,0.14100901470454813,0
4353,0.11771909328201956,0
4354,0.04966732906191531,0
4355,0.09197310601276382,0
4356,-0.029683586558171215,0
4357,-0.03580871073457663,0
4358,-0.062479796405932445,0
4359,-0.02808274376628403,0
4360,0.4212139969659455,0
4361,4.227658230536442,0
4362,6.364316633167142,0
4363,-1.3397612029153074,0
4364,-1.205232354624325,0
4365,1.3559071664175737,0
4366,-0.7868560650176452,0
4367,0.20539810628606203,0
4368,-0.0589955150285121,0
4369,-0.04253437419655354,0
4370,-0.018149268352878854,0
4371,-0.058167325288907244,0
4372,0.004756278949054317,0
4373,0.032686522749499555,0
4374,-0.06794335882844324,0
4375,0.009472710091226622,0
4376,0.04651233486695377,0
4377,0.018225096965023488,0
4378,0.00028226985082504055,0
4379,0.07561951122061875,0
4380,0.5584654934747459,0
4381,4.239916251436817,0
4382,6.482824805368364,0
4383,-1.3582059366764092,0
4384,-1.2152866435355414,0
4385,1.4442640126346746,0
4386,-0.775939603976551,0
4387,0.2987694704875458,0
4388,-0.042989313790887794,0
4389,0.04117258410308937,0
4390,0.0521162560365917,0
4391,0.06490107972713671,0
4392,0.07837801652337342,0
4393,0.16832081754591208,0
4394,0.029739973089615995,0
4395,0.0914340006916558,0
4396,0.041104391969209314,0
4397,0.10136705874366236,0
4398,0.09351369262727555,0
4399,-0.040911009393056016,0
4400,0.5095868111498372,0
4401,4.354321970685013,0
4402,6.492858667991955,0
4403,-1.4367788874512013,0
4404,-1.2657410558599653,0
4405,1.3824827577250545,0
4406,-0.7624803262434207,0
4407,0.2757352047393014,0
4408,-0.05744374139878881,0
4409,0.05291399428051435,0
4410,0.0936611258188707,0
4411,0.02552117603788348,0
4412,-0.08205297293055135,0
4413,0.004322898752892563,0
4414,-0.04591035834761417,0
4415,0.02242989294987942,0
4416,-0.00411785285782517,0
4417,-0.06609672837813502,0
4418,0.05482007795449216,0
4419,-0.02284016886260404,0
4420,0.5374588588648164,0
4421,4.267458546051664,0
4422,6.466018424052337,0
4423,-1.3638386013217445,0
4424,-1.1738052630169669,0
4425,1.4097990853921,0
4426,-0.7572097954620042,0
4427,0.3035960608578601,0
4428,-0.02965558642516647,0
4429,0.02612127615520511,0
4430,0.0396062059220587,0
4431,-0.10259788046290094,0
4432,-0.08621683584541101,0
4433,-0.014121168000151486,0
4434,-0.06006055777070739,0
4435,-0.022545742063909645,0
4436,-0.13629675965985408,0
4437,-0.04561391547823575,0
4438,0.11011180166821301,0
4439,0.06193909895843944,0
4440,0.315765328341994,0
4441,4.250773853427955,0
4442,6.337935904585183,0
4443,-1.5533920825545975,0
4444,-1.258468013758655,0
4445,1.2713973000477947,0
4446,-0.755664528452173,0
4447,0.18020364594582253,0
4448,-0.10490124226097933,0
4449,-0.03615441895621807,0
4450,-0.004521777871454178,0
4451,-0.054061055249483236,0
4452,-0.00319952478993607,0
