timestamp,value-0,is_anomaly
0,0.40166286486667707,0.0
1,3.5964952934972585,0.0
2,6.942016965981142,0.0
3,-0.17892285798395807,0.0
4,-1.9568285600387147,0.0
5,1.645918662052517,0.0
6,-0.7211083987991349,0.0
7,0.1850104777447535,0.0
8,0.07851307149906687,0.0
9,-0.008657801718317041,0.0
10,0.18987799822293994,0.0
11,-0.051395602944168575,0.0
12,0.09174594380461756,0.0
13,-0.004888872933765935,0.0
14,0.07685887694131019,0.0
15,0.13879597207112024,0.0
16,0.01575397666229061,0.0
17,-0.000513279829068322,0.0
18,-0.0327706202567098,0.0
19,-0.051646720289617365,0.0
20,0.31159711734122775,0.0
21,3.4674043654083073,0.0
22,6.828730697489538,0.0
23,-0.18552708671295415,0.0
24,-1.8644488132272974,0.0
25,1.527287824243666,0.0
26,-0.7152336627707835,0.0
27,0.19787475809222155,0.0
28,0.11803496764633165,0.0
29,-0.049803396686041786,0.0
30,0.15882854614610892,0.0
31,0.012167826630289338,0.0
32,0.009228796830849581,0.0
33,0.016176010163209346,0.0
34,0.07679818286514575,0.0
35,0.05357803666825578,0.0
36,-0.006211808442565539,0.0
37,0.060648555852762034,0.0
38,0.046427483187087545,0.0
39,-0.013246588247427582,0.0
40,0.26799922390836634,0.0
41,3.4997339668181198,0.0
42,6.821572328914933,0.0
43,-0.23430198755131257,0.0
44,-2.003048422855973,0.0
45,1.6151025944199455,0.0
46,-0.6833139711138838,0.0
47,0.11255321504485055,0.0
48,0.1004988076224618,0.0
49,-0.005042224286913845,0.0
50,0.02740969451674262,0.0
51,-0.06534145660264737,0.0
52,0.06916803879253602,0.0
53,-0.029423035499144358,0.0
54,0.12069475706432517,0.0
55,0.08486162860379201,0.0
56,0.023442867215784955,0.0
57,0.12218905822722438,0.0
58,0.06533330425856138,0.0
59,0.09727505522142921,0.0
60,0.33720422837518566,0.0
61,3.571199867772825,0.0
62,6.893903645018138,0.0
63,-0.18630671982654426,0.0
64,-1.8844530262905754,0.0
65,1.6427336838136213,0.0
66,-0.6334318885127175,0.0
67,0.13374943381600637,0.0
68,0.1821912348757827,0.0
69,0.038029694225362905,0.0
70,0.19270655134226744,0.0
71,0.16321567638532064,0.0
72,0.0619659675206496,0.0
73,0.11173681296654311,0.0
74,0.11408828541037834,0.0
75,0.00458990533949144,0.0
76,0.08736399799361716,0.0
77,0.09258388491002617,0.0
78,-0.007859638124526475,0.0
79,0.11754455423070215,0.0
80,0.2706858732050949,0.0
81,3.496508006524452,0.0
82,6.832900750222231,0.0
83,-0.23571530840456298,0.0
84,-2.0146033699213444,0.0
85,1.6658541984644568,0.0
86,-0.6670405201645201,0.0
87,0.059399105956413734,0.0
88,0.04289003992699811,0.0
89,-0.1078942441790878,0.0
90,-0.013238385802123769,0.0
91,-0.02539993951562956,0.0
92,0.0029794946087150463,0.0
93,0.020970671210817887,0.0
94,-0.0015436036029120928,0.0
95,0.0075873853271045694,0.0
96,0.03023038097108011,0.0
97,0.018855198807845006,0.0
98,-0.04192572399207127,0.0
99,-0.01997306049783001,0.0
100,0.21596597609413348,0.0
101,3.5651451975412876,0.0
102,6.912602397004457,0.0
103,-0.23717182489560618,0.0
104,-2.0146819176450625,0.0
105,1.4635551930205337,0.0
106,-0.8038901196116023,0.0
107,0.018948739340570633,0.0
108,-0.04519213721874475,0.0
109,-0.1169234025280522,0.0
110,-0.08793837437838162,0.0
111,-0.13841188939375842,0.0
112,-0.1597914417806825,0.0
113,-0.014034211558699293,0.0
114,-0.045284236817278084,0.0
115,-0.012232557317641543,0.0
116,-0.04734874507082816,0.0
117,-0.01697258360544405,0.0
118,0.09550091313327098,0.0
119,0.026076216399460003,0.0
120,0.31117250945262986,0.0
121,3.5028763522371174,0.0
122,6.907951969845795,0.0
123,-0.35387376182551955,0.0
124,-1.9420107279018533,0.0
125,1.60629393164442,0.0
126,-0.7209716813691929,0.0
127,0.14858678656385324,0.0
128,0.05071114676330178,0.0
129,-0.07394842803147798,0.0
130,0.017831766080138388,0.0
131,-0.02537819559633103,0.0
132,0.05174245806179728,0.0
133,-0.028995603078689917,0.0
134,-0.08474809198228614,0.0
135,0.041173027577575905,0.0
136,-0.001488319230649171,0.0
137,-0.004181982461053255,0.0
138,0.09533682250214688,0.0
139,-0.001881523033479582,0.0
140,0.32593730566600193,0.0
141,3.5648340037088886,0.0
142,6.872970824384045,0.0
143,-0.34814063151056296,0.0
144,-1.9724146536882161,0.0
145,1.549892101894524,0.0
146,-0.7612565006672549,0.0
147,0.09100295704420011,0.0
148,0.04924297975134179,0.0
149,-0.0003127720471680917,0.0
150,-0.04776198445416406,0.0
151,-0.06624930061599679,0.0
152,-0.003783503545846039,0.0
153,-0.024037867740479484,0.0
154,-0.06366981774099668,0.0
155,-0.03726187680242372,0.0
156,-0.0035506270497185338,0.0
157,-0.019465158389097535,0.0
158,0.06696122997975125,0.0
159,-0.10714420448481872,0.0
160,0.2863579892706353,0.0
161,3.513519978396357,0.0
162,6.8275752984321345,0.0
163,-0.26249412784444937,0.0
164,-1.9935314886747622,0.0
165,1.5709746986570696,0.0
166,-0.754342335489352,0.0
167,0.1586782729962481,0.0
168,0.020994864698291173,0.0
169,-0.06297012208760049,0.0
170,0.019267819147445877,0.0
171,-0.006948422984152318,0.0
172,-0.04858481194211377,0.0
173,0.031246231927541536,0.0
174,-0.056277708064322966,0.0
175,0.06311601551596392,0.0
176,0.055044794759291873,0.0
177,-0.014286728456979716,0.0
178,-0.08084642550512922,0.0
179,0.010854050216763316,0.0
180,0.344689693353956,0.0
181,3.510908902368107,0.0
182,6.889794190718158,0.0
183,-0.3225132504082591,0.0
184,-1.9455673687153339,0.0
185,1.56636569711845,0.0
186,-0.8109045803781016,0.0
187,0.1261226367292237,0.0
188,-0.1036630850391294,0.0
189,0.003324797555966874,0.0
190,-0.068015472295369,0.0
191,-0.052468072529869646,0.0
192,-0.08607538110773544,0.0
193,-0.09771899142800258,0.0
194,-0.08916724675105842,0.0
195,0.0034408048782734735,0.0
196,-0.027076619657134246,0.0
197,-0.10865537384183993,0.0
198,-0.14227493063881766,0.0
199,-0.17074109523554148,0.0
200,0.2440081538401827,0.0
201,3.471183156498044,0.0
202,6.75938894608983,0.0
203,-0.349439961443578,0.0
204,-2.0130708886997173,0.0
205,1.5060510638192437,0.0
206,-0.7285501253756077,0.0
207,0.1179452729804838,0.0
208,-0.0039009901963517023,0.0
209,-0.09820560373240117,0.0
210,0.0942917641274619,0.0
211,-0.05571376667675534,0.0
212,-0.014745922881454793,0.0
213,-0.03863306792924896,0.0
214,-0.10398292014057262,0.0
215,-0.06526188420059936,0.0
216,0.03328987306697419,0.0
217,-0.11281201553341808,0.0
218,-0.0561727597798307,0.0
219,-0.06439987774967537,0.0
220,0.18355568815077997,0.0
221,3.53956112325113,0.0
222,6.810772596002562,0.0
223,-0.3653999417637259,0.0
224,-1.9537093207713416,0.0
225,1.4924570777297694,0.0
226,-0.7245245478329256,0.0
227,0.14346147645580684,0.0
228,-0.025778155316399955,0.0
229,-0.16658905672168192,0.0
230,0.0522991781507451,0.0
231,0.038493237188049395,0.0
232,-0.036780217444473635,0.0
233,-0.009893254010739677,0.0
234,0.04837869192401866,0.0
235,0.055470436959920155,0.0
236,0.01864736924498012,0.0
237,-0.05538243512453034,0.0
238,-0.04790285929390373,0.0
239,-0.015576850636182998,0.0
240,0.2797283923295113,0.0
241,3.3999912414113465,0.0
242,6.726653101624325,0.0
243,-0.3907239499692613,0.0
244,-1.9454538836615671,0.0
245,1.4874330229508608,0.0
246,-0.7956535081808483,0.0
247,0.01200076568674643,0.0
248,0.03738204270309947,0.0
249,-0.14489548969281177,0.0
250,-0.06318658994592787,0.0
251,-0.08290679542432695,0.0
252,-0.16282618683011518,0.0
253,-0.08798270263743557,0.0
254,-0.1351217017980939,0.0
255,-0.19884855763475634,0.0
256,0.0035846792514381484,0.0
257,-0.02502159749671389,0.0
258,-0.050351182261980224,0.0
259,0.026182310617145023,0.0
260,0.29286066868218835,0.0
261,3.488555059217517,0.0
262,6.840443971718665,0.0
263,-0.3477692915767749,0.0
264,-1.9365871190869814,0.0
265,1.5825615116936853,0.0
266,-0.8552348551394722,0.0
267,0.08301743965420533,0.0
268,-0.08161730521483532,0.0
269,-0.0982181509256911,0.0
270,-0.05527004143118093,0.0
271,-0.10184092092660879,0.0
272,-0.09234871707669584,0.0
273,-0.0738719956348665,0.0
274,-0.11235986992460326,0.0
275,-0.06337728021623248,0.0
276,-0.09557149012880922,0.0
277,-0.026246809378180427,0.0
278,-0.016309359307275784,0.0
279,-0.05539980043390157,0.0
280,0.24485258091632842,0.0
281,3.4759951241824747,0.0
282,6.771904614697415,0.0
283,-0.4521515148414027,0.0
284,-1.984404932210787,0.0
285,1.4224381966296158,0.0
286,-0.6997510186218489,0.0
287,0.06877464839772106,0.0
288,0.03642208355585268,0.0
289,-0.04115205784670185,0.0
290,-0.09090377501248953,0.0
291,-0.06452679847313715,0.0
292,0.022294062217011378,0.0
293,-0.0006173168957816777,0.0
294,-0.04266481352582914,0.0
295,-0.031143007941913665,0.0
296,-0.12666096150117864,0.0
297,-0.06799508979647653,0.0
298,-0.08339212806147231,0.0
299,-0.0901687292917977,0.0
300,0.2616576003965422,0.0
301,3.5273757558722405,0.0
302,6.926274503444491,0.0
303,-0.3729693126432776,0.0
304,-1.9889113986243532,0.0
305,1.566022624162546,0.0
306,-0.7159721925125674,0.0
307,0.10167548313057571,0.0
308,0.030736692448417254,0.0
309,0.0038809521081817483,0.0
310,0.12216177674677059,0.0
311,-0.014909873143234022,0.0
312,-0.033794661649877066,0.0
313,-0.013076631599459106,0.0
314,0.031479251336613355,0.0
315,-0.10843811266939242,0.0
316,-0.07117001430544186,0.0
317,-0.023932937059719724,0.0
318,0.03062795603050775,0.0
319,0.09921536490886908,0.0
320,0.3471644116682896,0.0
321,3.5285549216062355,0.0
322,6.888986129763954,0.0
323,-0.32269844540636256,0.0
324,-1.9391170173207295,0.0
325,1.4586359649682985,0.0
326,-0.7226625145562563,0.0
327,0.1769619834673292,0.0
328,0.010837445981735585,0.0
329,-0.010832697396693763,0.0
330,-0.011350527761593137,0.0
331,-0.015011647862184131,0.0
332,0.03048902121647381,0.0
333,-0.021798062852369057,0.0
334,-0.032011803438442885,0.0
335,-0.07103265557721207,0.0
336,0.06511897584363652,0.0
337,0.016803520078233408,0.0
338,0.009256829385679993,0.0
339,-0.08582227359870845,0.0
340,0.3179030626517,0.0
341,3.4700216890598976,0.0
342,6.866697839808416,0.0
343,-0.38662795822245405,0.0
344,-1.878125988825078,0.0
345,1.5939562349062941,0.0
346,-0.695742383880576,0.0
347,0.0826532078174608,0.0
348,-0.026464847229428164,0.0
349,-0.02608263767197745,0.0
350,0.001143826983562201,0.0
351,-0.08710061241173492,0.0
352,-0.00669203688702393,0.0
353,0.05279835270292099,0.0
354,0.10490542668662058,0.0
355,0.06727126004954802,0.0
356,0.06230565551544202,0.0
357,0.06826093509324577,0.0
358,-0.05644228960387561,0.0
359,-0.0037882866445912034,0.0
360,0.34318237257444467,0.0
361,3.5648107107252063,0.0
362,6.841458015310056,0.0
363,-0.3550986716386218,0.0
364,-1.8785876887584918,0.0
365,1.4829891311088608,0.0
366,-0.6629271999659306,0.0
367,0.16575735594970276,0.0
368,-0.015429369750420419,0.0
369,0.01947653355022307,0.0
370,0.045732232255432076,0.0
371,0.04971095572305498,0.0
372,0.004540295738376519,0.0
373,-0.031661480668175646,0.0
374,0.02872025417953053,0.0
375,-0.022900091063877668,0.0
376,0.030827389059370415,0.0
377,-0.014872359606906426,0.0
378,-0.014931847106300883,0.0
379,-0.09049215009112901,0.0
380,0.19144955874125102,0.0
381,3.5084002719301415,0.0
382,6.836703792613313,0.0
383,-0.3694465518362281,0.0
384,-2.0081216203496486,0.0
385,1.5069559993751194,0.0
386,-0.7626476073489694,0.0
387,0.1322017731382432,0.0
388,-0.01047744190359634,0.0
389,-0.11542483928110636,0.0
390,-0.021541535540112212,0.0
391,-0.03698133915816635,0.0
392,-0.017200075098524222,0.0
393,-0.01825167765708703,0.0
394,0.032849277598986704,0.0
395,0.04018891327097607,0.0
396,0.08986940170114013,0.0
397,0.05817414036334967,0.0
398,0.06211825657499873,0.0
399,-0.037898927415995924,0.0
400,0.41711070669372585,0.0
401,3.6384137077757672,0.0
402,6.887110129051517,0.0
403,-0.3019907151108138,0.0
404,-1.8305482569954232,0.0
405,1.6533553950007753,0.0
406,-0.7942304390334771,0.0
407,0.0379580861950561,0.0
408,0.013695273112728772,0.0
409,-0.0015076137383777596,0.0
410,-0.04483226652556526,0.0
411,0.09908397190510301,0.0
412,0.07404518692802027,0.0
413,-0.021136930114762698,0.0
414,0.026295532669576717,0.0
415,-0.01711011629777486,0.0
416,-0.020876573590862618,0.0
417,-0.06063916660759401,0.0
418,0.06212812093870851,0.0
419,0.04112212648281595,0.0
420,0.2631646159331729,0.0
421,3.6045812771306744,0.0
422,6.794603529452855,0.0
423,-0.3265281599724624,0.0
424,-1.8370334265985735,0.0
425,1.5663425423795416,0.0
426,-0.779090454893905,0.0
427,0.11901623385510493,0.0
428,0.054583043412621574,0.0
429,-0.032136370977056156,0.0
430,0.03451070555994527,0.0
431,-0.014820959728822282,0.0
432,-0.02195009079319114,0.0
433,-0.0632760247879679,0.0
434,0.06785207921411293,0.0
435,-0.0028935125808011546,0.0
436,0.08184587768058679,0.0
437,0.08667906381789629,0.0
438,0.10192192376837791,0.0
439,0.028501683614473527,0.0
440,0.3112158520755984,0.0
441,3.641785262820396,0.0
442,6.863969707353755,0.0
443,-0.40863962883666527,0.0
444,-1.9152595856497925,0.0
445,1.5858161297289635,0.0
446,-0.739993179714084,0.0
447,0.0661275985763208,0.0
448,-0.13032533591596085,0.0
449,-0.18805144459180848,0.0
450,-0.08422967608826798,0.0
451,-0.06404767220616299,0.0
452,-0.19548635189392538,0.0
453,-0.07768041501338996,0.0
454,-0.12790045648081097,0.0
455,-0.1931622370835861,0.0
456,-0.06513942336594934,0.0
457,-0.03308219017814587,0.0
458,-0.001401753226632141,0.0
459,-0.0024375647937253386,0.0
460,0.25296967708559925,0.0
461,3.650340393254836,0.0
462,6.846504416022371,0.0
463,-0.2716803396683883,0.0
464,-1.8363939432672645,0.0
465,1.6258050035199136,0.0
466,-0.6937297340604903,0.0
467,0.18078496415778122,0.0
468,0.03244376959181664,0.0
469,-0.06237702446831784,0.0
470,0.13596242016310175,0.0
471,0.04925375994039328,0.0
472,-0.07392057593577196,0.0
473,-0.040631884721955544,0.0
474,0.07967981046624613,0.0
475,0.02205202087603463,0.0
476,-0.00030448366763626824,0.0
477,0.02678411309611655,0.0
478,-0.06848862588004444,0.0
479,-0.02548310960608072,0.0
480,0.2153649224027124,0.0
481,3.6368976659073593,0.0
482,6.8916188933955445,0.0
483,-0.34865015567083296,0.0
484,-1.8329095731301768,0.0
485,1.456469007904312,0.0
486,-0.703375784388228,0.0
487,0.12173109377530564,0.0
488,0.10742783764881852,0.0
489,-0.05026833385267927,0.0
490,0.11204763881270477,0.0
491,-0.011633587471846348,0.0
492,0.030702999903165253,0.0
493,0.0371746119402759,0.0
494,-0.01677867012527844,0.0
495,0.003288337568117152,0.0
496,0.06681576770166701,0.0
497,0.10009404071107961,0.0
498,-0.08895290739172293,0.0
499,-0.015543499776537866,0.0
500,0.24477723337021362,0.0
501,3.5177028411638456,0.0
502,6.880340712674378,0.0
503,-0.3623918243310967,0.0
504,-1.9052792178697138,0.0
505,1.4221078152271123,0.0
506,-0.6811725947060024,0.0
507,0.18666586290435186,0.0
508,-0.004834447825693491,0.0
509,-0.013042574841397425,0.0
510,0.04068290849127714,0.0
511,-0.019082254942524836,0.0
512,0.028888381832418104,0.0
513,-0.017988815138457525,0.0
514,0.02870051691514744,0.0
515,-0.028967365139422996,0.0
516,0.014044228616211157,0.0
517,0.11967940031602561,0.0
518,0.119986015345662,0.0
519,0.09139881361823601,0.0
520,0.3861077872995148,0.0
521,3.5391413038695596,0.0
522,6.948321277376488,0.0
523,-0.4953096907025105,0.0
524,-1.8161280828338606,0.0
525,1.5222919013831389,0.0
526,-0.7294185391638922,0.0
527,0.1583806598481678,0.0
528,-0.003945111245999219,0.0
529,0.09540577732615042,0.0
530,0.07915627036505313,0.0
531,-0.034955759130393185,0.0
532,-0.04579089474208589,0.0
533,-0.0887351989573264,0.0
534,-0.017359975848495576,0.0
535,-0.0328152178545931,0.0
536,0.0026670337364989305,0.0
537,-0.06720539132653597,0.0
538,-0.0387610382388214,0.0
539,0.0054684513095093375,0.0
540,0.3224967112140684,0.0
541,3.6182816852766995,0.0
542,6.897647970223033,0.0
543,-0.37868806872385175,0.0
544,-1.923571795797473,0.0
545,1.555172690426561,0.0
546,-0.6998401403481574,0.0
547,0.2877955771777687,0.0
548,0.06301503733671197,0.0
549,0.06490963948227536,0.0
550,0.03709818952949452,0.0
551,0.11151579189640953,0.0
552,0.0838688385453093,0.0
553,0.07360864380597863,0.0
554,0.10242030299352672,0.0
555,0.01949965982615069,0.0
556,0.05681301504531341,0.0
557,-0.007177482286307841,0.0
558,0.004835765855120685,0.0
559,-0.0012785785698456024,0.0
560,0.2188312311764665,0.0
561,3.5603761703939565,0.0
562,6.882051760550865,0.0
563,-0.3615035773539921,0.0
564,-1.9379823070393676,0.0
565,1.5305966484168063,0.0
566,-0.7258388069062118,0.0
567,0.17835954192091702,0.0
568,-0.01517154045176878,0.0
569,-0.08203611622601732,0.0
570,-0.00904731406257471,0.0
571,0.004457341474440771,0.0
572,0.1370621480498204,0.0
573,0.052371106663245764,0.0
574,-0.010909426817782864,0.0
575,0.03595506814008708,0.0
576,0.04150958669763488,0.0
577,0.06939883348605429,0.0
578,-0.02532398974567028,0.0
579,-0.07686105234637955,0.0
580,0.3549458474754221,0.0
581,3.5462273646569766,0.0
582,6.790285805523503,0.0
583,-0.4841811782118351,0.0
584,-1.8226836397667356,0.0
585,1.5336394400048785,0.0
586,-0.7276831209239265,0.0
587,0.23281924555099096,0.0
588,0.01940477927937802,0.0
589,-0.07598445692117876,0.0
590,0.07563918920891097,0.0
591,0.04324065027469297,0.0
592,-0.012864224015657944,0.0
593,0.05464467281534628,0.0
594,0.02288831794152302,0.0
595,-0.01830645241134255,0.0
596,-0.0674185201634988,0.0
597,-0.15572856292509663,0.0
598,-0.05121579681761217,0.0
599,-0.03526767097117736,0.0
600,0.21889865357490798,0.0
601,3.56476164303516,0.0
602,6.718687009768498,0.0
603,-0.553762693734749,0.0
604,-1.9669359304036407,0.0
605,1.4924100288405946,0.0
606,-0.7666587033637685,0.0
607,0.05486524719255076,0.0
608,-0.025433052193969755,0.0
609,-0.059898788331523796,0.0
610,-0.029635211615440298,0.0
611,-0.11466856262490635,0.0
612,-0.053334940926633254,0.0
613,-0.01401994265723125,0.0
614,-0.05881846487310857,0.0
615,-0.035780302292618124,0.0
616,0.0044768310739698725,0.0
617,-0.0005696212293140462,0.0
618,0.028155114497602655,0.0
619,0.03480628034676537,0.0
620,0.2893015568704105,0.0
621,3.546017545562206,0.0
622,6.840789959148187,0.0
623,-0.34808638901464967,0.0
624,-1.9059497247713573,0.0
625,1.5086024359388288,0.0
626,-0.7630952967837733,0.0
627,0.07925104340897332,0.0
628,-0.06466033350935334,0.0
629,-0.05301674493318187,0.0
630,0.07089136935666143,0.0
631,-0.070006265098935,0.0
632,-0.04859409833175395,0.0
633,-0.018935056391902922,0.0
634,0.07601491628559279,0.0
635,0.05757796819934659,0.0
636,0.058246817512865694,0.0
637,0.0835018784617606,0.0
638,0.0792376520166779,0.0
639,0.10986611514316295,0.0
640,0.41159285586189526,0.0
641,3.6355994842197075,0.0
642,6.840281756695945,0.0
643,-0.31482479102053484,0.0
644,-1.6994319151388937,0.0
645,1.7289021203873012,0.0
646,-0.6513046605482143,0.0
647,0.15078430320309097,0.0
648,0.03956881707374449,0.0
649,-0.009645150065379603,0.0
650,-0.0007072602044183446,0.0
651,0.0023106024073631737,0.0
652,-0.16023431626160464,0.0
653,-0.02535969162417518,0.0
654,0.08405340445650479,0.0
655,0.02000492982367224,0.0
656,0.07196619297195035,0.0
657,-0.014792464757876865,0.0
658,-0.010603970342650947,0.0
659,0.030596266912601748,0.0
660,0.3303708100135128,0.0
661,3.6167291211686896,0.0
662,6.932771948258706,0.0
663,-0.4112607642067496,0.0
664,-1.8166096297743142,0.0
665,1.60742635646436,0.0
666,-0.6696438280757029,0.0
667,0.18569963069150727,0.0
668,0.005158146766770455,0.0
669,-0.052866921778367236,0.0
670,0.08644111125518919,0.0
671,0.017654177185173626,0.0
672,0.001803463177250525,0.0
673,0.03341314813271234,0.0
674,0.026717429128208455,0.0
675,0.0019575685040760845,0.0
676,0.07213790397270056,0.0
677,0.043277652414347625,0.0
678,-0.025590623137709406,0.0
679,-0.03689824874571703,0.0
680,0.2900760220350421,0.0
681,3.616860341648987,0.0
682,6.832688949851013,0.0
683,-0.38582602474063143,0.0
684,-1.9240496079926326,0.0
685,1.58466924203854,0.0
686,-0.7153293581948224,0.0
687,0.18936058498611885,0.0
688,0.027630089818242328,0.0
689,-0.007731461611515351,0.0
690,0.014301649789910165,0.0
691,-0.011381038693218049,0.0
692,0.13080628192939453,0.0
693,-0.018196551953970956,0.0
694,0.08180367298493191,0.0
695,0.00846021886660444,0.0
696,0.047182408715879434,0.0
697,-0.0021718453790174896,0.0
698,-0.01675398089424085,0.0
699,0.03851752023543542,0.0
700,0.3778547994003722,0.0
701,3.6362690415913823,0.0
702,6.880071735236743,0.0
703,-0.36879202985126713,0.0
704,-1.7331397811848896,0.0
705,1.5271742448008359,0.0
706,-0.7076713642815922,0.0
707,0.23129957607082702,0.0
708,0.07022711359959699,0.0
709,-0.033015771896933555,0.0
710,0.03977710804225558,0.0
711,-0.02807340274362666,0.0
712,0.01234759292116091,0.0
713,-0.08993732220817907,0.0
714,0.026861121082950908,0.0
715,0.011808057413664981,0.0
716,-0.006008363651929709,0.0
717,0.010838128494175786,0.0
718,0.02050568152071308,0.0
719,0.014937783581791826,0.0
720,0.3048032269538387,0.0
721,3.6364661730627685,0.0
722,6.762332981210379,0.0
723,-0.4403462212439379,0.0
724,-1.9187235240068066,0.0
725,1.52385418500541,0.0
726,-0.7091960929182509,0.0
727,0.13584717232198557,0.0
728,0.05389219911350589,0.0
729,-0.05344717070749419,0.0
730,0.042784904217930096,0.0
731,-0.0175644886871092,0.0
732,0.0010589383631571007,0.0
733,0.018784919598326528,0.0
734,-0.025871867416274653,0.0
735,-0.06784333495119531,0.0
736,-0.03703851038258228,0.0
737,0.0692743002771155,0.0
738,-0.039741299203822446,0.0
739,0.018042343831537643,0.0
740,0.33693101310299933,0.0
741,3.544709269220262,0.0
742,6.810129655762734,0.0
743,-0.4568295138892818,0.0
744,-1.775996462762574,0.0
745,1.4726222715174457,0.0
746,-0.6545671259694453,0.0
747,0.16757187577284066,0.0
748,0.026788782752336787,0.0
749,-0.07151107987079677,0.0
750,-0.03773735798403669,0.0
751,0.025159953209927012,0.0
752,-0.016418161340729792,0.0
753,-0.10320435124742858,0.0
754,0.05524979958606195,0.0
755,-0.02445258575603058,0.0
756,-0.025876433887820384,0.0
757,0.011669044616921947,0.0
758,-0.0068410054536619976,0.0
759,-0.02834771211989605,0.0
760,0.30444759798691107,0.0
761,3.550497751971206,0.0
762,6.805375494812046,0.0
763,-0.531777168394489,0.0
764,-1.9116605640113824,0.0
765,1.457640896305509,0.0
766,-0.7337465910000108,0.0
767,0.15102288385302112,0.0
768,-0.02523899459644275,0.0
769,-0.12035758560184054,0.0
770,-0.01649204617054288,0.0
771,-0.05970613130100702,0.0
772,-0.0570880808949783,0.0
773,-0.050297409623310904,0.0
774,-0.033653588343796476,0.0
775,-0.048078391265697726,0.0
776,-0.12606009616222777,0.0
777,-0.0876303546815424,0.0
778,-0.1342153515701224,0.0
779,-0.09862886881655136,0.0
780,0.22451611486700013,0.0
781,3.4932548940791595,0.0
782,6.783175891050082,0.0
783,-0.5366622144741928,0.0
784,-1.8564323108271186,0.0
785,1.5175632898888087,0.0
786,-0.7824276463944695,0.0
787,0.11652361622031844,0.0
788,-0.06328315066916779,0.0
789,-0.08481931548195754,0.0
790,-0.000134055334009342,0.0
791,-0.08170553476715958,0.0
792,-0.036537121127722866,0.0
793,-0.09055159444110149,0.0
794,-0.08268281634549304,0.0
795,-0.009342698656553051,0.0
796,-0.12268307940345367,0.0
797,-0.006850130058168605,0.0
798,-0.12169474057695773,0.0
799,-0.12330947192562516,0.0
800,0.15087402228119895,0.0
801,3.5755457627991247,0.0
802,6.892587862238696,0.0
803,-0.5247581616570923,0.0
804,-1.9651327669262946,0.0
805,1.4625210996793692,0.0
806,-0.7821769061195311,0.0
807,0.13203089059059897,0.0
808,-0.12763809308263852,0.0
809,-0.23164278842072691,0.0
810,-0.07853703285642406,0.0
811,-0.1242144746199658,0.0
812,-0.05297605532243599,0.0
813,-0.1189927638959651,0.0
814,-0.15092090609953485,0.0
815,-0.13203363578222815,0.0
816,-0.010283398106987154,0.0
817,-0.10891418149619454,0.0
818,-0.0430866215672806,0.0
819,-0.11036327025351682,0.0
820,0.2713934521610134,0.0
821,3.5339239741729593,0.0
822,6.762474625929026,0.0
823,-0.5957306991785691,0.0
824,-1.8533350290741437,0.0
825,1.402595231035365,0.0
826,-0.8044204358915871,0.0
827,0.05118997383587156,0.0
828,-0.1265348885756477,0.0
829,-0.09178743935600837,0.0
830,0.024967486084178925,0.0
831,-0.1446305612223065,0.0
832,-0.0222717710855228,0.0
833,-0.0946889563430255,0.0
834,-0.0713654116646216,0.0
835,-0.05408690388541658,0.0
836,-0.061254828669935674,0.0
837,-0.09415604862951081,0.0
838,-0.08726023800691986,0.0
839,-0.07675256587428772,0.0
840,0.18219940833290021,0.0
841,3.492984270789158,0.0
842,6.711251614631203,0.0
843,-0.584232330016024,0.0
844,-1.9011993858641227,0.0
845,1.395279817854914,0.0
846,-0.8663930189128743,0.0
847,0.07446596663701144,0.0
848,-0.05814066625033335,0.0
849,-0.15105449442189997,0.0
850,-0.07419905989195413,0.0
851,-0.20238771830239632,0.0
852,-0.13552158279977605,0.0
853,-0.19389293769970567,0.0
854,-0.09651368916982266,0.0
855,-0.11284673907425512,0.0
856,-0.05248030832747543,0.0
857,-0.07925570304402513,0.0
858,-0.08311566763300636,0.0
859,-0.19092093542100108,0.0
860,0.2027031396548651,0.0
861,3.650893190637881,0.0
862,6.762974264290124,0.0
863,-0.5409794155330131,0.0
864,-1.8523223414422219,0.0
865,1.462123856639612,0.0
866,-0.8186484669609257,0.0
867,0.14719096304972445,0.0
868,-0.05968662020908521,0.0
869,-0.10366058760824305,0.0
870,-0.06638169479530055,0.0
871,-0.00390004304077754,0.0
872,-0.07314607389194702,0.0
873,-0.02125365397524956,0.0
874,-0.16608791221894664,0.0
875,-0.14196374004771603,0.0
876,-0.08152315890443641,0.0
877,-0.19207886821060383,0.0
878,-0.14259849642964906,0.0
879,-0.15899075143838276,0.0
880,0.1983265473004844,0.0
881,3.554411851595863,0.0
882,6.710858795529182,0.0
883,-0.548713186450649,0.0
884,-1.8890193112452112,0.0
885,1.4228471768021365,0.0
886,-0.9102262671411585,0.0
887,0.10893229667298975,0.0
888,-0.07765885244751022,0.0
889,-0.08170033232917458,0.0
890,-0.05661845387317802,0.0
891,-0.023855797037524856,0.0
892,-0.0888907810641772,0.0
893,-0.06082141754982756,0.0
894,-0.024205624476210247,0.0
895,-0.10147989393443857,0.0
896,0.008040397305858094,0.0
897,-0.14202481978144121,0.0
898,-0.07172999756524533,0.0
899,-0.12092808014764984,0.0
900,0.2307306004135041,0.0
901,3.687250789852411,0.0
902,6.6663148671043535,0.0
903,-0.5749612462822623,0.0
904,-1.8860516248543724,0.0
905,1.4982392643368618,0.0
906,-0.7672242479882283,0.0
907,0.1111789845877464,0.0
908,-0.02094964532009738,0.0
909,-0.1298011296577263,0.0
910,-0.005267992760303479,0.0
911,-0.053226874288291495,0.0
912,-0.07529760166599775,0.0
913,-0.01821958986288559,0.0
914,-0.08001498261603673,0.0
915,-0.026897930251531133,0.0
916,0.0004402577631188731,0.0
917,-0.054550645415705784,0.0
918,-0.03678984967048207,0.0
919,-0.08881493753300496,0.0
920,0.17057560459264298,0.0
921,3.6355195317235367,0.0
922,6.897020966111732,0.0
923,-0.5887510749540363,0.0
924,-1.8736600429385666,0.0
925,1.5055327702975396,0.0
926,-0.7792667829832525,0.0
927,0.07654525520763157,0.0
928,-0.0514301967783421,0.0
929,-0.07218059573362647,0.0
930,-0.04368310703128493,0.0
931,-0.14350570496019938,0.0
932,-0.05044452705257265,0.0
933,-0.06005801825674936,0.0
934,-0.05227210697320422,0.0
935,-0.03184710377621351,0.0
936,-0.06796858454290902,0.0
937,-0.025523006540474208,0.0
938,-0.05894885085113235,0.0
939,-0.11008292753872242,0.0
940,0.24526462434330604,0.0
941,3.700989927860047,0.0
942,6.787928987733547,0.0
943,-0.5387252265735869,0.0
944,-1.8513260171302255,0.0
945,1.5205797276280444,0.0
946,-0.78112653944421,0.0
947,0.1019826649692363,0.0
948,0.016376963930943126,0.0
949,-0.03298382730525141,0.0
950,0.07556570436921582,0.0
951,0.08433832858452717,0.0
952,0.06502206685715949,0.0
953,0.02110702910988191,0.0
954,-0.04451285302494393,0.0
955,0.03879578837804829,0.0
956,0.03297407768024147,0.0
957,0.10496257382871185,0.0
958,0.04850683057357352,0.0
959,0.03359813855462511,0.0
960,0.31990136866995605,0.0
961,3.6492492948778668,0.0
962,6.851934087098595,0.0
963,-0.5257420296590414,0.0
964,-1.7494554355663388,0.0
965,1.5103299208063337,0.0
966,-0.7333180408725055,0.0
967,0.18182561482000048,0.0
968,-0.026109351305377913,0.0
969,-0.037459414647760564,0.0
970,0.038858079539284794,0.0
971,-0.028636940317303697,0.0
972,-0.0009268693411521988,0.0
973,0.07697478490664852,0.0
974,-0.01008544107294963,0.0
975,0.043799502494523274,0.0
976,-0.04002635513504815,0.0
977,-0.052634211723028665,0.0
978,0.003838914883167153,0.0
979,-0.054358478877364204,0.0
980,0.37084432445685717,0.0
981,3.6836816396913648,0.0
982,6.821572988957961,0.0
983,-0.4996862762072589,0.0
984,-1.7745742374543934,0.0
985,1.5364817150114718,0.0
986,-0.72988924280718,0.0
987,0.1465371429032384,0.0
988,0.07594745684077756,0.0
989,-0.05630905776536227,0.0
990,0.014651071364094149,0.0
991,0.07867720877039328,0.0
992,-0.06259081434960917,0.0
993,0.09194574848155337,0.0
994,0.021612411356613365,0.0
995,-0.061095894313242874,0.0
996,0.05321609943281183,0.0
997,-0.05383470067679376,0.0
998,-0.07057881606511668,0.0
999,-0.044887621073620515,0.0
1000,0.21021916515079464,0.0
1001,3.66431329534859,0.0
1002,6.758502679355471,0.0
1003,-0.6055852845168327,0.0
1004,-1.7772241188144953,0.0
1005,1.547200751222998,0.0
1006,-0.8143175076762343,0.0
1007,0.09864233672314844,0.0
1008,-0.04008576766840046,0.0
1009,-0.10356974093978998,0.0
1010,0.0033801479751813315,0.0
1011,-0.03297550063801843,0.0
1012,-0.01688961226374944,0.0
1013,0.07149970798974273,0.0
1014,-0.06338234794488913,0.0
1015,-0.05278540881941325,0.0
1016,-0.04864477649515737,0.0
1017,-0.06371467672927576,0.0
1018,-0.010798687425826788,0.0
1019,0.027714091987087932,0.0
1020,0.35238907961370325,0.0
1021,3.7612058689633785,0.0
1022,6.877532098093419,0.0
1023,-0.4907523502723417,0.0
1024,-1.8709316953914086,0.0
1025,1.4675980270607698,0.0
1026,-0.7876746884170794,0.0
1027,0.19670664181841688,0.0
1028,0.04110356679000564,0.0
1029,0.025042980276695173,0.0
1030,-0.02599545920549641,0.0
1031,0.03733468601203025,0.0
1032,-0.04095638366379581,0.0
1033,-0.0015078183234231782,0.0
1034,0.024558678954153576,0.0
1035,0.07389948962630266,0.0
1036,-0.011910579999430092,0.0
1037,0.030197585215668718,0.0
1038,0.08073520244880471,0.0
1039,0.0901470353509719,0.0
1040,0.40385252113035874,0.0
1041,3.7954520065276998,0.0
1042,6.825441434226377,0.0
1043,-0.537622369103914,0.0
1044,-1.7813240653675266,0.0
1045,1.6325411406954142,0.0
1046,-0.8320502111603331,0.0
1047,0.25491548254400753,0.0
1048,-0.02028753877337777,0.0
1049,0.029189608355563397,0.0
1050,0.08668834742193848,0.0
1051,-0.037768259743176526,0.0
1052,-0.04586197097162369,0.0
1053,-0.023834546680784323,0.0
1054,-0.013428626209929281,0.0
1055,-0.015639775151737548,0.0
1056,-0.08389030126403987,0.0
1057,-0.07429583973678339,0.0
1058,0.06222337479627146,0.0
1059,-0.013828933897448546,0.0
1060,0.15941655180302594,0.0
1061,3.5950002805279495,0.0
1062,6.841026986407223,0.0
1063,-0.5932253124497224,0.0
1064,-1.7382820290606227,0.0
1065,1.4179467361281473,0.0
1066,-0.8080701749419592,0.0
1067,0.09025859209146203,0.0
1068,-0.014828046183307592,0.0
1069,-0.06825649367480915,0.0
1070,-0.022717111740916285,0.0
1071,-0.08102104128117199,0.0
1072,-0.08239510630318686,0.0
1073,-0.08034074863465362,0.0
1074,0.0015059284541795448,0.0
1075,-0.008291009476969743,0.0
1076,-0.014697015464668117,0.0
1077,0.04249018441816384,0.0
1078,-0.04580947187323717,0.0
1079,-0.006116292170868315,0.0
1080,0.1738275533525452,0.0
1081,3.711829309100606,0.0
1082,6.8383073064834585,0.0
1083,-0.5685163329310853,0.0
1084,-1.7907852357819123,0.0
1085,1.4769348512169187,0.0
1086,-0.7668894743122946,0.0
1087,0.1832386871238774,0.0
1088,-0.0304523275793162,0.0
1089,-0.031130175475238935,0.0
1090,-0.058197128397969845,0.0
1091,0.04972821277320098,0.0
1092,-0.07140484172867725,0.0
1093,-0.09988494537399036,0.0
1094,0.025062111815836098,0.0
1095,0.053761461241349395,0.0
1096,0.005290021355327959,0.0
1097,0.008203289780779171,0.0
1098,0.06823806649935178,0.0
1099,-0.0024310601774935967,0.0
1100,0.29209818886007366,0.0
1101,3.7099243365252614,0.0
1102,6.837321915630331,0.0
1103,-0.5592360992633109,0.0
1104,-1.7898739754566888,0.0
1105,1.430810230063403,0.0
1106,-0.7463328506326268,0.0
1107,0.14060651128151389,0.0
1108,-0.12281035925102071,0.0
1109,-0.014464885886550483,0.0
1110,0.02032859788333001,0.0
1111,-0.026152483826808147,0.0
1112,-0.01903072009220551,0.0
1113,-0.017956373478866566,0.0
1114,-0.03315359606864325,0.0
1115,-0.011091970100158884,0.0
1116,-0.006772241646687695,0.0
1117,0.043814072109971576,0.0
1118,0.055867205548324125,0.0
1119,6.496975831048885e-05,0.0
1120,0.3465553611683593,0.0
1121,3.6760710391212905,0.0
1122,6.806380202367992,0.0
1123,-0.5315809582951356,0.0
1124,-1.8005325335849287,0.0
1125,1.474440859862611,0.0
1126,-0.7151767553054118,0.0
1127,0.14538782282956395,0.0
1128,0.01382933666103387,0.0
1129,-0.08383963677269445,0.0
1130,-0.014986171140495459,0.0
1131,-0.06642727750721286,0.0
1132,-0.05258961987688497,0.0
1133,0.041652361892802754,0.0
1134,0.004124855952714975,0.0
1135,0.021864471271578957,0.0
1136,-0.061345524237818895,0.0
1137,-0.019451674310540103,0.0
1138,-0.018495980210414955,0.0
1139,-0.023461545289255717,0.0
1140,0.2714618971550414,0.0
1141,3.7482486377117645,0.0
1142,6.794464069459277,0.0
1143,-0.5797024734838704,0.0
1144,-1.824927474150701,0.0
1145,1.574235123072716,0.0
1146,-0.7775040207654533,0.0
1147,0.10699230311569866,0.0
1148,-0.013144647079547551,0.0
1149,-0.05068630753453855,0.0
1150,-0.10507366822432411,0.0
1151,-0.06551589634351795,0.0
1152,-0.20485693491500387,0.0
1153,-0.03183846575698664,0.0
1154,-0.025483847737004475,0.0
1155,-0.011245612148231653,0.0
1156,-0.006153287394132692,0.0
1157,-0.046592110957439745,0.0
1158,-0.06425780653560993,0.0
1159,-0.15201222431200437,0.0
1160,0.35096796782860884,0.0
1161,3.6990714447173527,0.0
1162,6.811262585285115,0.0
1163,-0.6692342055830421,0.0
1164,-1.8189537137219802,0.0
1165,1.4884789337253481,0.0
1166,-0.8081900786194156,0.0
1167,0.21447038117927664,0.0
1168,0.04609687700530035,0.0
1169,-0.10401766551362822,0.0
1170,-0.044927019509113104,0.0
1171,0.03871225629200167,0.0
1172,-0.0005841228002216037,0.0
1173,-0.07882585871976844,0.0
1174,-0.06532621640774253,0.0
1175,-0.05788475608143077,0.0
1176,-0.11040739460295745,0.0
1177,-0.1012333699513343,0.0
1178,-0.08828800924130054,0.0
1179,-0.09305427071735986,0.0
1180,0.3198460550794391,0.0
1181,3.7292927767027453,0.0
1182,6.873339262004186,0.0
1183,-0.5954068624950856,0.0
1184,-1.710298244928391,0.0
1185,1.5856716674897071,0.0
1186,-0.7694767103561386,0.0
1187,0.09024035142125224,0.0
1188,0.048952243828834584,0.0
1189,-0.05508241193163422,0.0
1190,-0.009555583020796996,0.0
1191,-0.043737504461172375,0.0
1192,-0.09120358392476849,0.0
1193,0.05597467221445135,0.0
1194,0.05395062323164232,0.0
1195,-0.04578943385597427,0.0
1196,0.00667627871984559,0.0
1197,-0.06942596512416759,0.0
1198,-0.05891738896312693,0.0
1199,0.03701622640290321,0.0
1200,0.2841346653460972,0.0
1201,3.5553451346140186,0.0
1202,6.734364761670274,0.0
1203,-0.6074778657593729,0.0
1204,-1.7948328110460152,0.0
1205,1.524627194912783,0.0
1206,-0.6892668253921123,0.0
1207,0.20595926549332044,0.0
1208,0.038544212590898734,0.0
1209,-0.010342115984821529,0.0
1210,0.061190117532463575,0.0
1211,0.004487898199527702,0.0
1212,-0.011755873332318343,0.0
1213,0.1080550888398673,0.0
1214,-0.004539642689592532,0.0
1215,0.17524513444529122,0.0
1216,-0.015363463785741192,0.0
1217,-0.007130098346630592,0.0
1218,-0.018641392780954225,0.0
1219,-0.04382403395530746,0.0
1220,0.37178405220302463,0.0
1221,3.6852277555330035,0.0
1222,6.768880012365674,0.0
1223,-0.5168103223223612,0.0
1224,-1.7878786198880863,0.0
1225,1.5085073485163718,0.0
1226,-0.7613261063014294,0.0
1227,0.13263865492041593,0.0
1228,-0.005773958250073003,0.0
1229,-0.0655621397836929,0.0
1230,0.07259647415368768,0.0
1231,0.05522185058116931,0.0
1232,0.03779071154131328,0.0
1233,0.11211444281193078,0.0
1234,-0.08550833534154431,0.0
1235,0.04308065140436209,0.0
1236,0.010334787776374373,0.0
1237,0.021929198308597034,0.0
1238,0.11048270023998699,0.0
1239,-0.03215874452781375,0.0
1240,0.278370909000884,0.0
1241,3.7395615396683923,0.0
1242,6.895780565864004,0.0
1243,-0.597923801612732,0.0
1244,-1.671118709404693,0.0
1245,1.5643845780419894,0.0
1246,-0.7533286981848228,0.0
1247,0.17540440110194908,0.0
1248,-0.05067257959007467,0.0
1249,0.053526627476477046,0.0
1250,0.0011394083979974212,0.0
1251,-0.07811541882586745,0.0
1252,-0.015552592647592975,0.0
1253,-0.04867930016519535,0.0
1254,0.10438067302889996,0.0
1255,0.09632968022352562,0.0
1256,-0.07157743044564416,0.0
1257,-0.03499564538779584,0.0
1258,-0.009986341670661722,0.0
1259,0.013298638552281224,0.0
1260,0.319169641862985,0.0
1261,3.8375956799743123,0.0
1262,6.831931867729088,0.0
1263,-0.5704296746646659,0.0
1264,-1.6368114886725504,0.0
1265,1.5358144519849202,0.0
1266,-0.8146380705238744,0.0
1267,0.23330080041737497,0.0
1268,0.011851926191964707,0.0
1269,-0.007315991321531934,0.0
1270,0.06863024868217042,0.0
1271,0.039969598883711994,0.0
1272,0.038947314077165694,0.0
1273,0.028795886846305428,0.0
1274,-0.021916600185765897,0.0
1275,0.0792554669887899,0.0
1276,-0.022466104811205267,0.0
1277,0.02594545584209689,0.0
1278,-0.04957473028345913,0.0
1279,0.040327262040184,0.0
1280,0.2885322207615252,0.0
1281,3.704027156440514,0.0
1282,6.713751756797209,0.0
1283,-0.654194580716798,0.0
1284,-1.6888777863897202,0.0
1285,1.4297492001334777,0.0
1286,-0.78930741172029,0.0
1287,0.22151636073235287,0.0
1288,0.11783859209052998,0.0
1289,-0.04996826615465332,0.0
1290,0.01844327681354658,0.0
1291,0.06852796936091886,0.0
1292,0.07801649809711683,0.0
1293,0.04886251341670557,0.0
1294,0.08208360902288654,0.0
1295,0.04796046051806362,0.0
1296,0.05283349486218595,0.0
1297,0.06081056904345547,0.0
1298,0.015289591607096498,0.0
1299,-0.06737126489299745,0.0
1300,0.2849969968081909,0.0
1301,3.7810989734790637,0.0
1302,6.773340802084548,0.0
1303,-0.674216602873726,0.0
1304,-1.6752423689401728,0.0
1305,1.5379742018377978,0.0
1306,-0.7706657628826795,0.0
1307,0.19314966934554967,0.0
1308,-0.019596351626321652,0.0
1309,0.011670531495511637,0.0
1310,0.06790246026942169,0.0
1311,0.012887966658704668,0.0
1312,0.11715130453987038,0.0
1313,0.06513887733085677,0.0
1314,-0.02640873109433936,0.0
1315,0.032720194260693274,0.0
1316,-0.026069152948787547,0.0
1317,-0.11727851692560742,0.0
1318,-0.017317787987743045,0.0
1319,0.03981140123895096,0.0
1320,0.25450244597291805,0.0
1321,3.702867775746846,0.0
1322,6.734048127752215,0.0
1323,-0.6521110771958911,0.0
1324,-1.71228016005329,0.0
1325,1.418288689169021,0.0
1326,-0.633003353673502,0.0
1327,0.19309758411086045,0.0
1328,0.0028491055433330983,0.0
1329,-0.053741055235031726,0.0
1330,0.0061766456541133,0.0
1331,0.09576103007317552,0.0
1332,0.11888810731209323,0.0
1333,-0.008061329741145082,0.0
1334,-0.040490975387308385,0.0
1335,0.043342493147550995,0.0
1336,0.0531782195749457,0.0
1337,0.06171044781135378,0.0
1338,0.01884536986531815,0.0
1339,0.07701207077659221,0.0
1340,0.31781016677094037,0.0
1341,3.754934051660761,0.0
1342,6.806839493774339,0.0
1343,-0.596636424540122,0.0
1344,-1.7427217632892238,0.0
1345,1.5120993601446668,0.0
1346,-0.7770693172881186,0.0
1347,0.17421771766082106,0.0
1348,-0.010943796178230571,0.0
1349,-0.020394639290193892,0.0
1350,-0.031194098302950418,0.0
1351,-0.04891862687240339,0.0
1352,-0.013659589069339518,0.0
1353,0.02033320584142969,0.0
1354,0.052072758778960684,0.0
1355,-0.04901273351493417,0.0
1356,0.033075679499026005,0.0
1357,-0.016624981001005033,0.0
1358,0.07915971674652424,0.0
1359,-0.010203350304443172,0.0
1360,0.2545893764632504,0.0
1361,3.671252422237378,0.0
1362,6.6838801490052475,0.0
1363,-0.6881506582619261,0.0
1364,-1.6983763469389326,0.0
1365,1.4801212498876455,0.0
1366,-0.7231062880868405,0.0
1367,0.1852026880789906,0.0
1368,-0.03587187382804215,0.0
1369,-0.027777150602376566,0.0
1370,-0.03767086617547251,0.0
1371,0.06471573218181632,0.0
1372,-0.050657708905070986,0.0
1373,-0.039753058245615744,0.0
1374,-0.10315709485331487,0.0
1375,0.018442936135175433,0.0
1376,-0.08074241698928097,0.0
1377,-0.06499434042354545,0.0
1378,-0.004342843997435283,0.0
1379,-0.09261741693664972,0.0
1380,0.3389802812520652,0.0
1381,3.721752208094508,0.0
1382,6.771339260666642,0.0
1383,-0.6646319756255563,0.0
1384,-1.793849484293161,0.0
1385,1.4380179752976767,0.0
1386,-0.7875253620637741,0.0
1387,0.10815596520349126,0.0
1388,-0.03869758651037259,0.0
1389,-0.11522041205991584,0.0
1390,0.04121373512029576,0.0
1391,-0.01611442962183819,0.0
1392,0.012488444750214728,0.0
1393,-0.07940834930690167,0.0
1394,-0.009483536318516785,0.0
1395,0.02956285030800292,0.0
1396,-0.044997034239633873,0.0
1397,-0.05566895246739637,0.0
1398,-0.03657505927523928,0.0
1399,0.0789340696230223,0.0
1400,0.28206671038436976,0.0
1401,3.8093307996222343,0.0
1402,6.789119006073433,0.0
1403,-0.6610761111670375,0.0
1404,-1.7703677543081624,0.0
1405,1.5829634700895983,0.0
1406,-0.7022665575697717,0.0
1407,0.10631420143553102,0.0
1408,0.05089357826712952,0.0
1409,0.056182141196952466,0.0
1410,0.11112637262245799,0.0
1411,0.08496136390280845,0.0
1412,-0.007712817786845551,0.0
1413,0.006914017008442484,0.0
1414,0.09169034870105704,0.0
1415,0.034538172421304386,0.0
1416,-0.03849450244352961,0.0
1417,0.006943131608666674,0.0
1418,0.05982551931422887,0.0
1419,0.07036354144603735,0.0
1420,0.32684131339529837,0.0
1421,3.7674454451071506,0.0
1422,6.877206870325427,0.0
1423,-0.5567714428561322,0.0
1424,-1.6930101610602486,0.0
1425,1.4435581193154903,0.0
1426,-0.7916544517064097,0.0
1427,0.19262981423347367,0.0
1428,0.007947836540051061,0.0
1429,-0.05854885857845534,0.0
1430,-0.004947434574473095,0.0
1431,-0.005552986027906055,0.0
1432,0.04254187318463784,0.0
1433,0.019536028428447885,0.0
1434,-0.04103592249867729,0.0
1435,-0.07403948159406173,0.0
1436,-0.10734779525615927,0.0
1437,0.03299657655565602,0.0
1438,0.049214644749605095,0.0
1439,-0.03469416013134652,0.0
1440,0.29627629384118825,0.0
1441,3.7406704125317374,0.0
1442,6.804290138750404,0.0
1443,-0.6536501961343925,0.0
1444,-1.7443343105635187,0.0
1445,1.5537659456728117,0.0
1446,-0.8122078638225023,0.0
1447,0.207710990613645,0.0
1448,-0.07168363198183948,0.0
1449,-0.07192648554756093,0.0
1450,0.039839539495876916,0.0
1451,0.04090190723632038,0.0
1452,-0.04524065731432082,0.0
1453,0.01620800223863246,0.0
1454,-0.009474140389292438,0.0
1455,-0.06546335802079399,0.0
1456,-0.017743214829041613,0.0
1457,-0.005588539151214779,0.0
1458,-0.12573189019943426,0.0
1459,-0.011449155672632036,0.0
1460,0.2846441509486337,0.0
1461,3.896629956807512,0.0
1462,6.7508449586148185,0.0
1463,-0.697411926757311,0.0
1464,-1.8207328794517617,0.0
1465,1.4914479704638441,0.0
1466,-0.8751705525593173,0.0
1467,0.13108073519415608,0.0
1468,-0.04914844095328052,0.0
1469,-0.02176533182799932,0.0
1470,-0.05993603263585814,0.0
1471,0.0954929146079894,0.0
1472,0.00753549646838138,0.0
1473,-0.059670592207629936,0.0
1474,0.010027860090977291,0.0
1475,0.09861174285275368,0.0
1476,-0.04183084278698214,0.0
1477,-0.03266292546223523,0.0
1478,0.0978559490932691,0.0
1479,0.03317857288641658,0.0
1480,0.3729379154969258,0.0
1481,3.800323489610329,0.0
1482,6.835699422818916,0.0
1483,-0.675438322014561,0.0
1484,-1.5509742467213623,0.0
1485,1.4996106479521432,0.0
1486,-0.7660955690993924,0.0
1487,0.14452410489322495,0.0
1488,0.015786902240439715,0.0
1489,-0.08520934348556043,0.0
1490,-0.053191745720288106,0.0
1491,-0.025513134890827724,0.0
1492,0.002081297755796424,0.0
1493,-0.02015378107435684,0.0
1494,-0.05298868268594552,0.0
1495,-0.10536210983252534,0.0
1496,0.013896774149965319,0.0
1497,-0.012800427714431382,0.0
1498,-0.048599145560042974,0.0
1499,-0.01876393733031753,0.0
1500,0.2741276498812532,0.0
1501,3.704228887497738,0.0
1502,6.725059010145412,0.0
1503,-0.7093341441920746,0.0
1504,-1.8048680632292087,0.0
1505,1.4636054199269986,0.0
1506,-0.7621487377746174,0.0
1507,0.10989353926375464,0.0
1508,-0.027153888756777822,0.0
1509,-0.07347757116279731,0.0
1510,0.03221675130607886,0.0
1511,0.008403230914491192,0.0
1512,0.042848462888201,0.0
1513,-0.09768531600059836,0.0
1514,0.03175111082325846,0.0
1515,-0.03219238473577719,0.0
1516,0.010767007315269094,0.0
1517,-0.0019350120710694254,0.0
1518,-0.1104241966644429,0.0
1519,-0.052477098569668076,0.0
1520,0.26637614253532355,0.0
1521,3.6989878659339017,0.0
1522,6.757798747135573,0.0
1523,-0.6563985556044754,0.0
1524,-1.7424066084055254,0.0
1525,1.3930976991550628,0.0
1526,-0.8547424849603906,0.0
1527,0.18546747830334168,0.0
1528,-0.1364274858374817,0.0
1529,-0.11750173880137312,0.0
1530,-0.05767397332421346,0.0
1531,-0.11060443606709519,0.0
1532,-0.1243831616564214,0.0
1533,0.02883963796980847,0.0
1534,-0.07007803072473373,0.0
1535,-0.10650389579526981,0.0
1536,0.014378182364870276,0.0
1537,-0.07031106639168942,0.0
1538,0.05170391150874792,0.0
1539,0.0553320992900471,0.0
1540,0.3135791564360618,0.0
1541,3.823639514022528,0.0
1542,6.72425147267807,0.0
1543,-0.6807378236264787,0.0
1544,-1.713985417242465,0.0
1545,1.5595949615424438,0.0
1546,-0.791068765478054,0.0
1547,0.1865768644422112,0.0
1548,0.002394652548911427,0.0
1549,-0.09919889508296366,0.0
1550,-0.03746374091180823,0.0
1551,-0.03887058531626188,0.0
1552,0.007008415419981245,0.0
1553,-0.0033486883831916857,0.0
1554,-0.07207258303779829,0.0
1555,-0.0930078533049987,0.0
1556,0.04118416291405219,0.0
1557,-0.009680269747679016,0.0
1558,-0.041130626638372,0.0
1559,0.06281354818269129,0.0
1560,0.28415480483139866,0.0
1561,3.7359152719611735,0.0
1562,6.849194285979925,0.0
1563,-0.7124772820349203,0.0
1564,-1.7417612163512801,0.0
1565,1.462012537760671,0.0
1566,-0.72870875006863,0.0
1567,0.14797364285356676,0.0
1568,0.043616501561267125,0.0
1569,0.02951878042414431,0.0
1570,-0.09151805772119839,0.0
1571,0.02526990690734705,0.0
1572,-0.06534912979930323,0.0
1573,-0.051718229504568544,0.0
1574,-0.01217317646240381,0.0
1575,-0.0021724770259236963,0.0
1576,-0.017673786353869674,0.0
1577,-0.0427971727838047,0.0
1578,0.025815624417077902,0.0
1579,0.02437774578321111,0.0
1580,0.3077982796416942,0.0
1581,3.7011484541252666,0.0
1582,6.753436733018834,0.0
1583,-0.7536472421334373,0.0
1584,-1.637761018463543,0.0
1585,1.5626882696381612,0.0
1586,-0.6682818526617393,0.0
1587,0.19391784230047818,0.0
1588,0.0021321296740572093,0.0
1589,0.08063737978101707,0.0
1590,0.13460654854775678,0.0
1591,0.003500696963058658,0.0
1592,0.05588461757298062,0.0
1593,-0.012587807637029004,0.0
1594,0.06452602486199191,0.0
1595,-0.03148013840125036,0.0
1596,0.029808753341685205,0.0
1597,0.06456271279301636,0.0
1598,-0.022513498519713897,0.0
1599,-0.06863952994616598,0.0
1600,0.32130881538942324,0.0
1601,3.718334040711041,0.0
1602,6.706778708533136,0.0
1603,-0.7874418781511037,0.0
1604,-1.7117289715629367,0.0
1605,1.4713571867562858,0.0
1606,-0.8054913315068118,0.0
1607,0.11027791020939728,0.0
1608,-0.0895975953508734,0.0
1609,-0.07697602420881805,0.0
1610,0.01700497090434613,0.0
1611,-0.0362236353706681,0.0
1612,-0.022093258835213066,0.0
1613,0.029159257992819262,0.0
1614,0.023733206037039642,0.0
1615,-0.0265504836245749,0.0
1616,-0.025601171217355327,0.0
1617,-0.014382171129022667,0.0
1618,-0.048450149425395994,0.0
1619,-0.12745921035598748,0.0
1620,0.248539842508585,0.0
1621,3.705241715204262,0.0
1622,6.709621017958775,0.0
1623,-0.6992053917848181,0.0
1624,-1.7259850532562917,0.0
1625,1.5254360402971427,0.0
1626,-0.8074952602667687,0.0
1627,0.22209532236580962,0.0
1628,-0.0030826354846441514,0.0
1629,0.012524627211985252,0.0
1630,0.060919567755308546,0.0
1631,0.03209054816364699,0.0
1632,-0.05042153083456399,0.0
1633,-0.026473202083746115,0.0
1634,-0.017417379804671753,0.0
1635,0.05827425697821883,0.0
1636,0.12003553140957977,0.0
1637,0.007114439898398649,0.0
1638,-0.08479956871207758,0.0
1639,-0.012389315112782205,0.0
1640,0.30185062685378167,0.0
1641,3.649752952805582,0.0
1642,6.671797680077083,0.0
1643,-0.7256452811616371,0.0
1644,-1.8095168894633633,0.0
1645,1.5288580432143504,0.0
1646,-0.8064694587277228,0.0
1647,0.1453752450009046,0.0
1648,0.023238356524326646,0.0
1649,0.04156539360113137,0.0
1650,0.1366580714849923,0.0
1651,0.13303877534414393,0.0
1652,0.06239632106135159,0.0
1653,0.13125299461208761,0.0
1654,-0.017180668198331608,0.0
1655,-0.01514953259766829,0.0
1656,0.06626478067310834,0.0
1657,-0.0008735696806149856,0.0
1658,0.1511713976225506,0.0
1659,-0.003931329770407173,0.0
1660,0.3228575896002173,0.0
1661,3.937274661944325,0.0
1662,6.720027013115947,0.0
1663,-0.72144914113987,0.0
1664,-1.7177066331442905,0.0
1665,1.5943894266664045,0.0
1666,-0.6962187675091795,0.0
1667,0.2492803751585581,0.0
1668,0.002384602922655925,0.0
1669,-0.011790165178651897,0.0
1670,-0.10562733822680856,0.0
1671,-0.04656618513233916,0.0
1672,0.06903041668109489,0.0
1673,-0.015109655021561969,0.0
1674,0.019597469997765918,0.0
1675,-0.022629269471793008,0.0
1676,0.02435487905773834,0.0
1677,0.0715382593341366,0.0
1678,0.0403030525337808,0.0
1679,-0.022226083863440167,0.0
1680,0.4134618000103343,0.0
1681,3.931743824438863,0.0
1682,6.82295238492304,0.0
1683,-0.7557797734032434,0.0
1684,-1.5860389609760597,0.0
1685,1.4886096791211005,0.0
1686,-0.8038861172920536,0.0
1687,0.1835418974136517,0.0
1688,-0.04482386339199157,0.0
1689,-0.05893691420770456,0.0
1690,0.07733400404635847,0.0
1691,-0.06078114018859548,0.0
1692,-0.03956563143593773,0.0
1693,0.00650475699278146,0.0
1694,0.16502406401543987,0.0
1695,-0.09441107533166623,0.0
1696,0.12925080387341228,0.0
1697,0.050724036031716456,0.0
1698,0.032018580669833804,0.0
1699,0.01589899795061032,0.0
1700,0.36240653106894555,0.0
1701,3.925367898567006,0.0
1702,6.852867394549477,0.0
1703,-0.7433077767040398,0.0
1704,-1.5837185739871507,0.0
1705,1.5476252824338401,0.0
1706,-0.7403427117820256,0.0
1707,0.18264893544942676,0.0
1708,0.06955913057250802,0.0
1709,-0.03348303530739838,0.0
1710,0.07438616368483272,0.0
1711,-0.029465099782453937,0.0
1712,-0.03858013818527689,0.0
1713,0.10696905873001883,0.0
1714,0.03834341222111853,0.0
1715,0.03040023052090333,0.0
1716,0.0712465352059192,0.0
1717,0.06593760291865726,0.0
1718,0.04242113743298348,0.0
1719,0.08726108400656454,0.0
1720,0.3020845769338012,0.0
1721,3.8384423067561366,0.0
1722,6.8034338713732225,0.0
1723,-0.6476273513633927,0.0
1724,-1.5222660272893083,0.0
1725,1.5680614930951196,0.0
1726,-0.7590919989193053,0.0
1727,0.2625512809935508,0.0
1728,0.07139631665042288,0.0
1729,0.05996121436297089,0.0
1730,0.020594257780577333,0.0
1731,-0.09212711374185185,0.0
1732,0.08968798241437155,0.0
1733,0.05185819065456658,0.0
1734,0.0591755216399216,0.0
1735,0.05155535565691672,0.0
1736,-0.016771541271020034,0.0
1737,0.01737617949137492,0.0
1738,-0.018460013151202107,0.0
1739,0.00254700420366075,0.0
1740,0.3321273585192074,0.0
1741,3.8192722197569577,0.0
1742,6.814244055875163,0.0
1743,-0.6866668792663931,0.0
1744,-1.682507227108345,0.0
1745,1.487762362411615,0.0
1746,-0.6871893853856303,0.0
1747,0.21992346727670012,0.0
1748,0.012866312402110452,0.0
1749,-0.0619405285930917,0.0
1750,0.03566573916030491,0.0
1751,-0.0945363202253337,0.0
1752,0.07255746252837289,0.0
1753,0.038418815562540495,0.0
1754,0.041189289728287254,0.0
1755,-0.05369983720292879,0.0
1756,-0.023839858685489844,0.0
1757,0.0015594987967032514,0.0
1758,0.07322698072116043,0.0
1759,0.009450248700930183,0.0
1760,0.34429676339573023,0.0
1761,3.797655245186035,0.0
1762,6.815213817126,0.0
1763,-0.7433045015518103,0.0
1764,-1.6599900354311252,0.0
1765,1.4928879671227369,0.0
1766,-0.796295902644028,0.0
1767,0.21557828715315988,0.0
1768,0.03622217284885379,0.0
1769,-0.061912173342621786,0.0
1770,-0.13635695353156366,0.0
1771,-0.06226523861011287,0.0
1772,0.03217066472171098,0.0
1773,-0.011305444049175434,0.0
1774,-0.0763973899192774,0.0
1775,-0.014036305665430458,0.0
1776,0.025602494914369993,0.0
1777,-0.011881637171302278,0.0
1778,0.018622689392200936,0.0
1779,0.04555510057814342,0.0
1780,0.4310391498954615,0.0
1781,3.94059703481432,0.0
1782,6.851188455005913,0.0
1783,-0.7095788101879688,0.0
1784,-1.6350699433063092,0.0
1785,1.5874825049641363,0.0
1786,-0.5857790057263078,0.0
1787,0.26745075268452145,0.0
1788,0.17539647252623525,0.0
1789,-0.044475138604953335,0.0
1790,0.05274114027041217,0.0
1791,-0.07080845317879883,0.0
1792,-0.029248680178289917,0.0
1793,-0.010156159748763379,0.0
1794,-0.043960410008485336,0.0
1795,0.0036567210230885362,0.0
1796,-0.05303661809074634,0.0
1797,0.09986454752901872,0.0
1798,0.01645853355580061,0.0
1799,0.029951841924624325,0.0
1800,0.2646888965323095,0.0
1801,3.8611651850383213,0.0
1802,6.761424296642985,0.0
1803,-0.7377710782708061,0.0
1804,-1.533881904288328,0.0
1805,1.453163193353515,0.0
1806,-0.735568847028391,0.0
1807,0.20215391510740222,0.0
1808,-0.0015379902169990814,0.0
1809,-0.08072199265114671,0.0
1810,0.033392686744775815,0.0
1811,-0.02129145453422747,0.0
1812,0.061340384240489335,0.0
1813,-0.026029629338584874,0.0
1814,0.029840318279131726,0.0
1815,0.11628183971405401,0.0
1816,0.059923863956005526,0.0
1817,-0.01094774864658038,0.0
1818,0.03700584142359022,0.0
1819,-0.003897660498865127,0.0
1820,0.45176371356997613,0.0
1821,3.9884553896296744,0.0
1822,6.807896516623151,0.0
1823,-0.6871723878190765,0.0
1824,-1.5399688292596942,0.0
1825,1.5824154629311917,0.0
1826,-0.738818179340302,0.0
1827,0.325310938759682,0.0
1828,0.07724501643407197,0.0
1829,-0.006285681280140253,0.0
1830,0.019758452336779822,0.0
1831,0.08472491868438625,0.0
1832,0.05987053548858494,0.0
1833,0.06883880560003994,0.0
1834,0.04462399088869387,0.0
1835,0.047935409739066806,0.0
1836,0.06793926980804642,0.0
1837,0.01062131138352744,0.0
1838,0.04355543916963244,0.0
1839,0.11270165984373397,0.0
1840,0.3405920561812792,0.0
1841,3.8556977481039025,0.0
1842,6.729270003209762,0.0
1843,-0.7581429506228047,0.0
1844,-1.5401627738376191,0.0
1845,1.531180597482432,0.0
1846,-0.8019057117277113,0.0
1847,0.23401510183608965,0.0
1848,0.12561224848598782,0.0
1849,0.03725593939758105,0.0
1850,0.01399743945339204,0.0
1851,0.03249131463284929,0.0
1852,0.005153176828159536,0.0
1853,-0.05068212071626591,0.0
1854,0.013223517343186417,0.0
1855,0.0092960630583643,0.0
1856,-0.011553342679929003,0.0
1857,-0.04372506308645177,0.0
1858,-0.02550538387066984,0.0
1859,0.0026713052685075483,0.0
1860,0.41418650042801175,0.0
1861,3.9417230335342075,0.0
1862,6.684630224048761,0.0
1863,-0.7761650572350385,0.0
1864,-1.614600897280003,0.0
1865,1.5582337779268194,0.0
1866,-0.7592212146972899,0.0
1867,0.32340593238622695,0.0
1868,0.03391943920804659,0.0
1869,0.06439310897124301,0.0
1870,0.22170152383425168,0.0
1871,0.019586723451013567,0.0
1872,0.029847960444611556,0.0
1873,0.0438971118474316,0.0
1874,0.04669046735257956,0.0
1875,0.1080827147954565,0.0
1876,0.041810067499136745,0.0
1877,0.041065118708851295,0.0
1878,0.05793670650003124,0.0
1879,0.06552515803987746,0.0
1880,0.4772860307858845,0.0
1881,3.9109347353880026,0.0
1882,6.91018667631464,0.0
1883,-0.5919302286577727,0.0
1884,-1.4598606564121026,0.0
1885,1.478718113648802,0.0
1886,-0.7642513263669012,0.0
1887,0.2941647224245765,0.0
1888,0.031222798678406185,0.0
1889,0.10940760170023939,0.0
1890,0.045366537885527115,0.0
1891,0.00954933659237913,0.0
1892,0.08126474830033384,0.0
1893,0.022935247606069888,0.0
1894,0.07064534956473603,0.0
1895,0.03999541588386192,0.0
1896,0.012234013889062735,0.0
1897,-0.018769818378354813,0.0
1898,0.10218860069109198,0.0
1899,0.013768122966836951,0.0
1900,0.4181694380474318,0.0
1901,3.911194499184355,0.0
1902,6.848272109266014,0.0
1903,-0.6612172751857197,0.0
1904,-1.6540570630570586,0.0
1905,1.587536575016822,0.0
1906,-0.6610200874650882,0.0
1907,0.2639323747595123,0.0
1908,0.08165625654758189,0.0
1909,0.05614851360583566,0.0
1910,0.1784028155282472,0.0
1911,0.0032913440181295966,0.0
1912,0.051167498929044736,0.0
1913,0.05110250960457342,0.0
1914,0.041510059890217714,0.0
1915,0.07176595703110991,0.0
1916,0.1367254031393552,0.0
1917,0.12073358318217542,0.0
1918,-0.012308536962568728,0.0
1919,0.16959792114443273,0.0
1920,0.4398480865009008,0.0
1921,3.908933127149343,0.0
1922,6.813954991247825,0.0
1923,-0.6632518443400658,0.0
1924,-1.5997529371950436,0.0
1925,1.5670003270651545,0.0
1926,-0.6486102317333605,0.0
1927,0.3352484262877803,0.0
1928,0.02622505733961096,0.0
1929,0.10862507685607725,0.0
1930,0.13150691899248654,0.0
1931,0.054813340347265295,0.0
1932,0.055669832604670025,0.0
1933,0.16710994597015263,0.0
1934,0.09430884121761493,0.0
1935,0.09125790480499434,0.0
1936,0.13582942655055175,0.0
1937,0.07916174522799703,0.0
1938,0.07391161979145225,0.0
1939,0.13955666853862794,0.0
1940,0.41554547677075776,0.0
1941,3.983971537452963,0.0
1942,6.783859122860383,0.0
1943,-0.752511442602723,0.0
1944,-1.5970236978236882,0.0
1945,1.4893434174825821,0.0
1946,-0.7360773447504837,0.0
1947,0.3021924369407862,0.0
1948,0.04565577666049309,0.0
1949,0.05644488145099998,0.0
1950,0.07705171660738538,0.0
1951,0.027046855943673478,0.0
1952,0.08670725789050006,0.0
1953,0.012595824227894327,0.0
1954,0.065210868720714,0.0
1955,0.004192107389370758,0.0
1956,-0.048053294124922895,0.0
1957,-0.021510111370063548,0.0
1958,0.13256849154554617,0.0
1959,0.0580452901137166,0.0
1960,0.36959837511169114,0.0
1961,4.001521249622187,0.0
1962,6.806640005706988,0.0
1963,-0.6769828497641414,0.0
1964,-1.5806749403287796,0.0
1965,1.5214415606893263,0.0
1966,-0.8087740510512413,0.0
1967,0.287731332544784,0.0
1968,0.15435165628294584,0.0
1969,-0.04185146625758482,0.0
1970,0.03854836552522275,0.0
1971,0.00627856162027967,0.0
1972,0.09922847739645124,0.0
1973,0.034823584586115876,0.0
1974,0.09346846037998163,0.0
1975,0.10422697781188425,0.0
1976,0.0011392979728768043,0.0
1977,-0.01824049245935728,0.0
1978,0.0815882082236187,0.0
1979,0.07249400509417554,0.0
1980,0.48653428895689155,0.0
1981,3.9266044899472514,0.0
1982,6.811111532071349,0.0
1983,-0.7463629038525817,0.0
1984,-1.612097990667253,0.0
1985,1.6630096862988013,0.0
1986,-0.6888967922960028,0.0
1987,0.29534491387753103,0.0
1988,0.16801113232797465,0.0
1989,-0.04937698504490237,0.0
1990,0.10812941073617136,0.0
1991,0.07878158305148256,0.0
1992,0.10224713075579331,0.0
1993,0.19253457919884376,0.0
1994,0.014411660909913707,0.0
1995,0.10986934851103432,0.0
1996,0.10479525102322867,0.0
1997,0.1532061564916074,0.0
1998,0.042999276582181535,0.0
1999,0.131272442236346,0.0
2000,0.4626281360265087,0.0
2001,3.9599656012964024,0.0
2002,6.870735129523693,0.0
2003,-0.7569377465156875,0.0
2004,-1.474205357900903,0.0
2005,1.5278294000985961,0.0
2006,-0.8479948829301496,0.0
2007,0.3190955235249776,0.0
2008,-0.018732698267154707,0.0
2009,0.05270795693680518,0.0
2010,0.12400381338886665,0.0
2011,0.017250797585233194,0.0
2012,0.14381208734231354,0.0
2013,0.022646307821655588,0.0
2014,0.05919874531232051,0.0
2015,0.0918069064685059,0.0
2016,0.03411100088588738,0.0
2017,0.0603679486603482,0.0
2018,0.08315826464871241,0.0
2019,0.12589619718778067,0.0
2020,0.3747956812189182,0.0
2021,3.9099055441767026,0.0
2022,6.7522806918021,0.0
2023,-0.7249559679585834,0.0
2024,-1.6167768896876358,0.0
2025,1.565290938711166,0.0
2026,-0.7112535005099052,0.0
2027,0.2314336035322825,0.0
2028,0.07220164482892252,0.0
2029,0.07945898642894297,0.0
2030,0.038022032844653095,0.0
2031,0.06829070233035445,0.0
2032,0.11114985650567637,0.0
2033,-0.0016549702429469876,0.0
2034,0.06542072403510928,0.0
2035,0.04542264074796964,0.0
2036,0.10711292260927127,0.0
2037,0.046039347845931604,0.0
2038,-0.017524150911125802,0.0
2039,-0.03337875025268369,0.0
2040,0.353260634852081,0.0
2041,3.860216867445151,0.0
2042,6.685240330641509,0.0
2043,-0.8358974305383513,0.0
2044,-1.6329747790650395,0.0
2045,1.5551767350399304,0.0
2046,-0.7170704746479535,0.0
2047,0.22700510676451097,0.0
2048,0.1400074849444283,0.0
2049,0.04128064033240954,0.0
2050,0.07861226863815285,0.0
2051,0.056296325845667336,0.0
2052,0.0427737843911269,0.0
2053,0.055093909740017336,0.0
2054,0.09642590760746249,0.0
2055,0.0710120803053473,0.0
2056,0.0826859507959105,0.0
2057,0.049874688847576246,0.0
2058,0.05705136929654157,0.0
2059,7.964713399875173e-05,0.0
2060,0.411169096131224,0.0
2061,4.0076603840923894,0.0
2062,6.803334178528091,0.0
2063,-0.7662279259594735,0.0
2064,-1.6324206712123825,0.0
2065,1.4915095669243206,0.0
2066,-0.6926433925268328,0.0
2067,0.16393436840628545,0.0
2068,0.0658670110033855,0.0
2069,-0.04914841081986261,0.0
2070,0.06255118023428972,0.0
2071,0.060196143858989956,0.0
2072,0.15895855238349021,0.0
2073,0.1415483744488664,0.0
2074,0.04442111037362405,0.0
2075,-0.0016854530782832791,0.0
2076,0.10623857820645352,0.0
2077,0.09824802058644355,0.0
2078,0.0333331975595549,0.0
2079,0.11387993916316067,0.0
2080,0.35974480206438214,0.0
2081,4.000044442899713,0.0
2082,6.741489745856184,0.0
2083,-0.813943339391892,0.0
2084,-1.6491327426759173,0.0
2085,1.4626334309684863,0.0
2086,-0.7437726761778821,0.0
2087,0.16663572902866505,0.0
2088,0.014517184345143068,0.0
2089,-0.0382430743952059,0.0
2090,0.030540060074742276,0.0
2091,-0.05500624392480321,0.0
2092,0.03698816827436058,0.0
2093,0.05117005757597782,0.0
2094,0.09636409918233219,0.0
2095,0.10510057318134239,0.0
2096,0.15371469552472766,0.0
2097,0.04114959018373821,0.0
2098,0.008832474014119851,0.0
2099,0.00989060365418562,0.0
2100,0.47750585924257677,0.0
2101,4.001222843177844,0.0
2102,6.834180176708095,0.0
2103,-0.734931036044746,0.0
2104,-1.4407947427859775,0.0
2105,1.5284663323428456,0.0
2106,-0.6846228110622917,0.0
2107,0.26548448478034126,0.0
2108,0.08356254557222757,0.0
2109,0.0342385857928548,0.0
2110,0.10909807898596084,0.0
2111,0.17373758572732256,0.0
2112,0.06113849893216028,0.0
2113,0.0679090838775965,0.0
2114,0.03792048038193359,0.0
2115,0.05604309108208036,0.0
2116,0.07807625780758873,0.0
2117,0.0537466103301707,0.0
2118,0.04214541981767621,0.0
2119,0.06414491708203746,0.0
2120,0.4771432309085294,0.0
2121,3.964779349925027,0.0
2122,6.780157286622286,0.0
2123,-0.8443770519219302,0.0
2124,-1.4841264718196252,0.0
2125,1.4881703154865822,0.0
2126,-0.6718459069669094,0.0
2127,0.17453819386249075,0.0
2128,0.0780527335623892,0.0
2129,-0.06038950283503751,0.0
2130,0.04065935186841492,0.0
2131,0.010005728329833026,0.0
2132,0.0952088500966039,0.0
2133,0.05662400008183034,0.0
2134,0.022535518066918905,0.0
2135,-0.034709173631526875,0.0
2136,0.1116120173635584,0.0
2137,0.06329908023947803,0.0
2138,0.10732952229956844,0.0
2139,0.09107116519595664,0.0
2140,0.35800519736986613,0.0
2141,4.0042757072403266,0.0
2142,6.81319879872417,0.0
2143,-0.7685000270613349,0.0
2144,-1.4683254881896886,0.0
2145,1.5280910907492125,0.0
2146,-0.676384255626795,0.0
2147,0.2040725369425242,0.0
2148,0.11722947375980886,0.0
2149,-0.05472902233348616,0.0
2150,0.07250089654977179,0.0
2151,0.04271594302790694,0.0
2152,-0.019904218445121226,0.0
2153,0.08347564366617702,0.0
2154,0.09960065667624085,0.0
2155,0.05947387423450186,0.0
2156,0.05104441428926844,0.0
2157,-0.005591351214017451,0.0
2158,0.1290800919281721,0.0
2159,0.05396661725074706,0.0
2160,0.35652089807712384,0.0
2161,3.904426229083786,0.0
2162,6.719288516661733,0.0
2163,-0.7486586063729727,0.0
2164,-1.6763067245717698,0.0
2165,1.4218711477925223,0.0
2166,-0.705453475141854,0.0
2167,0.20332115064649106,0.0
2168,0.002332436818119947,0.0
2169,-0.032974634297979685,0.0
2170,-0.03890301689531843,0.0
2171,-0.01465134059059774,0.0
2172,0.09946339702738784,0.0
2173,0.029212378567678207,0.0
2174,0.08296607343693162,0.0
2175,0.010452407052996073,0.0
2176,0.058435688666556074,0.0
2177,0.029425199876545804,0.0
2178,0.03516804503073508,0.0
2179,0.04667503341031972,0.0
2180,0.43526118522272844,0.0
2181,3.99133957065943,0.0
2182,6.74588760374537,0.0
2183,-0.824069622324446,0.0
2184,-1.5035081160986363,0.0
2185,1.4301664732016235,0.0
2186,-0.6910139502568228,0.0
2187,0.3366671047472254,0.0
2188,0.08210470206839146,0.0
2189,-0.03530500574204982,0.0
2190,0.060593948956807676,0.0
2191,0.062194787322214395,0.0
2192,0.03871683528007706,0.0
2193,0.1326253629454031,0.0
2194,0.10207147965276778,0.0
2195,0.1003476167367893,0.0
2196,0.09178335473438612,0.0
2197,0.048362245514665204,0.0
2198,0.07531442306386309,0.0
2199,0.0387916318360919,0.0
2200,0.4016127320906521,0.0
2201,3.9346777895981973,0.0
2202,6.7730684541711,0.0
2203,-0.8234280741783013,0.0
2204,-1.552517325510621,0.0
2205,1.556677080481618,0.0
2206,-0.7653091623151917,0.0
2207,0.19105705419284216,0.0
2208,0.0562154498710319,0.0
2209,-0.06440099951589376,0.0
2210,-0.011398470572355584,0.0
2211,-0.10256645896071095,0.0
2212,-0.025105274511173635,0.0
2213,-0.018206240919938235,0.0
2214,-0.030312548635440528,0.0
2215,-0.01915308019005465,0.0
2216,-0.03156293302342725,0.0
2217,-0.0056221231747202,0.0
2218,0.021650908120989687,0.0
2219,0.07608116427315154,0.0
2220,0.3488201762301676,0.0
2221,4.022104589867846,0.0
2222,6.751411719089728,0.0
2223,-0.7886530775532542,0.0
2224,-1.6535376963614543,0.0
2225,1.538094869666142,0.0
2226,-0.6351349127133936,0.0
2227,0.3076689395485796,0.0
2228,0.018612508741476894,0.0
2229,-0.02430372881074916,0.0
2230,0.09457009080702988,0.0
2231,-0.021310726604009365,0.0
2232,-0.0313252903902529,0.0
2233,0.07702243932493152,0.0
2234,0.08086151643993755,0.0
2235,0.018712393527241154,0.0
2236,0.15670374092073555,0.0
2237,0.057139942569884083,0.0
2238,0.033583646405699115,0.0
2239,-0.06108469858213077,0.0
2240,0.3980981216002712,0.0
2241,3.8072355832294025,0.0
2242,6.710533832620018,0.0
2243,-0.9087598471218487,0.0
2244,-1.5458641952424352,0.0
2245,1.4122830087093348,0.0
2246,-0.7059610628530819,0.0
2247,0.214356354585309,0.0
2248,0.1211860236596958,0.0
2249,0.028927941307619318,0.0
2250,-0.04914813794579617,0.0
2251,-0.040278614993148984,0.0
2252,-0.06109532168515905,0.0
2253,-0.035618769487172075,0.0
2254,0.05141045736142178,0.0
2255,-0.03633531155480815,0.0
2256,-0.03800043304601545,0.0
2257,-0.024146932330727837,0.0
2258,-0.01369304498377083,0.0
2259,0.052505009573620115,0.0
2260,0.4889137196280495,0.0
2261,3.900224278056015,0.0
2262,6.735268992682454,0.0
2263,-0.8910307777458549,0.0
2264,-1.5832146230579354,0.0
2265,1.4582124462770583,0.0
2266,-0.6718734918749355,0.0
2267,0.1899996663181412,0.0
2268,0.05698962972716255,0.0
2269,-0.10583749102097226,0.0
2270,0.06721715700348396,0.0
2271,0.1543078568900642,0.0
2272,-0.06394619279754801,0.0
2273,0.10273926464525833,0.0
2274,0.1027967289529263,0.0
2275,0.04246948722037339,0.0
2276,0.08704765772599493,0.0
2277,-0.022104266720966995,0.0
2278,0.03154150179635042,0.0
2279,-0.013254155437746145,0.0
2280,0.377871182945766,0.0
2281,3.934110142573357,0.0
2282,6.652385353000323,0.0
2283,-0.8395176955717951,0.0
2284,-1.6127069999046721,0.0
2285,1.531654948110277,0.0
2286,-0.7460408420303222,0.0
2287,0.28437290322109543,0.0
2288,0.0024755374527251975,0.0
2289,0.030315292310712578,0.0
2290,-0.027811919238900196,0.0
2291,-0.054480266213870226,0.0
2292,0.06615694579370256,0.0
2293,0.042387241476812665,0.0
2294,0.09801090528197298,0.0
2295,-0.03270399839778206,0.0
2296,0.017281449414118397,0.0
2297,0.005877862761065873,0.0
2298,-0.029258866183148227,0.0
2299,0.03938516271487051,0.0
2300,0.23437250322651193,0.0
2301,3.8665058693585213,0.0
2302,6.684690182562567,0.0
2303,-0.8075981305322463,0.0
2304,-1.6139388418998988,0.0
2305,1.481208569733581,0.0
2306,-0.7364328253651816,0.0
2307,0.17694016982905236,0.0
2308,-0.02947404890061798,0.0
2309,0.012039614688425137,0.0
2310,-0.0527581820555744,0.0
2311,0.0153650740953261,0.0
2312,0.057603366392125176,0.0
2313,0.0031338253673273628,0.0
2314,0.1729082065660426,0.0
2315,0.06020289934061014,0.0
2316,0.14880978549823454,0.0
2317,-0.030865653621135733,0.0
2318,0.029670239252438557,0.0
2319,0.005596428357268708,0.0
2320,0.34700768746033217,0.0
2321,3.9710409877900372,0.0
2322,6.589904233412759,0.0
2323,-0.8605222846931495,0.0
2324,-1.592963054265014,0.0
2325,1.5153247979224183,0.0
2326,-0.8416277113285763,0.0
2327,0.184312636000984,0.0
2328,-0.12099052494579562,0.0
2329,-0.08663723126147163,0.0
2330,0.037420228277670754,0.0
2331,-0.01645189121288156,0.0
2332,-0.0037777509184202945,0.0
2333,0.0806649790039248,0.0
2334,-0.03988045655775074,0.0
2335,0.0019460413814899897,0.0
2336,0.06560143719402309,0.0
2337,-0.006049312416936999,0.0
2338,0.04584561816850425,0.0
2339,0.07911815793919033,0.0
2340,0.42367996202995717,0.0
2341,3.9138589656425213,0.0
2342,6.721291400773499,0.0
2343,-0.8776426098597071,0.0
2344,-1.5047990721831899,0.0
2345,1.3336444342103464,0.0
2346,-0.7945326963581434,0.0
2347,0.13503566986249296,0.0
2348,-0.07890900576261207,0.0
2349,-0.04119928146231324,0.0
2350,-0.05996420970178389,0.0
2351,-0.044317753978338384,0.0
2352,0.038436333195171916,0.0
2353,0.0030052732770037525,0.0
2354,-0.0072623462598689695,0.0
2355,-0.01697610119345325,0.0
2356,0.01863733634454895,0.0
2357,-0.04481710351478969,0.0
2358,-0.017191078620499317,0.0
2359,-0.04265514380996626,0.0
2360,0.3529661343828352,0.0
2361,3.98335003481205,0.0
2362,6.646960172519902,0.0
2363,-0.9546402513823563,0.0
2364,-1.5999541586006,0.0
2365,1.4473881024268265,0.0
2366,-0.73149840046112,0.0
2367,0.2819340462684288,0.0
2368,-0.038740136260084684,0.0
2369,-0.01991865859381231,0.0
2370,-0.00962257941797473,0.0
2371,-0.020134838790620967,0.0
2372,0.09989854216957335,0.0
2373,-0.026282893472211286,0.0
2374,0.11796702506636872,0.0
2375,0.07945703087076891,0.0
2376,-0.07997204007479901,0.0
2377,0.04800504864488611,0.0
2378,-0.01693207675445517,0.0
2379,0.08109875080356213,0.0
2380,0.33100783826864266,0.0
2381,3.9200460992062656,0.0
2382,6.654749414118779,0.0
2383,-0.8960077584772271,0.0
2384,-1.5060925532760756,0.0
2385,1.4029726706912964,0.0
2386,-0.7178782019794069,0.0
2387,0.2053275164385178,0.0
2388,0.03168384944919661,0.0
2389,-0.053051671144587684,0.0
2390,0.008497475788674984,0.0
2391,-0.004805962652413696,0.0
2392,0.11972921477797646,0.0
2393,-0.04187665911004361,0.0
2394,-0.03962641881266854,0.0
2395,0.022092990493615836,0.0
2396,-0.029400079334227027,0.0
2397,0.043304962975922776,0.0
2398,0.056691864603815575,0.0
2399,-0.018424202167326882,0.0
2400,0.49714541149111924,0.0
2401,3.92320770402502,0.0
2402,6.778726618607261,0.0
2403,-0.8528835381865081,0.0
2404,-1.592988113038444,0.0
2405,1.5410907974160621,0.0
2406,-0.7313264983932513,0.0
2407,0.163945007264088,0.0
2408,0.08243428363294514,0.0
2409,-0.007396220407654076,0.0
2410,-0.023035344956247317,0.0
2411,0.00026276038887385837,0.0
2412,0.045724813941566744,0.0
2413,0.0745112706462409,0.0
2414,-0.02762259789060047,0.0
2415,0.005433957875230205,0.0
2416,0.03637596158424871,0.0
2417,0.023432619302814275,0.0
2418,0.07148103241020524,0.0
2419,0.03314237179039484,0.0
2420,0.37526183670161867,0.0
2421,3.9824999573367466,0.0
2422,6.737415162361539,0.0
2423,-0.9222072995765006,0.0
2424,-1.5830693966170142,0.0
2425,1.536114566816861,0.0
2426,-0.7931224738626672,0.0
2427,0.22580574369871878,0.0
2428,0.026499876777689804,0.0
2429,0.03014241655554679,0.0
2430,0.10507292862255305,0.0
2431,0.08181018014373642,0.0
2432,0.09627720350109187,0.0
2433,0.08840117822066222,0.0
2434,0.12883842786987268,0.0
2435,-0.052743189547017975,0.0
2436,-0.06262194517367478,0.0
2437,0.01114230498551507,0.0
2438,0.015137224086503958,0.0
2439,-0.02053877101113003,0.0
2440,0.32146835803472484,0.0
2441,3.9094709952989257,0.0
2442,6.686505317679915,0.0
2443,-0.9185098963685961,0.0
2444,-1.5352975517763772,0.0
2445,1.4278511864233414,0.0
2446,-0.8242183190771384,0.0
2447,0.19579884663837518,0.0
2448,-0.012177986184690157,0.0
2449,-0.053859158205987634,0.0
2450,0.08134673492648227,0.0
2451,0.06538540036148122,0.0
2452,-0.03957456087028423,0.0
2453,0.0425405318486658,0.0
2454,0.11312500465487044,0.0
2455,0.07168940811300174,0.0
2456,0.018864851153129178,0.0
2457,0.11996708180094232,0.0
2458,-0.012590119289768272,0.0
2459,0.031105175044564063,0.0
2460,0.4119958214318637,0.0
2461,3.960080391176437,0.0
2462,6.739801155353046,0.0
2463,-0.8859873312599676,0.0
2464,-1.4766620217248794,0.0
2465,1.4779090513108935,0.0
2466,-0.7865912761844565,0.0
2467,0.18170740354958828,0.0
2468,0.026897490281830243,0.0
2469,-0.15537332443500115,0.0
2470,-0.02228562233981142,0.0
2471,0.02464118090054143,0.0
2472,0.02511927972854763,0.0
2473,-0.02721971379322093,0.0
2474,-0.009443186294147858,0.0
2475,-0.0184210862716808,0.0
2476,-0.02202449156604453,0.0
2477,-0.0059314572141969425,0.0
2478,0.0032783761389604572,0.0
2479,-0.006955952892400947,0.0
2480,0.40714415326150455,0.0
2481,3.9465286051554385,0.0
2482,6.797631460900587,0.0
2483,-0.9406877964955892,0.0
2484,-1.522511922532631,0.0
2485,1.4908127191479754,0.0
2486,-0.8785932495412102,0.0
2487,0.1977053242884892,0.0
2488,0.0018180028775710393,0.0
2489,-0.0897258250412359,0.0
2490,-0.04092725240164653,0.0
2491,-0.01226686394770455,0.0
2492,0.020486452043412803,0.0
2493,-0.04147101675523596,0.0
2494,-0.0027621161379404414,0.0
2495,0.039734473461848156,0.0
2496,0.042293881651692455,0.0
2497,-0.030067532836225416,0.0
2498,-0.029854161113001473,0.0
2499,-0.09921465451608029,0.0
2500,0.3963547042424124,0.0
2501,4.000715427724432,0.0
2502,6.630293634245876,0.0
2503,-0.8901485425305415,0.0
2504,-1.5556376443767974,0.0
2505,1.442673542427411,0.0
2506,-0.7670350469341395,0.0
2507,0.24005112402141787,0.0
2508,-0.1318062921174456,0.0
2509,-0.002811995553743958,0.0
2510,0.0038111312799470175,0.0
2511,0.0881151986941861,0.0
2512,0.013197241324280969,0.0
2513,-0.04217621437645425,0.0
2514,-0.12158659068105052,0.0
2515,-0.04157220088217731,0.0
2516,-0.013496329563009515,0.0
2517,0.01283263325481743,0.0
2518,0.024173479321069717,0.0
2519,0.048735235858672635,0.0
2520,0.3477947262294138,0.0
2521,3.9389643255590796,0.0
2522,6.604537350660685,0.0
2523,-1.0090094971215726,0.0
2524,-1.546959594688254,0.0
2525,1.5201013674670707,0.0
2526,-0.8032098630065332,0.0
2527,0.18038324939271416,0.0
2528,-0.05410591407422326,0.0
2529,0.012037249773718374,0.0
2530,0.05498282578970331,0.0
2531,-0.049132575611692,0.0
2532,-0.015259572830088098,0.0
2533,0.09199159961163955,0.0
2534,-0.06780416696832725,0.0
2535,-0.04683624459967943,0.0
2536,-0.035503544865827005,0.0
2537,-0.012948284485265249,0.0
2538,-0.10061669872986775,0.0
2539,-0.07652666135937167,0.0
2540,0.3340696452190843,0.0
2541,4.000345322173436,0.0
2542,6.635265193953152,0.0
2543,-0.9298173280243751,0.0
2544,-1.5184571923208314,0.0
2545,1.4877976320406376,0.0
2546,-0.7860510942637137,0.0
2547,0.23419915444325026,0.0
2548,-0.028878914010858455,0.0
2549,-0.020407808310418538,0.0
2550,-0.0019846593548237274,0.0
2551,-0.07056548505670052,0.0
2552,0.006409140628292119,0.0
2553,-0.012238952990573034,0.0
2554,0.009101015390748217,0.0
2555,0.09926335890758498,0.0
2556,-0.026066118733382024,0.0
2557,-0.03497808958869103,0.0
2558,0.016623925547460953,0.0
2559,-0.0030142759418798227,0.0
2560,0.3392613067211926,0.0
2561,4.023987834165577,0.0
2562,6.633503349395244,0.0
2563,-0.9011981826934392,0.0
2564,-1.4428098509960097,0.0
2565,1.5145810851268118,0.0
2566,-0.6866046342603244,0.0
2567,0.27662383311771155,0.0
2568,0.021905256108208288,0.0
2569,0.01304691874906377,0.0
2570,-0.018861431976176637,0.0
2571,-0.02301852047762856,0.0
2572,-0.052638335398338384,0.0
2573,-0.04460185973738188,0.0
2574,0.06815386832744165,0.0
2575,-0.02881498497841265,0.0
2576,0.01642988113848159,0.0
2577,-0.04199372495698614,0.0
2578,0.025786945990328113,0.0
2579,-0.05738347263133336,0.0
2580,0.36440572357762174,0.0
2581,3.93029052506683,0.0
2582,6.674455903228335,0.0
2583,-0.9372526721375158,0.0
2584,-1.5850669194315403,0.0
2585,1.3735753782372258,0.0
2586,-0.8166930275429344,0.0
2587,0.17330721320578404,0.0
2588,0.004933756331025791,0.0
2589,-0.02020399905050685,0.0
2590,0.07373457028417421,0.0
2591,0.07920840163720404,0.0
2592,0.04580213240268788,0.0
2593,0.06792773792916053,0.0
2594,-0.03259036524485315,0.0
2595,0.02182870494997091,0.0
2596,-0.04445459196237109,0.0
2597,-0.025437915361936278,0.0
2598,-0.02368820546905345,0.0
2599,0.04714862705288464,0.0
2600,0.4405063065578184,0.0
2601,3.929973335046954,0.0
2602,6.631358894027934,0.0
2603,-1.0202959603341337,0.0
2604,-1.6187986034644881,0.0
2605,1.4808036910588904,0.0
2606,-0.7820489057777001,0.0
2607,0.15500135722746564,0.0
2608,-0.0670166147283719,0.0
2609,-0.10607123281998256,0.0
2610,0.00231671889393463,0.0
2611,-0.011258729082459694,0.0
2612,-0.08728691259389733,0.0
2613,-0.021542579674380422,0.0
2614,-0.05746512022052328,0.0
2615,0.05831669055446323,0.0
2616,-0.05794664611752281,0.0
2617,-0.060809182265880835,0.0
2618,0.05453417843127495,0.0
2619,-0.06068987966482945,0.0
2620,0.4532001700762853,0.0
2621,3.9618511754965753,0.0
2622,6.757599504587164,0.0
2623,-1.0188428722654241,0.0
2624,-1.3774071376214978,0.0
2625,1.4622680035638185,0.0
2626,-0.7400264047756403,0.0
2627,0.23567673973557104,0.0
2628,0.06215370021653591,0.0
2629,0.026112782255315395,0.0
2630,0.061805964575057215,0.0
2631,-0.03383681956473222,0.0
2632,0.06858422008406523,0.0
2633,-0.0024523925294203577,0.0
2634,0.0827576718025384,0.0
2635,-0.0018042394816747322,0.0
2636,-0.014354492147472007,0.0
2637,0.012457892001589213,0.0
2638,-0.0046802240010841685,0.0
2639,-0.03933268427953098,0.0
2640,0.34576460332344333,0.0
2641,4.009080735389861,0.0
2642,6.713848282269982,0.0
2643,-0.9394109693672527,0.0
2644,-1.501149989739889,0.0
2645,1.4622218818966115,0.0
2646,-0.8445572663286125,0.0
2647,0.22176324005796177,0.0
2648,-0.029833144879220286,0.0
2649,-0.06962955676321403,0.0
2650,-0.0009256274253415138,0.0
2651,-0.00029585323451062837,0.0
2652,0.017422931407958326,0.0
2653,0.01362278067882489,0.0
2654,0.034911647711153064,0.0
2655,-0.014852208338278099,0.0
2656,0.026802096536300717,0.0
2657,-0.0001774424831941352,0.0
2658,0.040373445494466684,0.0
2659,0.047497289987843964,0.0
2660,0.4410519685935986,0.0
2661,3.9646325539007576,0.0
2662,6.616490756459921,0.0
2663,-1.0587089938689098,0.0
2664,-1.4958719263620155,0.0
2665,1.512682093218976,0.0
2666,-0.6810637244005986,0.0
2667,0.27998183972189167,0.0
2668,0.09674178163803392,0.0
2669,0.08848498728120949,0.0
2670,0.014477342596489237,0.0
2671,-0.0010853374669778232,0.0
2672,0.12635917664975668,0.0
2673,0.08289347732341604,0.0
2674,-0.023206601663513786,0.0
2675,-0.014027460908126267,0.0
2676,0.09723151698375113,0.0
2677,0.025564251482874854,0.0
2678,0.040204607616886996,0.0
2679,-0.004256346497246329,0.0
2680,0.40160611857923334,0.0
2681,3.9690573189576854,0.0
2682,6.621461932677095,0.0
2683,-1.0148359362612425,0.0
2684,-1.632803996357975,0.0
2685,1.3871045051913495,0.0
2686,-0.747289193094889,0.0
2687,0.22450611608589044,0.0
2688,0.00784225625499057,0.0
2689,-0.0980353144674572,0.0
2690,0.12238654973135797,0.0
2691,-0.06588022406607028,0.0
2692,-0.009766193950275106,0.0
2693,0.11179071365282685,0.0
2694,0.07826705894800784,0.0
2695,0.056253514761443905,0.0
2696,0.034344356404836296,0.0
2697,-0.10413578251730332,0.0
2698,0.13994270315699753,0.0
2699,0.11776781954616491,0.0
2700,0.5152622991627074,0.0
2701,3.9992547820293636,0.0
2702,6.667883886187245,0.0
2703,-0.8643318555319696,0.0
2704,-1.4569141717743361,0.0
2705,1.5531993097924717,0.0
2706,-0.7036059516149661,0.0
2707,0.21952438510775724,0.0
2708,-0.02779061809785103,0.0
2709,-0.08054842099748455,0.0
2710,0.045809832913880744,0.0
2711,-0.022049722548683787,0.0
2712,0.010499521935892372,0.0
2713,0.0942834807372982,0.0
2714,-0.06883945711959678,0.0
2715,0.018570350278079097,0.0
2716,-0.09209660376927731,0.0
2717,0.01268858903185506,0.0
2718,0.044036227176142084,0.0
2719,-0.051032293049007395,0.0
2720,0.32330561951090847,0.0
2721,3.937885599038434,0.0
2722,6.556694071604284,0.0
2723,-0.9852341807673309,0.0
2724,-1.5228585878506764,0.0
2725,1.4369450996563777,0.0
2726,-0.7793573233249896,0.0
2727,0.17528370423008635,0.0
2728,0.0053866726981149846,0.0
2729,-0.07791187963000866,0.0
2730,-0.011407629724832639,0.0
2731,-0.020859170181735533,0.0
2732,-0.12490848644225047,0.0
2733,0.04854167773922836,0.0
2734,-0.052416876688773796,0.0
2735,-0.076660941782065,0.0
2736,0.042670729225948154,0.0
2737,0.06101612541331648,0.0
2738,-0.08216310496297718,0.0
2739,-0.030863899820430404,0.0
2740,0.39128131108155906,0.0
2741,3.9228773046828294,0.0
2742,6.63566800690569,0.0
2743,-0.995105528510389,0.0
2744,-1.4325913443764873,0.0
2745,1.5246278979392778,0.0
2746,-0.6786550548205554,0.0
2747,0.19057020718918335,0.0
2748,-0.027177222374893,0.0
2749,-0.04277276041302875,0.0
2750,0.06909085881586305,0.0
2751,-0.058355443247420036,0.0
2752,-0.009359981826637514,0.0
2753,-0.027669325197430927,0.0
2754,0.018407101702434255,0.0
2755,0.05093822179470489,0.0
2756,-0.041056277216276804,0.0
2757,-0.025361759042493378,0.0
2758,0.08530783380302,0.0
2759,-0.04993435764369716,0.0
2760,0.3873302979083513,0.0
2761,3.9473162927691448,0.0
2762,6.647257753211039,0.0
2763,-1.037548276299679,0.0
2764,-1.5750881340536773,0.0
2765,1.5323165286168423,0.0
2766,-0.782651368795586,0.0
2767,0.21069420588628762,0.0
2768,-0.03413432643498707,0.0
2769,-0.07204490789791532,0.0
2770,0.01532570129464782,0.0
2771,0.04385444538096272,0.0
2772,0.06341698291837389,0.0
2773,0.07013721918905001,0.0
2774,-0.004963061229696893,0.0
2775,-0.03373902706819153,0.0
2776,-0.03127828743096296,0.0
2777,-0.05298883139903965,0.0
2778,-0.016841346067510775,0.0
2779,-0.020448184001169926,0.0
2780,0.44946995403573636,0.0
2781,3.9413221046088363,0.0
2782,6.628331346595539,0.0
2783,-1.0476445586028205,0.0
2784,-1.530824705697214,0.0
2785,1.4660681333556258,0.0
2786,-0.747645771052052,0.0
2787,0.16592282659585428,0.0
2788,-0.03922030055233695,0.0
2789,-0.06458095662728353,0.0
2790,-0.0028002158490712235,0.0
2791,0.022357106963365594,0.0
2792,-0.05995072878255539,0.0
2793,0.0089601842780367,0.0
2794,0.010490527602081794,0.0
2795,0.04920957389098285,0.0
2796,-0.01349697431991709,0.0
2797,-0.08771738627741324,0.0
2798,0.05659955722604928,0.0
2799,-0.03534888651744248,0.0
2800,0.3026679391430022,0.0
2801,3.8616341949192288,0.0
2802,6.604994162135305,0.0
2803,-1.0869436462218554,0.0
2804,-1.5483174786126588,0.0
2805,1.3601225233015979,0.0
2806,-0.905628337671525,0.0
2807,0.07828674269926905,0.0
2808,-0.10725431357195457,0.0
2809,-0.12486936814829329,0.0
2810,-0.13433232748229906,0.0
2811,-0.07650464855727847,0.0
2812,0.0055336757320915975,0.0
2813,-0.011421619381824948,0.0
2814,-0.05442182807606219,0.0
2815,-0.08146298854080927,0.0
2816,-0.050036301663032925,0.0
2817,0.04705655883710985,0.0
2818,-0.031576777319443104,0.0
2819,-0.03956859337781198,0.0
2820,0.5053344511917753,0.0
2821,4.019813245782541,0.0
2822,6.687958892902173,0.0
2823,-1.0081480452305784,0.0
2824,-1.5123394751441799,0.0
2825,1.4851470176877744,0.0
2826,-0.8142018595723396,0.0
2827,0.19090154674517384,0.0
2828,-0.07916651837011199,0.0
2829,-0.16407197811412944,0.0
2830,0.021033803243963107,0.0
2831,0.0058638237312060235,0.0
2832,-0.020453375011675146,0.0
2833,-0.10331081354018279,0.0
2834,-0.10819502653513531,0.0
2835,-0.09827268660294125,0.0
2836,-0.12129465411246312,0.0
2837,-0.10342616043680886,0.0
2838,0.036831892217565845,0.0
2839,-0.011228568758108522,0.0
2840,0.31465847374201267,0.0
2841,3.9412553850493026,0.0
2842,6.610599462520814,0.0
2843,-1.1259210862015805,0.0
2844,-1.5009373345717676,0.0
2845,1.4733658777434295,0.0
2846,-0.8376475321386864,0.0
2847,0.09314547536757978,0.0
2848,-0.10131146469307444,0.0
2849,-0.07303358685032539,0.0
2850,-0.04617924894625629,0.0
2851,-0.12355743077920175,0.0
2852,-0.04131020645891524,0.0
2853,-0.04609080448190786,0.0
2854,-0.1010352434744654,0.0
2855,-0.05355208585211318,0.0
2856,0.004334044945339448,0.0
2857,-0.07575945640796619,0.0
2858,-0.08890846673850832,0.0
2859,-0.10119944430400477,0.0
2860,0.287471214978369,0.0
2861,3.9119845039490837,0.0
2862,6.491641920706948,0.0
2863,-1.0534465079608066,0.0
2864,-1.499396788363132,0.0
2865,1.3698564870892882,0.0
2866,-0.8363630443795926,0.0
2867,0.27518523701135345,0.0
2868,-0.04547818850695215,0.0
2869,-0.023535753977261827,0.0
2870,-0.1034424300780191,0.0
2871,-0.07194948174856561,0.0
2872,0.005099251333954592,0.0
2873,-0.045563068921730406,0.0
2874,-0.08594856007825732,0.0
2875,-0.044673632966789445,0.0
2876,0.06802600183086577,0.0
2877,-0.09765424123348386,0.0
2878,0.004075682497445502,0.0
2879,-0.054320548925118645,0.0
2880,0.3987012782253412,0.0
2881,4.043555321432455,0.0
2882,6.636798468681148,0.0
2883,-1.0614753327154993,0.0
2884,-1.4898873447536432,0.0
2885,1.416549368337642,0.0
2886,-0.7880575193091692,0.0
2887,0.21368625056042356,0.0
2888,-0.06721147085786976,0.0
2889,-0.030410950182898917,0.0
2890,-0.07102606716627868,0.0
2891,0.09665175710859883,0.0
2892,-0.04079523468379817,0.0
2893,0.006871709724591765,0.0
2894,-0.03181671372926939,0.0
2895,-0.07238249749968934,0.0
2896,-0.03760676008453451,0.0
2897,0.08209100854845919,0.0
2898,-0.06541933562296422,0.0
2899,-0.01072754835934533,0.0
2900,0.34062114312046277,0.0
2901,3.9662269121527074,0.0
2902,6.639753995114382,0.0
2903,-1.078007783490443,0.0
2904,-1.4787396769720558,0.0
2905,1.5119097120134144,0.0
2906,-0.9006917970090996,0.0
2907,0.2667637559296734,0.0
2908,-0.05307893188487133,0.0
2909,-0.1113762359408152,0.0
2910,0.00791968230030657,0.0
2911,-0.17489793769364384,0.0
2912,0.031569945919356225,0.0
2913,-0.057454652827879066,0.0
2914,0.021287954883277886,0.0
2915,0.009493943607748842,0.0
2916,0.032876093475814605,0.0
2917,-0.08786338077120011,0.0
2918,-0.07446315681258053,0.0
2919,-0.08803125982744507,0.0
2920,0.3242847260682351,0.0
2921,3.97857785505603,0.0
2922,6.561343848387977,0.0
2923,-1.1076934416636126,0.0
2924,-1.4134889409674691,0.0
2925,1.3076397688025219,0.0
2926,-0.7861962323977292,0.0
2927,0.2926457010162001,0.0
2928,0.05717037861868127,0.0
2929,0.055578757936515996,0.0
2930,0.0090359488531006,0.0
2931,-0.09877224128842357,0.0
2932,0.026349743847315907,0.0
2933,0.06660287363074606,0.0
2934,-0.022533202294829663,0.0
2935,-0.10795269186893497,0.0
2936,0.0015326401237276827,0.0
2937,0.03748718664254531,0.0
2938,0.059360711908360064,0.0
2939,-0.05991125126965727,0.0
2940,0.45529871372216496,0.0
2941,3.9927545314347994,0.0
2942,6.619512395094501,0.0
2943,-1.041764096223355,0.0
2944,-1.5510981086360807,0.0
2945,1.4778928877583766,0.0
2946,-0.800346467291399,0.0
2947,0.16172332857370555,0.0
2948,-0.0053536689049880765,0.0
2949,-0.051943263590957175,0.0
2950,-0.03672039496898171,0.0
2951,-0.11251590863999128,0.0
2952,0.0012822353059172048,0.0
2953,-0.027344129917548903,0.0
2954,0.007965183827799531,0.0
2955,-0.05713495701419126,0.0
2956,0.05506930962201468,0.0
2957,0.05062538845469553,0.0
2958,0.003619034576461717,0.0
2959,-0.004898875571833878,0.0
2960,0.3428381698397436,0.0
2961,3.97358061932161,0.0
2962,6.742258981730195,0.0
2963,-1.063185397826255,0.0
2964,-1.387769703478417,0.0
2965,1.4681464631766663,0.0
2966,-0.7213033700742384,0.0
2967,0.27529755099942693,0.0
2968,-0.013876379288363664,0.0
2969,-0.08695711081032191,0.0
2970,-0.07838128612488648,0.0
2971,0.14431231455747737,0.0
2972,-0.013153690210630434,0.0
2973,0.010957559532511815,0.0
2974,0.006501732191982539,0.0
2975,-0.031213886595143726,0.0
2976,0.020452376565983716,0.0
2977,-0.04243255552345733,0.0
2978,-0.005564507896906856,0.0
2979,0.06975760993050255,0.0
2980,0.3588676348849661,0.0
2981,4.021001859066177,0.0
2982,6.629407530973751,0.0
2983,-1.1124886193877062,0.0
2984,-1.4283831697702682,0.0
2985,1.4029492612747878,0.0
2986,-0.7388998584057743,0.0
2987,0.3277532246739575,0.0
2988,-0.029199268212237905,0.0
2989,-0.09775858813850388,0.0
2990,0.053570670755984484,0.0
2991,-0.11450450946416742,0.0
2992,-0.03216732275591953,0.0
2993,0.015839890120436125,0.0
2994,0.10976923927812168,0.0
2995,0.055033188506355975,0.0
2996,-0.05120213836810185,0.0
2997,0.005079415425920181,0.0
2998,-0.022903065659780272,0.0
2999,-0.01884398914543128,0.0
3000,0.3516614458396522,0.0
3001,4.022636418980836,0.0
3002,6.622587464012107,0.0
3003,-1.062122162800045,0.0
3004,-1.532357609107417,0.0
3005,1.5246693675511298,0.0
3006,-0.8977012185071529,0.0
3007,0.23480298628968072,0.0
3008,0.08976682804101041,0.0
3009,0.005875940332830603,0.0
3010,0.028769856615913775,0.0
3011,0.005294650724768086,0.0
3012,0.035000333314073435,0.0
3013,-0.005950678605531131,0.0
3014,0.05721390212567713,0.0
3015,-0.03670971448626656,0.0
3016,0.019726786100408997,0.0
3017,-0.00039101950066209364,0.0
3018,0.060676919051939275,0.0
3019,-0.029547075902093108,0.0
3020,0.41032973318331095,0.0
3021,4.110860585945382,0.0
3022,6.7044551582580665,0.0
3023,-0.9975580397958085,0.0
3024,-1.497112109812194,0.0
3025,1.4331244874293956,0.0
3026,-0.733706984856537,0.0
3027,0.2069814673059812,0.0
3028,0.05191687668819337,0.0
3029,-0.07445064015460806,0.0
3030,0.001944404726624869,0.0
3031,-0.01782974744322789,0.0
3032,-0.025345512929956147,0.0
3033,-0.02024337880740639,0.0
3034,-0.023093561036088565,0.0
3035,0.0158560380360444,0.0
3036,0.00824666850872373,0.0
3037,0.04781483036883685,0.0
3038,-0.0011767009388167007,0.0
3039,0.008426428039749443,0.0
3040,0.4435706506558722,0.0
3041,4.040737195367643,0.0
3042,6.548029468749596,0.0
3043,-1.0938073428756632,0.0
3044,-1.4483606120391306,0.0
3045,1.3720027730340576,0.0
3046,-0.8445126497830597,0.0
3047,0.24373419085901413,0.0
3048,0.025693572100859565,0.0
3049,-0.09836846933454735,0.0
3050,-0.03410144553934685,0.0
3051,0.02660628988763695,0.0
3052,-0.004354703988505945,0.0
3053,-0.05275620537527161,0.0
3054,0.025352923392620477,0.0
3055,-0.07681657058634246,0.0
3056,-0.01313096150644442,0.0
3057,0.03651321594620834,0.0
3058,-0.025689495243912293,0.0
3059,0.07052842533975134,0.0
3060,0.4653018569430418,0.0
3061,4.047411437163613,0.0
3062,6.664816997089263,0.0
3063,-1.1803819192033886,0.0
3064,-1.3984151098926052,0.0
3065,1.4057492231523636,0.0
3066,-0.7057873202749925,0.0
3067,0.15853772031423524,0.0
3068,0.06302520580315413,0.0
3069,0.08176816012417751,0.0
3070,0.08692862353351738,0.0
3071,0.10113791667421972,0.0
3072,0.029482526383164627,0.0
3073,-0.06838696504076923,0.0
3074,0.00025986014184277775,0.0
3075,-0.06021352617085036,0.0
3076,-0.02103858230184779,0.0
3077,0.05360801995138691,0.0
3078,0.03883159212201744,0.0
3079,0.05302165369482403,0.0
3080,0.3762618180383733,0.0
3081,4.115198280269171,0.0
3082,6.585416799380141,0.0
3083,-1.0223092852510107,0.0
3084,-1.4009489765790553,0.0
3085,1.4370464273694192,0.0
3086,-0.7152515172109443,0.0
3087,0.16302904224167789,0.0
3088,-0.016435587916099285,0.0
3089,0.02953413274824168,0.0
3090,-0.056240495047635376,0.0
3091,0.03249113340664142,0.0
3092,0.05456465564117509,0.0
3093,0.0076525944422353685,0.0
3094,-0.035406620783244774,0.0
3095,-0.09397384618967353,0.0
3096,-0.07517428178054805,0.0
3097,-0.019718601572090037,0.0
3098,0.019303464367111955,0.0
3099,-0.04416526761183452,0.0
3100,0.361156867074463,0.0
3101,4.062939817347326,0.0
3102,6.637804633814735,0.0
3103,-1.1231748502192564,0.0
3104,-1.5372683570111842,0.0
3105,1.4134999905176677,0.0
3106,-0.8330578348159013,0.0
3107,0.27006454610284614,0.0
3108,0.03625540110590698,0.0
3109,-0.011897304132169273,0.0
3110,0.12603055247504688,0.0
3111,-0.0077224275595085545,0.0
3112,0.020920307437117456,0.0
3113,0.05764556161811849,0.0
3114,0.11556303968510032,0.0
3115,0.048388790269776424,0.0
3116,-0.10252949804994206,0.0
3117,-0.07211173996788527,0.0
3118,0.05260996612520053,0.0
3119,0.03282419811739866,0.0
3120,0.4383226717210723,0.0
3121,4.035630492686706,0.0
3122,6.563396524482522,0.0
3123,-1.1056501322398549,0.0
3124,-1.48446588197841,0.0
3125,1.3326072643457176,0.0
3126,-0.8478143012419223,0.0
3127,0.1596544343347769,0.0
3128,-0.005491408745408578,0.0
3129,-0.061575523697946374,0.0
3130,-0.035957670065111885,0.0
3131,0.0221637487603244,0.0
3132,-0.06527045898615226,0.0
3133,0.013635969615402086,0.0
3134,0.015786334303538867,0.0
3135,0.043330081323386116,0.0
3136,-0.01168868806768461,0.0
3137,0.012016998240259341,0.0
3138,0.03062604844351482,0.0
3139,-0.005915999470715064,0.0
3140,0.3173565993604905,0.0
3141,4.05368053857578,0.0
3142,6.54697062301297,0.0
3143,-1.021561216610477,0.0
3144,-1.426243819618264,0.0
3145,1.4248243047239246,0.0
3146,-0.8769898046582179,0.0
3147,0.10399830736378154,0.0
3148,-0.03750405399481102,0.0
3149,-0.06352789251418005,0.0
3150,-0.03844346817848339,0.0
3151,-0.004031238006522671,0.0
3152,-0.006027969747895892,0.0
3153,-0.022755288595514775,0.0
3154,0.013079409084133561,0.0
3155,-0.051246260481346034,0.0
3156,-0.006240171944744882,0.0
3157,-0.03952544365345214,0.0
3158,0.04075267316466797,0.0
3159,0.03958717686961589,0.0
3160,0.31518334187917085,0.0
3161,4.134819012573213,0.0
3162,6.5460764823458595,0.0
3163,-1.2034976837027314,0.0
3164,-1.5201715408134164,0.0
3165,1.3898914534914348,0.0
3166,-0.7951915464496686,0.0
3167,0.16447911489560824,0.0
3168,-0.041361132844963296,0.0
3169,-0.05761420229809848,0.0
3170,-0.11758241872419466,0.0
3171,-0.0218076689377878,0.0
3172,0.04164227580836273,0.0
3173,0.06375545981169295,0.0
3174,0.008751478876561115,0.0
3175,-0.08479531837078713,0.0
3176,-0.07314540745678803,0.0
3177,-0.0483510190183816,0.0
3178,-0.12083386290117241,0.0
3179,-0.005441751734702762,0.0
3180,0.38501788226820566,0.0
3181,4.093048831870755,0.0
3182,6.528503581245284,0.0
3183,-1.1773810250756032,0.0
3184,-1.558551105213203,0.0
3185,1.3611764999496092,0.0
3186,-0.7696489339556023,0.0
3187,0.21121410513524802,0.0
3188,-0.11221737942985961,0.0
3189,-0.05888810889679815,0.0
3190,-0.019282604858318987,0.0
3191,-0.043186590161672755,0.0
3192,-0.06804535299628889,0.0
3193,-0.07745823691065352,0.0
3194,0.02596624511459482,0.0
3195,0.008332080183840476,0.0
3196,-0.11484592919678574,0.0
3197,-0.06900555637915291,0.0
3198,-0.04529097922057802,0.0
3199,-0.15017290653312337,0.0
3200,0.3806421690343314,0.0
3201,4.132066229740148,0.0
3202,6.510575577515041,0.0
3203,-1.1745536418729274,0.0
3204,-1.4225303452901952,0.0
3205,1.3270411071327668,0.0
3206,-0.7775755927922973,0.0
3207,0.3109405721438754,0.0
3208,-0.07506366572029827,0.0
3209,-0.030483860685192946,0.0
3210,-0.03449381108128619,0.0
3211,-0.08938924737289286,0.0
3212,-0.01831077487047596,0.0
3213,-0.033862765793222185,0.0
3214,-0.04637328312237484,0.0
3215,0.031190623107722446,0.0
3216,-0.1215164729354056,0.0
3217,-0.006749084473766501,0.0
3218,-0.02087995741323633,0.0
3219,-0.0034291463819028974,0.0
3220,0.36647637430932234,0.0
3221,3.9950513845782973,0.0
3222,6.596583428243889,0.0
3223,-1.1479734105429606,0.0
3224,-1.5048790307486644,0.0
3225,1.4025533728879669,0.0
3226,-0.7407974913395348,0.0
3227,0.26387221210622885,0.0
3228,-0.0340997744287945,0.0
3229,-0.04484390293307629,0.0
3230,0.004346804451046333,0.0
3231,0.02891392656433462,0.0
3232,0.04096421556316113,0.0
3233,-0.0521804286952799,0.0
3234,-0.048920181178137054,0.0
3235,-0.012016879829539202,0.0
3236,0.009700685735276104,0.0
3237,-0.09178146059904149,0.0
3238,-0.05758215159133093,0.0
3239,-0.16015984572237357,0.0
3240,0.4299290209411583,0.0
3241,4.0631466912446035,0.0
3242,6.542903028960905,0.0
3243,-1.1941900981927327,0.0
3244,-1.4489193185927636,0.0
3245,1.3780486244887116,0.0
3246,-0.907511292730321,0.0
3247,0.12569094477895307,0.0
3248,-0.11259773367989079,0.0
3249,-0.16455021564249178,0.0
3250,0.023650191428929043,0.0
3251,-0.08263034665840241,0.0
3252,0.04915255660881997,0.0
3253,0.01572648196007339,0.0
3254,-0.0706265343036637,0.0
3255,0.024235410323159685,0.0
3256,-0.001082631603553149,0.0
3257,-0.05115741890532458,0.0
3258,-0.002402337120161125,0.0
3259,0.041026468472632735,0.0
3260,0.38716288687122324,0.0
3261,4.067088168335151,0.0
3262,6.514334277622577,0.0
3263,-1.168571941306751,0.0
3264,-1.4197860550366073,0.0
3265,1.423831080756293,0.0
3266,-0.7185596216958868,0.0
3267,0.277441657350261,0.0
3268,0.01451288518397905,0.0
3269,0.10800533567705162,0.0
3270,0.0686420587473625,0.0
3271,0.0011754933316872156,0.0
3272,0.006280926512881473,0.0
3273,0.16535573630396438,0.0
3274,-0.04779382940423883,0.0
3275,0.012619582582265167,0.0
3276,0.026604705854970625,0.0
3277,0.07446776258122702,0.0
3278,0.009640903963855398,0.0
3279,-0.019359852718643367,0.0
3280,0.28100443173895356,0.0
3281,4.149126805985049,0.0
3282,6.5247828084062345,0.0
3283,-1.2353342516157553,0.0
3284,-1.5070276167121064,0.0
3285,1.3061127316534031,0.0
3286,-0.8439865523106661,0.0
3287,0.17245669877076253,0.0
3288,0.0028359182294077773,0.0
3289,-0.1263536821318794,0.0
3290,-0.01923949256857039,0.0
3291,-0.014839475142168518,0.0
3292,-0.11272601739517962,0.0
3293,-0.041665206933473434,0.0
3294,-0.02549329657334186,0.0
3295,-0.07568384992675488,0.0
3296,0.023426952994769462,0.0
3297,0.00309758861034792,0.0
3298,0.022144980669372993,0.0
3299,-0.002194608913496801,0.0
3300,0.42586148494866277,0.0
3301,4.0240089564056385,0.0
3302,6.667918931284864,0.0
3303,-1.0631785753165268,0.0
3304,-1.406506471292307,0.0
3305,1.4391644543840787,0.0
3306,-0.7039022261766963,0.0
3307,0.16153619987129017,0.0
3308,-0.08705983657177614,0.0
3309,0.029709925098489715,0.0
3310,0.02549415701738448,0.0
3311,-0.008428736826716472,0.0
3312,0.00014238916776789824,0.0
3313,-0.028221391299083506,0.0
3314,-0.08108959865565875,0.0
3315,-0.06123697706916331,0.0
3316,-0.037289355689055156,0.0
3317,0.016786964945806275,0.0
3318,0.009108223081326644,0.0
3319,0.06743077195329986,0.0
3320,0.3797289656205558,0.0
3321,4.201279579613878,0.0
3322,6.641471985907462,0.0
3323,-1.161971678440701,0.0
3324,-1.3327331650218621,0.0
3325,1.3241403337897748,0.0
3326,-0.7555851122176086,0.0
3327,0.22856025813584974,0.0
3328,-0.07791686396032518,0.0
3329,-0.05392222520225433,0.0
3330,0.07139027397232561,0.0
3331,0.06304935745435661,0.0
3332,-0.01109976046267531,0.0
3333,0.04679898732481824,0.0
3334,0.05257876854798273,0.0
3335,0.01603838278608919,0.0
3336,0.07001357635981147,0.0
3337,-0.008639229137090898,0.0
3338,0.030177643771687402,0.0
3339,-0.015576840307266047,0.0
3340,0.47296584628670224,0.0
3341,4.055741482508292,0.0
3342,6.592844874915047,0.0
3343,-1.2258722619100404,0.0
3344,-1.4407914613525166,0.0
3345,1.3685605086828434,0.0
3346,-0.7764468029386429,0.0
3347,0.1638862797732951,0.0
3348,-0.05137251560678259,0.0
3349,-0.04260239564466185,0.0
3350,-0.0035083159131993986,0.0
3351,0.020955424920229202,0.0
3352,-0.039256681817635,0.0
3353,-0.07221427229016489,0.0
3354,-0.04448875107357376,0.0
3355,0.03365636984508516,0.0
3356,0.021398837510325792,0.0
3357,0.013910662158717592,0.0
3358,0.14079784830554,0.0
3359,-0.0950565099977084,0.0
3360,0.4569656654994458,0.0
3361,4.131813160337659,0.0
3362,6.585234837115664,0.0
3363,-1.1870996411922394,0.0
3364,-1.4563381278188778,0.0
3365,1.3479610980004053,0.0
3366,-0.8350508364816238,0.0
3367,0.14284714420757083,0.0
3368,0.02580491522828006,0.0
3369,-0.0357178172684327,0.0
3370,-0.01830978905704149,0.0
3371,-0.050482150010834295,0.0
3372,-0.05813401264047427,0.0
3373,-0.025124923341898732,0.0
3374,0.008955469340810679,0.0
3375,-0.09575116787501324,0.0
3376,-0.020206557575515684,0.0
3377,0.02256387962218184,0.0
3378,-0.004494442037366422,0.0
3379,0.017425168929007685,0.0
3380,0.40698607480623866,0.0
3381,4.060938801817467,0.0
3382,6.611348926908089,0.0
3383,-1.1215594254859536,0.0
3384,-1.4577299474252683,0.0
3385,1.4534044270189865,0.0
3386,-0.7208769912532136,0.0
3387,0.26964106968005325,0.0
3388,-0.028370998969984008,0.0
3389,0.020810446637999764,0.0
3390,-0.01852967754774549,0.0
3391,-0.01954204427186043,0.0
3392,-0.06947007631816453,0.0
3393,0.018803560475297847,0.0
3394,-0.022294146483640708,0.0
3395,-0.05659161802451436,0.0
3396,0.05135617254832672,0.0
3397,-0.012059332183800807,0.0
3398,0.038012778875448114,0.0
3399,0.0021328055256343748,0.0
3400,0.41978816344950526,0.0
3401,4.125642545064041,0.0
3402,6.526999560807722,0.0
3403,-1.1688038802339555,0.0
3404,-1.4191397032616868,0.0
3405,1.4174709294560386,0.0
3406,-0.6868735070584456,0.0
3407,0.3408052085975324,0.0
3408,-0.0899566700608966,0.0
3409,0.001885567727899308,0.0
3410,0.03963552860005281,0.0
3411,-0.008384233100080506,0.0
3412,0.02999837472672475,0.0
3413,0.06461264883226145,0.0
3414,0.06369219755447986,0.0
3415,-0.07290441964831654,0.0
3416,-0.043642868264391996,0.0
3417,-0.07792074811298609,0.0
3418,-0.10638908736642791,0.0
3419,-0.10652423081413728,0.0
3420,0.3679256344672846,0.0
3421,4.063036029053034,0.0
3422,6.522406238297363,0.0
3423,-1.2507228583729557,0.0
3424,-1.3947587886115862,0.0
3425,1.3555952423756445,0.0
3426,-0.9221643589683061,0.0
3427,0.21056125457021888,0.0
3428,-0.17474483872231808,0.0
3429,-0.07891593619784007,0.0
3430,0.03165570007054028,0.0
3431,-0.024203683500344887,0.0
3432,0.003245427089447455,0.0
3433,-0.032458317836734606,0.0
3434,0.004915260352210276,0.0
3435,0.024789579634785387,0.0
3436,0.10942125719278337,0.0
3437,0.026251456021756416,0.0
3438,0.0067232700712513424,0.0
3439,0.029245891018556867,0.0
3440,0.3942884377680197,0.0
3441,4.207281352480756,0.0
3442,6.579717748197634,0.0
3443,-1.2366586864794828,0.0
3444,-1.3424894037133852,0.0
3445,1.4100834390703239,0.0
3446,-0.7781441976976212,0.0
3447,0.1744096862556085,0.0
3448,0.024176368724540286,0.0
3449,0.011170110493279373,0.0
3450,0.0195149905191402,0.0
3451,-0.03960956246859909,0.0
3452,-0.04374177562403876,0.0
3453,-0.024404246848368158,0.0
3454,0.07674944741976245,0.0
3455,-0.05927030541247175,0.0
3456,-0.09193231811943622,0.0
3457,-0.03844728791534659,0.0
3458,0.01791849335171579,0.0
3459,-0.018587943184872058,0.0
3460,0.42254455597968643,0.0
3461,4.0462250645127655,0.0
3462,6.600871201739861,0.0
3463,-1.1934594332059518,0.0
3464,-1.3816790341502927,0.0
3465,1.3960615405381793,0.0
3466,-0.8408959551192469,0.0
3467,0.16009744440860912,0.0
3468,-0.026539328220804573,0.0
3469,-0.11247715313226925,0.0
3470,-0.035791691210452475,0.0
3471,-0.08849858944616493,0.0
3472,-0.0334910972601154,0.0
3473,-0.10283844965066599,0.0
3474,-0.012404434532338863,0.0
3475,0.031289499077886515,0.0
3476,-0.037318098681492655,0.0
3477,0.03403967906356226,0.0
3478,0.029301737144335153,0.0
3479,0.02664305770183173,0.0
3480,0.459817038750042,0.0
3481,4.077185593422638,0.0
3482,6.63786186708383,0.0
3483,-1.2282091024560375,0.0
3484,-1.3647228916851746,0.0
3485,1.442955377405409,0.0
3486,-0.8902518536947233,0.0
3487,0.26166779773525745,0.0
3488,0.026355208827896028,0.0
3489,-0.038565038489581864,0.0
3490,0.013913884211766224,0.0
3491,-0.09522153570596223,0.0
3492,-0.12499730153697237,0.0
3493,-0.15023428562383095,0.0
3494,-0.021071898308695658,0.0
3495,0.036382320725833826,0.0
3496,-0.09827245946760968,0.0
3497,-0.10289787720530927,0.0
3498,-0.12267453995931812,0.0
3499,-0.006059441700189627,0.0
3500,0.4244726503222062,0.0
3501,4.068703033821492,0.0
3502,6.519417632061706,0.0
3503,-1.2931285978726146,0.0
3504,-1.4260321701929102,0.0
3505,1.3900961168473003,0.0
3506,-0.8035429562405896,0.0
3507,0.269035134938879,0.0
3508,-0.08282525296940688,0.0
3509,-0.030694285810580327,0.0
3510,-0.17361176777338727,0.0
3511,0.013331324902671679,0.0
3512,-0.022418412934612643,0.0
3513,-0.046196359464731135,0.0
3514,-0.08992915563957157,0.0
3515,0.002642615924920936,0.0
3516,-0.020732000304127106,0.0
3517,0.04729034658989173,0.0
3518,-0.055745711770534064,0.0
3519,0.09789257831551566,0.0
3520,0.4567958683505778,0.0
3521,4.151206949043519,0.0
3522,6.556909593535825,0.0
3523,-1.241088868469276,0.0
3524,-1.2991851733313562,0.0
3525,1.4800551174227607,0.0
3526,-0.6917200824624864,0.0
3527,0.2891389649580683,0.0
3528,0.06471895218824857,0.0
3529,0.04799609110683741,0.0
3530,0.09819872996411129,0.0
3531,-0.033083512676655484,0.0
3532,0.10475324025277208,0.0
3533,-0.011099643141026128,0.0
3534,0.13442629676549517,0.0
3535,0.022519067589062983,0.0
3536,0.13199990938755735,0.0
3537,0.04453456656992167,0.0
3538,0.04588802877536334,0.0
3539,0.04398001648954583,0.0
3540,0.48025994997421406,0.0
3541,4.196574762214416,0.0
3542,6.618404247087561,0.0
3543,-1.190140182749092,0.0
3544,-1.3730904489712275,0.0
3545,1.4334040499352028,0.0
3546,-0.7806075794141683,0.0
3547,0.1481646419059992,0.0
3548,-0.06745518956766403,0.0
3549,-0.061991037687157205,0.0
3550,0.17004858713780654,0.0
3551,0.011217648688996915,0.0
3552,-0.020772193848426497,0.0
3553,-0.07735346294320875,0.0
3554,-0.0532276449345153,0.0
3555,-0.08691445981640676,0.0
3556,-0.05425944748687767,0.0
3557,-0.057715570101252375,0.0
3558,0.06239422949578109,0.0
3559,-0.07074891198970384,0.0
3560,0.38004034969085615,0.0
3561,4.105434253021091,0.0
3562,6.622724593639595,0.0
3563,-1.1871707861292558,0.0
3564,-1.3707178271954976,0.0
3565,1.4073918944714932,0.0
3566,-0.7990861425024587,0.0
3567,0.19656759392158363,0.0
3568,-0.044416841425719014,0.0
3569,-0.03010846544873834,0.0
3570,0.05639271420869971,0.0
3571,0.03688974100272572,0.0
3572,0.00044721903032187565,0.0
3573,-0.051975858060227205,0.0
3574,-0.01868568891657836,0.0
3575,-0.06922712846561734,0.0
3576,0.055159558986492746,0.0
3577,-0.06036056942013138,0.0
3578,0.03415662830865197,0.0
3579,-0.10459014476189749,0.0
3580,0.3662424669071046,0.0
3581,4.026732089393882,0.0
3582,6.5199527969718725,0.0
3583,-1.2934576638900184,0.0
3584,-1.2898345824852013,0.0
3585,1.3601615130428786,0.0
3586,-0.8027948072760116,0.0
3587,0.14128974334258848,0.0
3588,-0.0903647849240003,0.0
3589,-0.050339201419123965,0.0
3590,-0.0016021873398561742,0.0
3591,-0.03812589908516414,0.0
3592,-0.03282347488806633,0.0
3593,0.1255828805242594,0.0
3594,0.019590528524433763,0.0
3595,0.023972886029050736,0.0
3596,0.06811335862818294,0.0
3597,-0.06254941538801982,0.0
3598,0.05218213477149318,0.0
3599,-0.07939618210815931,0.0
3600,0.45021220436092735,0.0
3601,4.1346187190892065,0.0
3602,6.5736450691227715,0.0
3603,-1.1924602795737846,0.0
3604,-1.3989762152850733,0.0
3605,1.3469810108858313,0.0
3606,-0.8216934310946694,0.0
3607,0.27452528210688554,0.0
3608,0.024793170831756486,0.0
3609,-0.09520153328639133,0.0
3610,0.032760117876384456,0.0
3611,-0.0128084227086735,0.0
3612,-0.03391647940846994,0.0
3613,0.031217645880795862,0.0
3614,-0.008158327059249395,0.0
3615,-0.05078809158509084,0.0
3616,0.013103382132694566,0.0
3617,0.03482340348470731,0.0
3618,0.02182620369205733,0.0
3619,0.062123625144699934,0.0
3620,0.4389427155684579,0.0
3621,4.193123205878282,0.0
3622,6.477784866636871,0.0
3623,-1.1372720799106681,0.0
3624,-1.320772099791029,0.0
3625,1.419450259528373,0.0
3626,-0.7381562844400301,0.0
3627,0.20802663744824212,0.0
3628,0.013654172771603414,0.0
3629,-0.031088916872823055,0.0
3630,0.026044145069860608,0.0
3631,0.004539349607940873,0.0
3632,0.05376092370110158,0.0
3633,0.04088988720350039,0.0
3634,0.013467545588981545,0.0
3635,0.06149779872774601,0.0
3636,0.05258668977444133,0.0
3637,-0.04034943396595174,0.0
3638,-0.010170193997886979,0.0
3639,-0.013762513384939525,0.0
3640,0.4938767324100297,0.0
3641,4.119939168255765,0.0
3642,6.575151145024388,0.0
3643,-1.3314043698473368,0.0
3644,-1.4123700720372592,0.0
3645,1.3634227459673511,0.0
3646,-0.8313838296007976,0.0
3647,0.26806401143317676,0.0
3648,0.0181410115561184,0.0
3649,0.03517764350733828,0.0
3650,0.028530773733401474,0.0
3651,0.011481686077138259,0.0
3652,-0.0641877456241931,0.0
3653,0.024381732175510165,0.0
3654,-0.05226018979386628,0.0
3655,0.07169239468540789,0.0
3656,-0.024523502707455465,0.0
3657,0.061300369791887396,0.0
3658,0.034165472241160705,0.0
3659,0.009937044392430068,0.0
3660,0.48831165740246685,0.0
3661,4.176720469039619,0.0
3662,6.570835717007429,0.0
3663,-1.2215140071362744,0.0
3664,-1.3699248645693383,0.0
3665,1.423318234465103,0.0
3666,-0.722838962214215,0.0
3667,0.17592229604921947,0.0
3668,-0.12600084502573666,0.0
3669,-0.05750550159121724,0.0
3670,0.02437498576077155,0.0
3671,0.042573294075397256,0.0
3672,-0.09696557310382864,0.0
3673,0.016622363943279237,0.0
3674,-0.041529577524777685,0.0
3675,-0.13007291995214418,0.0
3676,0.005601584656845411,0.0
3677,0.002708226416148875,0.0
3678,-0.04091016320931608,0.0
3679,0.01571350999350673,0.0
3680,0.45471658635892215,0.0
3681,4.098566455518076,0.0
3682,6.540095145243116,0.0
3683,-1.2131309408032356,0.0
3684,-1.296763951322061,0.0
3685,1.470929378024008,0.0
3686,-0.7991631271104888,0.0
3687,0.27977119881341694,0.0
3688,0.005307768386817329,0.0
3689,-0.05543098288173241,0.0
3690,-0.00038500311545351315,0.0
3691,0.02889412103690736,0.0
3692,-0.001126288582129346,0.0
3693,0.0022177648577739306,0.0
3694,0.002249019825481542,0.0
3695,-0.013760783317287417,0.0
3696,-0.10478684628555593,0.0
3697,0.035325640110098915,0.0
3698,0.037289038074201565,0.0
3699,0.0009319237555822646,0.0
3700,0.4093046883799888,0.0
3701,4.280105540922015,0.0
3702,6.515317642971268,0.0
3703,-1.219912610703224,0.0
3704,-1.1854385758199824,0.0
3705,1.4862638692399766,0.0
3706,-0.7847193456630259,0.0
3707,0.2855894148229483,0.0
3708,-0.04201051209629329,0.0
3709,-0.052746307567014906,0.0
3710,0.07331758533191196,0.0
3711,0.04742539086287583,0.0
3712,0.04011035920127942,0.0
3713,-0.048257903633304976,0.0
3714,-0.08640280304461723,0.0
3715,0.11643469514476433,0.0
3716,0.06741902472746597,0.0
3717,0.050774504453217864,0.0
3718,0.05803610437014318,0.0
3719,0.09560824340789223,0.0
3720,0.46806047272092266,0.0
3721,4.260507425451091,0.0
3722,6.532563714689113,0.0
3723,-1.1642213451157983,0.0
3724,-1.2967827776502228,0.0
3725,1.4887201019841907,0.0
3726,-0.6482139081761896,0.0
3727,0.2566531336026365,0.0
3728,0.04654509507786034,0.0
3729,0.09159368640689713,0.0
3730,0.05531813720945888,0.0
3731,-0.033161942338468926,0.0
3732,-0.012670559933414646,0.0
3733,-0.029493121968595486,0.0
3734,-0.00559076499711816,0.0
3735,0.05713225732268122,0.0
3736,-0.044150948122681326,0.0
3737,0.03560754514890181,0.0
3738,0.031047810238309645,0.0
3739,-0.010861806065030837,0.0
3740,0.48828960012009226,0.0
3741,4.274205196033906,0.0
3742,6.566777827324151,0.0
3743,-1.1274383208742462,0.0
3744,-1.28121760337136,0.0
3745,1.3758452696255878,0.0
3746,-0.8599659956613367,0.0
3747,0.31184445306977004,0.0
3748,0.0523347772708261,0.0
3749,-0.04890828133524916,0.0
3750,-0.048381173119814685,0.0
3751,-0.013439293498997938,0.0
3752,0.07977433221970077,0.0
3753,-0.021967984019087717,0.0
3754,-0.07182409878840777,0.0
3755,0.03278113754262277,0.0
3756,0.009301107018959698,0.0
3757,-0.01725273165705449,0.0
3758,0.019365178560468953,0.0
3759,-0.03714516608806683,0.0
3760,0.3982126998894687,0.0
3761,4.202101951977204,0.0
3762,6.517041398967639,0.0
3763,-1.3556184090883732,0.0
3764,-1.2570972904536293,0.0
3765,1.4955739567324933,0.0
3766,-0.7601790915634771,0.0
3767,0.1718977594470607,0.0
3768,-0.02871004263875116,0.0
3769,0.007080304646955693,0.0
3770,0.017310217635357786,0.0
3771,-0.05687228546682789,0.0
3772,0.032764035180353035,0.0
3773,-0.041542054470311625,0.0
3774,0.009185346650447297,0.0
3775,-0.050891788762261886,0.0
3776,-0.010204689563552374,0.0
3777,-0.03945216814185125,0.0
3778,-0.13391404411342775,0.0
3779,-0.09306137746690238,0.0
3780,0.4049641322707414,0.0
3781,4.186316023538148,0.0
3782,6.469066344211561,0.0
3783,-1.216891249033997,0.0
3784,-1.3594619780736044,0.0
3785,1.3556046482746702,0.0
3786,-0.7305081415255061,0.0
3787,0.1460627490848865,0.0
3788,-0.10677898328862118,0.0
3789,-0.03384096195269505,0.0
3790,-0.03167284775126136,0.0
3791,0.05599240608535027,0.0
3792,0.009747274163734368,0.0
3793,-0.009465101863205361,0.0
3794,-0.006417494061698517,0.0
3795,0.061058040482722176,0.0
3796,0.0010020248434482928,0.0
3797,-0.020942376369914854,0.0
3798,-0.013190955881259434,0.0
3799,0.03310817841251339,0.0
3800,0.41185443689130197,0.0
3801,4.150706531100615,0.0
3802,6.548015376558022,0.0
3803,-1.2895121575705994,0.0
3804,-1.3456865317863802,0.0
3805,1.403421049414712,0.0
3806,-0.8087949817354256,0.0
3807,0.3463312648818475,0.0
3808,-0.03777847563396801,0.0
3809,-0.061009288273137716,0.0
3810,-0.0505962029187044,0.0
3811,-0.09367786641488164,0.0
3812,-0.04579832510963467,0.0
3813,-0.11462883740442704,0.0
3814,0.05893128410610368,0.0
3815,-0.04635576935317556,0.0
3816,-0.11939354359503127,0.0
3817,-0.13553309203298736,0.0
3818,-0.012055817777696091,0.0
3819,-0.09218576684130848,0.0
3820,0.3578493985568446,0.0
3821,4.104511727776842,0.0
3822,6.467609290765871,0.0
3823,-1.2737272509958668,0.0
3824,-1.4763162959385552,0.0
3825,1.2224944563383806,0.0
3826,-0.8751716848527881,0.0
3827,0.08133042222401612,0.0
3828,-0.12340706789931538,0.0
3829,-0.13740032905128688,0.0
3830,-0.16697244569595282,0.0
3831,-0.24575726896757533,0.0
3832,-0.11490883183331115,0.0
3833,-0.09996210846698392,0.0
3834,-0.11253413507577029,0.0
3835,-0.16191204589403965,0.0
3836,-0.08256830311661956,0.0
3837,-0.15064764571734487,0.0
3838,-0.047916006582592124,0.0
3839,-0.09443165612472358,0.0
3840,0.39047213117686363,0.0
3841,3.9865512012068782,0.0
3842,6.475708607710329,0.0
3843,-1.4209309733768123,0.0
3844,-1.3389558323112996,0.0
3845,1.4356643942679959,0.0
3846,-0.9413941688374731,0.0
3847,0.2694104379221083,0.0
3848,-0.05233028077429068,0.0
3849,-0.09560417098162796,0.0
3850,-0.04633580296102836,0.0
3851,0.029589161796877435,0.0
3852,0.0054903041413572745,0.0
3853,-0.04678650454511696,0.0
3854,0.008351906389756114,0.0
3855,-0.03926633009900194,0.0
3856,-0.0474640071085507,0.0
3857,-0.04745416857218518,0.0
3858,0.11881204159956363,0.0
3859,0.0565057435323146,0.0
3860,0.5034894894188826,0.0
3861,4.193995066619534,0.0
3862,6.5645433485553495,0.0
3863,-1.3520054587709163,0.0
3864,-1.386660151599759,0.0
3865,1.428320075040316,0.0
3866,-0.9267056504505207,0.0
3867,0.21922901578163406,0.0
3868,-0.01604575187495625,0.0
3869,-0.0062963131153230475,0.0
3870,0.00579756799011695,0.0
3871,-0.007358786607240361,0.0
3872,-0.048607700806387974,0.0
3873,-0.02276841684176055,0.0
3874,-0.0428856241554523,0.0
3875,0.02444257837294702,0.0
3876,-0.11381086464390638,0.0
3877,-0.07181874355627105,0.0
3878,0.05424510877243492,0.0
3879,-0.00157739575350969,0.0
3880,0.4446723341578573,0.0
3881,4.181682965416158,0.0
3882,6.580527619836001,0.0
3883,-1.354079965707551,0.0
3884,-1.2858998621014748,0.0
3885,1.4818312112000402,0.0
3886,-0.8937527201371672,0.0
3887,0.33678870146397805,0.0
3888,-0.039523926259130836,0.0
3889,0.0342375038999612,0.0
3890,-0.02396162867249206,0.0
3891,0.035506424831430766,0.0
3892,-0.14627308800131938,0.0
3893,4.875490375681746e-05,0.0
3894,-0.02101756055522643,0.0
3895,-0.05026243542053431,0.0
3896,0.04760095721211612,0.0
3897,-0.07394274000841738,0.0
3898,0.04378685756536052,0.0
3899,-0.07137309358548796,0.0
3900,0.46459023740179856,0.0
3901,4.184720174746428,0.0
3902,6.484906482652429,0.0
3903,-1.2977604476749813,0.0
3904,-1.3607695894114111,0.0
3905,1.3903194000754722,0.0
3906,-0.7020728451272586,0.0
3907,0.21539403222659007,0.0
3908,0.005848534528439801,0.0
3909,-0.01605513816676549,0.0
3910,0.04631516878509588,0.0
3911,0.05794222980370948,0.0
3912,-0.05972096892571903,0.0
3913,0.002615448104418854,0.0
3914,-0.12265077455545506,0.0
3915,0.10495668345466276,0.0
3916,-0.04802714446122992,0.0
3917,0.009295084928440906,0.0
3918,-0.04441065549868893,0.0
3919,0.01454903804697142,0.0
3920,0.5120211708349329,0.0
3921,4.202797314234485,0.0
3922,6.443309105913904,0.0
3923,-1.383164832506629,0.0
3924,-1.3276397310228398,0.0
3925,1.408895853378096,0.0
3926,-0.9283230636446418,0.0
3927,0.1655653247113486,0.0
3928,-0.12868609059475583,0.0
3929,-0.057752547566235705,0.0
3930,0.07872186428153893,0.0
3931,-0.06263319583481836,0.0
3932,-0.03600649977349128,0.0
3933,-0.024639352531822815,0.0
3934,-0.07199660834490082,0.0
3935,-0.09662966374637344,0.0
3936,-0.05636409825751712,0.0
3937,-0.023724233523105022,0.0
3938,0.0009308412949220433,0.0
3939,-0.09094397278343498,0.0
3940,0.4281649275959567,0.0
3941,4.20462723799974,0.0
3942,6.527618667156069,0.0
3943,-1.3190218538845093,0.0
3944,-1.307223538534172,0.0
3945,1.3566401796165992,0.0
3946,-0.774589412011168,0.0
3947,0.3091625290394607,0.0
3948,-0.0373638646108518,0.0
3949,0.04230126159127494,0.0
3950,0.05763401551768713,0.0
3951,0.11756186038943593,0.0
3952,0.011030980400252707,0.0
3953,-0.0589565886852582,0.0
3954,-0.01331339521426823,0.0
3955,0.01369841461628615,0.0
3956,0.07831645400741719,0.0
3957,-0.003704906692691738,0.0
3958,0.04908078737489429,0.0
3959,0.06963382248147262,0.0
3960,0.567236879105767,0.0
3961,4.26141734991616,0.0
3962,6.600816239457494,0.0
3963,-1.1836205423298978,0.0
3964,-1.2926604070479366,0.0
3965,1.3778013255957253,0.0
3966,-0.7118272148986997,0.0
3967,0.3421097869810767,0.0
3968,0.014149886796079553,0.0
3969,0.04068308234279153,0.0
3970,0.05128780654299235,0.0
3971,-0.021804543885308524,0.0
3972,-0.0018165320817887173,0.0
3973,0.02806556312874663,0.0
3974,-0.007141642577184032,0.0
3975,0.10271048653079445,0.0
3976,0.05655465001782625,0.0
3977,0.09530189816875047,0.0
3978,-0.019651399561834516,0.0
3979,-0.062291723785627424,0.0
3980,0.3815128990449883,0.0
3981,4.181932021863513,0.0
3982,6.469077220561984,0.0
3983,-1.3048991981760736,0.0
3984,-1.267408883166846,0.0
3985,1.391780932732265,0.0
3986,-0.730169331315162,0.0
3987,0.2518039796128958,0.0
3988,0.006851893711909442,0.0
3989,0.0017424364272210892,0.0
3990,-0.009525281747665218,0.0
3991,0.02929565515945328,0.0
3992,0.0021677125649568786,0.0
3993,0.0323360679291171,0.0
3994,-0.05103129532337808,0.0
3995,0.033406265375747694,0.0
3996,0.11787268617298058,0.0
3997,-0.014448793295337825,0.0
3998,0.029305074773259422,0.0
3999,-0.06200847097489533,0.0
4000,0.44052278344070983,0.0
4001,4.240611465331337,0.0
4002,6.488217494746233,0.0
4003,-1.2481160186991231,0.0
4004,-1.3234328033058858,0.0
4005,1.450523112052152,0.0
4006,-0.7052842449014189,0.0
4007,0.27629788873286476,0.0
4008,-0.025332289299537868,0.0
4009,0.03581773026507153,0.0
4010,0.06224342355733415,0.0
4011,0.0895805323010018,0.0
4012,0.03557465510113176,0.0
4013,0.005795204443231252,0.0
4014,0.06882918352597826,0.0
4015,0.0279418539708469,0.0
4016,0.06539742263397866,0.0
4017,0.01627932458848657,0.0
4018,0.093974981217293,0.0
4019,-0.029276455052627947,0.0
4020,0.4479120786295847,0.0
4021,4.261648739237666,0.0
4022,6.504321336753816,0.0
4023,-1.2386046478481163,0.0
4024,-1.2691018929963493,0.0
4025,1.4280285759529465,0.0
4026,-0.7944466437837668,0.0
4027,0.24639259440699623,0.0
4028,0.07072276280882077,0.0
4029,0.04241092536976994,0.0
4030,-0.032292555702404996,0.0
4031,0.01369242956869781,0.0
4032,0.020267862406411898,0.0
4033,-0.05382648284234586,0.0
4034,0.029624779271149537,0.0
4035,-0.0018926437645311739,0.0
4036,0.17176512925992826,0.0
4037,0.04101392124519483,0.0
4038,0.03350981070019399,0.0
4039,0.09088869625453552,0.0
4040,0.4827602014276481,0.0
4041,4.263061262425774,0.0
4042,6.464495028779496,0.0
4043,-1.2227163065065736,0.0
4044,-1.1783119876327621,0.0
4045,1.4085705607518764,0.0
4046,-0.6925419550601523,0.0
4047,0.2941417280600494,0.0
4048,-0.047991884061707166,0.0
4049,0.01934222881484886,0.0
4050,-0.015491867073650786,0.0
4051,0.11262507589142992,0.0
4052,0.001561088111458643,0.0
4053,-0.0006585427086346837,0.0
4054,0.02010501535282828,0.0
4055,-0.025506572009753994,0.0
4056,0.09766581751454065,0.0
4057,0.0317576782635218,0.0
4058,0.08777486753218715,0.0
4059,0.07090854787857885,0.0
4060,0.5261876169156757,0.0
4061,4.352149245123362,0.0
4062,6.543274393684681,0.0
4063,-1.30267670316661,0.0
4064,-1.248261989735404,0.0
4065,1.3971367068289924,0.0
4066,-0.7907011179808674,0.0
4067,0.28611953818628455,0.0
4068,-0.0243163758230127,0.0
4069,-0.03302715931988191,0.0
4070,0.05255906737696821,0.0
4071,0.09432116610136936,0.0
4072,-0.03862555559752682,0.0
4073,-0.0066155200416430394,0.0
4074,-0.0439002680117105,0.0
4075,0.09727466681559238,0.0
4076,0.04769741756522985,0.0
4077,0.0364747970472176,0.0
4078,0.04413195197714485,0.0
4079,0.05712131120177025,0.0
4080,0.5287612060457051,0.0
4081,4.347076908046961,0.0
4082,6.579223750984612,0.0
4083,-1.2417922805493244,0.0
4084,-1.1696888598315804,0.0
4085,1.4353870857893098,0.0
4086,-0.6736484442457967,0.0
4087,0.29284295450192366,0.0
4088,-0.0008587645020723886,0.0
4089,0.07157755385574646,0.0
4090,0.14229946203527064,0.0
4091,0.06467837393925677,0.0
4092,0.12609863226879325,0.0
4093,0.08913718585796812,0.0
4094,0.015269072443859444,0.0
4095,0.037146807567200964,0.0
4096,0.017222234071557648,0.0
4097,0.035603052203029,0.0
4098,-0.012185258442660413,0.0
4099,0.0013404699469669115,0.0
4100,0.45073495238493844,0.0
4101,4.315668980660009,0.0
4102,6.366932350934519,0.0
4103,-1.2370595924961427,0.0
4104,-1.1393459402234785,0.0
4105,1.4322696993744322,0.0
4106,-0.780154877282869,0.0
4107,0.23052078144642812,0.0
4108,-0.017039411254458278,0.0
4109,-0.032205686599035034,0.0
4110,-0.00616522965322313,0.0
4111,-0.007996603075226885,0.0
4112,0.06743881967436732,0.0
4113,0.06951839223491356,0.0
4114,0.006533383821562919,0.0
4115,0.13973637260913893,0.0
4116,0.10642239104641676,0.0
4117,0.05097062695562714,0.0
4118,0.010566736572590073,0.0
4119,0.05892329145801324,0.0
4120,0.3597477735262372,0.0
4121,4.296083045137566,0.0
4122,6.457465778541547,0.0
4123,-1.27997454371397,0.0
4124,-1.243113062253448,0.0
4125,1.3892617756953503,0.0
4126,-0.8098801926024218,0.0
4127,0.28996433691221013,0.0
4128,0.019182830106380902,0.0
4129,0.06248355100333694,0.0
4130,0.10689327895619105,0.0
4131,0.019605015634218285,0.0
4132,0.05931751760453019,0.0
4133,0.1843733646494975,0.0
4134,0.09671901998416138,0.0
4135,0.13088071279467678,0.0
4136,0.09999992025967314,0.0
4137,0.17649330787133416,0.0
4138,0.04702210523551873,0.0
4139,0.1463741580513549,0.0
4140,0.46218002164409266,0.0
4141,4.262813509246588,0.0
4142,6.544474675224597,0.0
4143,-1.3962940140975046,0.0
4144,-1.2057254556463393,0.0
