timestamp,value-0,is_anomaly
0,0.20317465442215168,0.0
1,3.47498648381653,0.0
2,6.914362530556537,0.0
3,-0.261439753144698,0.0
4,-1.9869916582245337,0.0
5,1.542085174452857,0.0
6,-0.7834940310647092,0.0
7,0.22419473197531808,0.0
8,0.049448081648433256,0.0
9,-0.07367143234222229,0.0
10,-0.03675656554871229,0.0
11,-0.00495397746127942,0.0
12,-0.08108115336651096,0.0
13,-0.04151914294330047,0.0
14,0.06457939077943008,0.0
15,-0.04587051740269979,0.0
16,0.04057495786123456,0.0
17,0.04064040209468128,0.0
18,0.04818585503291608,0.0
19,0.03592003488506308,0.0
20,0.3231351040175075,0.0
21,3.611205716705218,0.0
22,6.869584127318904,0.0
23,-0.24042762365785159,0.0
24,-1.9555305129812584,0.0
25,1.5168242737207598,0.0
26,-0.6616298923451234,0.0
27,0.07048454089051659,0.0
28,0.011193544672098642,0.0
29,0.017447478180998482,0.0
30,-0.07097019263138389,0.0
31,-0.09781094791476602,0.0
32,0.003662927519281177,0.0
33,-0.07986382695007774,0.0
34,-0.03102505067566274,0.0
35,-0.03910398651312602,0.0
36,-0.0514083710482182,0.0
37,0.013012916075190794,0.0
38,0.01041608041393944,0.0
39,-0.04870575442410837,0.0
40,0.27263236633558074,0.0
41,3.5042297521779804,0.0
42,6.82350317413945,0.0
43,-0.25725675729025443,0.0
44,-1.8448392438571009,0.0
45,1.5516015559405258,0.0
46,-0.7027332643429602,0.0
47,0.13135678996037262,0.0
48,-0.02727064607477,0.0
49,0.0010243881277231526,0.0
50,-0.038151392982612706,0.0
51,0.021192915731650903,0.0
52,0.012107634821421808,0.0
53,-0.04303669594198036,0.0
54,-0.03457140561558913,0.0
55,0.029695582019319485,0.0
56,-0.05036035046151463,0.0
57,0.02250436764621548,0.0
58,0.059444933620759775,0.0
59,0.024579358988150456,0.0
60,0.21742435657432022,0.0
61,3.6069163368539168,0.0
62,6.864836537447564,0.0
63,-0.21130282785334922,0.0
64,-1.9328896646374212,0.0
65,1.5553930922972832,0.0
66,-0.7246889654621099,0.0
67,0.10272435061766325,0.0
68,-0.05089373706114613,0.0
69,0.012292054301848626,0.0
70,0.06640254640071991,0.0
71,0.0731088765730262,0.0
72,-0.03671995219386228,0.0
73,0.03798828415281645,0.0
74,0.047290583457321136,0.0
75,0.04408085916210745,0.0
76,0.061679205937267306,0.0
77,-0.01247816925732156,0.0
78,0.013292874516660388,0.0
79,0.035723562234095965,0.0
80,0.2510970664640554,0.0
81,3.60810879695779,0.0
82,6.926857323136437,0.0
83,-0.32633049636180533,0.0
84,-2.0541700883122407,0.0
85,1.5100268970662911,0.0
86,-0.7034758409912267,0.0
87,0.10176035053461967,0.0
88,0.031123285363423726,0.0
89,-0.030835213770951837,0.0
90,0.09132268623865436,0.0
91,0.04776395293691985,0.0
92,0.026949666000309704,0.0
93,0.03616637084396476,0.0
94,0.04617927084180413,0.0
95,0.03202782629597654,0.0
96,0.10026801337882102,0.0
97,0.062025745568215065,0.0
98,0.08695346206075433,0.0
99,0.04898874523737153,0.0
100,0.2987426538528386,0.0
101,3.5457973539133025,0.0
102,6.907756440560424,0.0
103,-0.16020759655616412,0.0
104,-1.8960207773511861,0.0
105,1.6082393450170647,0.0
106,-0.6041955837185634,0.0
107,0.20384166482226979,0.0
108,0.11744467031546821,0.0
109,0.015389407080684907,0.0
110,0.008332779282022564,0.0
111,0.015035853661015806,0.0
112,-0.015181979426539295,0.0
113,0.04206024325904064,0.0
114,0.0440669708716393,0.0
115,-0.0779252113647793,0.0
116,-0.049043075207900584,0.0
117,0.007893873791318801,0.0
118,0.030825408006667006,0.0
119,-0.0011866804716182885,0.0
120,0.29034412804174375,0.0
121,3.5491305465633736,0.0
122,6.941620640484929,0.0
123,-0.198312633017927,0.0
124,-2.0280242738098173,0.0
125,1.5763536360408836,0.0
126,-0.6507152208748193,0.0
127,0.136402038973042,0.0
128,0.013833462147076696,0.0
129,-0.06394884661209271,0.0
130,-0.05147414764296345,0.0
131,-0.019414638973099883,0.0
132,-0.029553185827031443,0.0
133,0.1211260199629297,0.0
134,0.010989062916353204,0.0
135,0.05635887391594066,0.0
136,0.061345660113971565,0.0
137,0.06250676227566258,0.0
138,-0.009887983919959195,0.0
139,-0.030113836132845975,0.0
140,0.3412205847209624,0.0
141,3.560414665176368,0.0
142,6.901690737710867,0.0
143,-0.2763830796312238,0.0
144,-1.942111100716783,0.0
145,1.6090131682506632,0.0
146,-0.7139738685069975,0.0
147,0.1345603036274836,0.0
148,0.04808562183690062,0.0
149,-0.08311723883402931,0.0
150,-0.005000767015828979,0.0
151,0.05238230628984731,0.0
152,0.006191870505401004,0.0
153,0.013205729770260317,0.0
154,0.0052939291014379025,0.0
155,-0.08018951150809749,0.0
156,0.07809236805725231,0.0
157,0.08720251877066829,0.0
158,0.04507358813337661,0.0
159,-0.04314899038494634,0.0
160,0.30919006248784775,0.0
161,3.5343068711199512,0.0
162,6.94435167147305,0.0
163,-0.27272290715495384,0.0
164,-2.0009206484474507,0.0
165,1.5388997046700266,0.0
166,-0.730604957024534,0.0
167,0.13529837399141315,0.0
168,0.029043668318398955,0.0
169,-0.10816594875562155,0.0
170,0.05832387321704531,0.0
171,-0.038570010360930204,0.0
172,-0.0032692896203098294,0.0
173,-0.09487138274697411,0.0
174,0.005815942260447651,0.0
175,0.027135155008549502,0.0
176,-0.04906645231074397,0.0
177,-0.06788584647153775,0.0
178,-0.08066081253365308,0.0
179,0.008956617674868581,0.0
180,0.29045505700268665,0.0
181,3.5053840801933975,0.0
182,6.747910714270726,0.0
183,-0.2620964143191396,0.0
184,-1.9436371229217109,0.0
185,1.4881723465069159,0.0
186,-0.7250031378696106,0.0
187,0.15459916689908,0.0
188,0.05389173206399123,0.0
189,-0.10567832305058755,0.0
190,-0.02064286648842761,0.0
191,0.04458197168327868,0.0
192,-0.0008215853788437512,0.0
193,-0.038829433384994505,0.0
194,-0.0014010847757962748,0.0
195,-0.09046786856378469,0.0
196,-0.11354362482401435,0.0
197,-0.06198074406072759,0.0
198,0.01577038187778055,0.0
199,0.06881021578581846,0.0
200,0.2758551473511178,0.0
201,3.5029342614094863,0.0
202,6.857259282742169,0.0
203,-0.29486321030890494,0.0
204,-1.902629453852129,0.0
205,1.5241011950161834,0.0
206,-0.7267078279665534,0.0
207,0.16575893789246487,0.0
208,0.07330774088885172,0.0
209,-0.011519571272530385,0.0
210,0.005645580036197445,0.0
211,-0.0069570127232238405,0.0
212,0.10209145641591078,0.0
213,0.07102938722405162,0.0
214,0.005953801965265258,0.0
215,0.09621002502704443,0.0
216,0.0823849867189826,0.0
217,0.030755871049685492,0.0
218,0.03977445167336051,0.0
219,-0.051573064035468255,0.0
220,0.27208082676543344,0.0
221,3.547592016600948,0.0
222,6.884821620620155,0.0
223,-0.3621151886332169,0.0
224,-1.9525837188085844,0.0
225,1.5274610491791178,0.0
226,-0.8518915878286495,0.0
227,0.14483534957181907,0.0
228,-0.013877633136014762,0.0
229,-0.0171098845890522,0.0
230,0.034233779306336254,0.0
231,-0.024223631897549905,0.0
232,0.04447295769784603,0.0
233,-0.08632470546054297,0.0
234,-0.05303019401500292,0.0
235,-0.03511966631298265,0.0
236,-0.039739281083355206,0.0
237,-0.05345558038061375,0.0
238,-0.013853277778636222,0.0
239,0.031546463881583636,0.0
240,0.3102530515410872,0.0
241,3.6667779542412497,0.0
242,6.847771371236532,0.0
243,-0.3108434387415966,0.0
244,-1.88046948484505,0.0
245,1.4411008015209914,0.0
246,-0.7969646176967083,0.0
247,0.048892411182072604,0.0
248,0.04653144611046366,0.0
249,-0.15215733146368876,0.0
250,-0.09960270306737422,0.0
251,-0.022986948973956325,0.0
252,-0.05196492036545039,0.0
253,-0.20711719209196694,0.0
254,-0.047358134103473976,0.0
255,-0.026667790406864622,0.0
256,-0.04788837527810129,0.0
257,-0.07384934497264456,0.0
258,0.07191834751792776,0.0
259,-0.028817070837624643,0.0
260,0.20253618998499828,0.0
261,3.556032804065864,0.0
262,6.909599472794445,0.0
263,-0.33410079792428093,0.0
264,-1.903571768770351,0.0
265,1.562691876119837,0.0
266,-0.7177538373315915,0.0
267,0.1349379895780594,0.0
268,0.04764085572798774,0.0
269,-0.00683472240893334,0.0
270,0.03528464798393423,0.0
271,-0.05702070972302733,0.0
272,0.03219689450081388,0.0
273,0.0011304905622582131,0.0
274,0.015431008190284642,0.0
275,-0.12973055115475216,0.0
276,-0.056739023025384354,0.0
277,-0.022120792170822273,0.0
278,0.041720432220621204,0.0
279,0.0390061080798111,0.0
280,0.2423837305222461,0.0
281,3.5051117957881557,0.0
282,6.943248971326893,0.0
283,-0.3376453341208493,0.0
284,-1.876033534845984,0.0
285,1.6268504582073788,0.0
286,-0.7104993781073401,0.0
287,0.051128602306744,0.0
288,-0.054262135573052046,0.0
289,-0.16417570909864362,0.0
290,-0.07237336438158881,0.0
291,0.06002753483314614,0.0
292,0.010294315172496106,0.0
293,0.005668119474663405,0.0
294,0.03381518841233379,0.0
295,-0.01757095217053037,0.0
296,0.037390824167126455,0.0
297,-0.017018238621053946,0.0
298,0.05257852220947577,0.0
299,0.019815440449742715,0.0
300,0.23356845587006186,0.0
301,3.5046438420143664,0.0
302,6.860058987123945,0.0
303,-0.3212727158243924,0.0
304,-1.843201417749631,0.0
305,1.4256986717786284,0.0
306,-0.7653931159049746,0.0
307,0.22936778458539653,0.0
308,0.11179646529748208,0.0
309,-0.06353373299604571,0.0
310,-0.03448948578829954,0.0
311,-0.05635202061857079,0.0
312,0.0053686186404267935,0.0
313,-0.055022237886338,0.0
314,-0.091888206825328,0.0
315,-0.03322769051949555,0.0
316,-0.02090670796418336,0.0
317,-0.058797174956167333,0.0
318,-0.0027172231762036397,0.0
319,-0.06076781302267469,0.0
320,0.3531603922107307,0.0
321,3.5150681844189386,0.0
322,6.748448287309121,0.0
323,-0.44764762425944815,0.0
324,-1.985277510711236,0.0
325,1.443019605641884,0.0
326,-0.7484026139961892,0.0
327,0.07467328202568406,0.0
328,0.058140142628009026,0.0
329,-0.08020276192477327,0.0
330,0.09243551595338682,0.0
331,0.038961306211502934,0.0
332,-0.03180390740441726,0.0
333,0.030087774260809528,0.0
334,-0.029894626237217697,0.0
335,-0.049988513239039224,0.0
336,0.016192542148137524,0.0
337,-0.0005840921364170331,0.0
338,0.01758967556725717,0.0
339,-0.10508499323944893,0.0
340,0.2716470672368927,0.0
341,3.470862856198541,0.0
342,6.864726752645723,0.0
343,-0.24136076831334163,0.0
344,-1.9598150768011873,0.0
345,1.6015000455376687,0.0
346,-0.7789840653244011,0.0
347,0.14343914382955436,0.0
348,-0.08235235742615939,0.0
349,0.02727704270686941,0.0
350,-0.0012129367550549773,0.0
351,-0.08110700073633084,0.0
352,0.012471723882613353,0.0
353,0.01622790914445643,0.0
354,-0.04650075934434191,0.0
355,0.06227758143619529,0.0
356,-0.1285838292692221,0.0
357,0.048650769183004205,0.0
358,-0.05720465636285831,0.0
359,-0.019806217643907692,0.0
360,0.24722933944201098,0.0
361,3.577842187404848,0.0
362,6.869001459032098,0.0
363,-0.27447171437543066,0.0
364,-1.9338658111742453,0.0
365,1.4322430833030637,0.0
366,-0.738979816374954,0.0
367,0.11299502461297396,0.0
368,0.029251118871108546,0.0
369,-0.10143018678919093,0.0
370,0.010795598288075293,0.0
371,-0.026273402282066073,0.0
372,-0.09765197758408108,0.0
373,-0.06490639467094951,0.0
374,0.013230525195699405,0.0
375,-0.07273620753429294,0.0
376,-0.0218024891887681,0.0
377,0.0252927725772486,0.0
378,-0.032487176150475756,0.0
379,-0.06291583160776067,0.0
380,0.37833689234163886,0.0
381,3.6305941677928684,0.0
382,6.846333643781923,0.0
383,-0.38107223079687985,0.0
384,-1.9595077324385077,0.0
385,1.496654197742361,0.0
386,-0.7100829995216337,0.0
387,0.05392601942291127,0.0
388,0.01447478391175444,0.0
389,-0.12034458346513828,0.0
390,-0.0796714631975383,0.0
391,-0.05560719622214823,0.0
392,-0.0015466425341831153,0.0
393,-0.016195126368645018,0.0
394,-0.05256282073405137,0.0
395,-0.026133577919748834,0.0
396,-0.05868120841484807,0.0
397,0.0672835810846076,0.0
398,0.005489453922681083,0.0
399,-0.027079255842578566,0.0
400,0.26871748740559787,0.0
401,3.638771186959868,0.0
402,6.8312033119637245,0.0
403,-0.3545353991195925,0.0
404,-1.8610896991976302,0.0
405,1.5231596769103217,0.0
406,-0.6925478965190707,0.0
407,0.13459750988335023,0.0
408,-0.048558005322686074,0.0
409,-0.04885507945351634,0.0
410,0.05957638916947704,0.0
411,0.04997241149920981,0.0
412,0.04534066587356239,0.0
413,-0.037066112185426464,0.0
414,0.055937449276347785,0.0
415,-0.07321593441729524,0.0
416,0.015878511865596717,0.0
417,0.024964209386161076,0.0
418,0.03241208759166582,0.0
419,-0.0029416997705269607,0.0
420,0.3390579417557734,0.0
421,3.567786644168212,0.0
422,6.854260517328346,0.0
423,-0.3992994948375084,0.0
424,-1.893183372602668,0.0
425,1.5786589554838346,0.0
426,-0.7467816942697867,0.0
427,0.09978963619261327,0.0
428,0.024406209008291664,0.0
429,-0.15380659176097733,0.0
430,0.030696301734545156,0.0
431,0.009272516095498382,0.0
432,-0.001814444616676729,0.0
433,-0.0772754187980371,0.0
434,-0.05738633061469807,0.0
435,-0.083334424683809,0.0
436,0.11862774664680324,0.0
437,-0.01853562717876449,0.0
438,-0.08711498732638959,0.0
439,-0.06692880680556906,0.0
440,0.24282844675887788,0.0
441,3.5358505230011716,0.0
442,6.819474469999949,0.0
443,-0.37349677711256635,0.0
444,-1.9177787408936326,0.0
445,1.5306744727791317,0.0
446,-0.7445160865663489,0.0
447,0.13039992557738284,0.0
448,0.0005918348078788327,0.0
449,-0.023523285765852768,0.0
450,0.09215607333147725,0.0
451,-0.051103817949333136,0.0
452,-0.04572867117478603,0.0
453,0.021971342290427087,0.0
454,-0.05104141670984229,0.0
455,-0.06321591776162108,0.0
456,-0.013908556268678407,0.0
457,0.004750572051470723,0.0
458,-0.019149145515639992,0.0
459,0.033801747298409894,0.0
460,0.22943413671430582,0.0
461,3.508653690252656,0.0
462,6.789473330697163,0.0
463,-0.5041260044325765,0.0
464,-1.9132566753704796,0.0
465,1.5195123026077588,0.0
466,-0.7726984998444955,0.0
467,0.09380580611014029,0.0
468,-0.06998251708454703,0.0
469,-0.046456826379582684,0.0
470,-0.0029751628977407202,0.0
471,-0.04685990229408279,0.0
472,-0.0005651054458242558,0.0
473,0.0689071181495429,0.0
474,-0.027676632329932817,0.0
475,0.10160510391227011,0.0
476,-0.009738367203565017,0.0
477,0.14554958508753496,0.0
478,0.025613183481145343,0.0
479,0.05223756418404849,0.0
480,0.3156304548711971,0.0
481,3.5538450261004595,0.0
482,6.910704193095523,0.0
483,-0.3987325112578337,0.0
484,-1.798133033884182,0.0
485,1.567048598225165,0.0
486,-0.6749480727133671,0.0
487,0.14501226487443247,0.0
488,0.052215351775445326,0.0
489,-0.06542243460004706,0.0
490,0.04993176892037861,0.0
491,0.0016833299617847602,0.0
492,-0.0029651564742496396,0.0
493,-0.09926848763803606,0.0
494,-0.11169550222861191,0.0
495,-0.12749939280959022,0.0
496,-0.012773887645000204,0.0
497,-0.0036483639436065557,0.0
498,-0.07756720639581216,0.0
499,-0.06161985774454367,0.0
500,0.27260837366767376,0.0
501,3.5132696438823126,0.0
502,6.7743550627674285,0.0
503,-0.38386642578890373,0.0
504,-1.8784821386408685,0.0
505,1.4827485316814708,0.0
506,-0.7676823821602868,0.0
507,0.13219869631486592,0.0
508,0.044038824320483304,0.0
509,-0.04983851555248018,0.0
510,-0.02264496617248484,0.0
511,-0.011488643587393732,0.0
512,0.025164101954971145,0.0
513,-0.09187906267892745,0.0
514,-0.05079808556605499,0.0
515,-0.09064484024206676,0.0
516,-0.05896433962696494,0.0
517,-0.016049699702325507,0.0
518,-0.11085949932407088,0.0
519,-0.13308417974071846,0.0
520,0.1922647889827726,0.0
521,3.5182131809408217,0.0
522,6.730768559778162,0.0
523,-0.40425508405757926,0.0
524,-1.892439787289814,0.0
525,1.5101267323174976,0.0
526,-0.8025701548745111,0.0
527,0.06241227666493014,0.0
528,-0.04618581169574196,0.0
529,-0.07778215241355912,0.0
530,-0.033041536587700836,0.0
531,7.597291200041323e-06,0.0
532,-0.1174433762792007,0.0
533,-0.0344734101541019,0.0
534,-0.041955645854177784,0.0
535,-0.06229912250685997,0.0
536,-0.0304885759010178,0.0
537,-0.011302419095287834,0.0
538,-0.03444429102577739,0.0
539,-0.06068562725747245,0.0
540,0.20496805424318207,0.0
541,3.5096533896213264,0.0
542,6.868498509001394,0.0
543,-0.4999615936596722,0.0
544,-1.9880907917975545,0.0
545,1.4403701352786547,0.0
546,-0.7714055771914804,0.0
547,0.05702668932634627,0.0
548,0.015963066398229527,0.0
549,-0.138681545383361,0.0
550,0.02648359746020157,0.0
551,-0.0521355718124235,0.0
552,-0.08053284829017071,0.0
553,-0.16495457792770088,0.0
554,0.01674536233479107,0.0
555,0.025592951116958723,0.0
556,-0.018463171128984268,0.0
557,-0.04933637912763689,0.0
558,0.03056296449186445,0.0
559,-0.03870562935643376,0.0
560,0.32230483068560306,0.0
561,3.5489531203540707,0.0
562,6.7402344629668915,0.0
563,-0.42137755349533235,0.0
564,-1.853969469663949,0.0
565,1.4183977622376789,0.0
566,-0.7297309303010558,0.0
567,0.04822104058953662,0.0
568,-0.05895208393365269,0.0
569,-0.012766106019225565,0.0
570,-0.0029119544452737914,0.0
571,-0.1838388250953846,0.0
572,-0.05498769358121545,0.0
573,-0.009340543642062521,0.0
574,-0.028335299155673357,0.0
575,-0.07510602120990276,0.0
576,-0.13059600070382374,0.0
577,-0.1255862405711739,0.0
578,-0.0771360390188954,0.0
579,-0.01925324889017179,0.0
580,0.16118109501045785,0.0
581,3.5016912185460187,0.0
582,6.732964559844829,0.0
583,-0.4412087847644444,0.0
584,-1.8352400929411603,0.0
585,1.5432380223032145,0.0
586,-0.7300023708338907,0.0
587,0.13019399951528723,0.0
588,-0.009573744378334739,0.0
589,-0.057220955959581675,0.0
590,-0.028478692455369888,0.0
591,-0.033302323898519996,0.0
592,-0.020933005446983705,0.0
593,-0.052620434376309706,0.0
594,-0.04636518312957965,0.0
595,0.0016194027978026007,0.0
596,-0.10218763295188726,0.0
597,-0.0623953055302577,0.0
598,-0.1371448228513632,0.0
599,-0.044462593563006275,0.0
600,0.22666396505867772,0.0
601,3.51939641906642,0.0
602,6.8099374354327225,0.0
603,-0.46532672816940707,0.0
604,-1.9856836779020641,0.0
605,1.4511003488265564,0.0
606,-0.7093172000156533,0.0
607,0.052399111497558104,0.0
608,-0.03291477622719076,0.0
609,-0.09832197953236657,0.0
610,-0.08057983261707638,0.0
611,-0.07338901736576753,0.0
612,-0.1117755331174012,0.0
613,0.03856757948062149,0.0
614,0.011052955417183735,0.0
615,0.04565327915075128,0.0
616,-0.0847842439453772,0.0
617,-0.1296572442676666,0.0
618,-0.20111779352286224,0.0
619,-0.0948001487223558,0.0
620,0.29589311608960894,0.0
621,3.405121544033324,0.0
622,6.7054534127288505,0.0
623,-0.5432127088843278,0.0
624,-1.9327459110116698,0.0
625,1.4174751585862704,0.0
626,-0.7812190931464544,0.0
627,0.18090400259748302,0.0
628,-0.04960751186280113,0.0
629,-0.06265024343460303,0.0
630,-0.06794723925583018,0.0
631,-0.1609940692680995,0.0
632,-0.0529413276966409,0.0
633,-0.057132723682001535,0.0
634,-0.06135962348235799,0.0
635,-0.10382825623452073,0.0
636,-0.023339151765955066,0.0
637,-0.028006356973454993,0.0
638,-0.12181892926202166,0.0
639,-0.09638824536410039,0.0
640,0.26804226599673026,0.0
641,3.538264434554873,0.0
642,6.860837560529825,0.0
643,-0.44439196607325515,0.0
644,-1.8733573288908842,0.0
645,1.540305959644719,0.0
646,-0.7822344638257148,0.0
647,0.03488004967927957,0.0
648,0.06029605449248204,0.0
649,-0.13953110819590667,0.0
650,0.032337354017997186,0.0
651,-0.00677791268263191,0.0
652,-0.11217564623550477,0.0
653,-0.05878505686433913,0.0
654,-0.05569939120707729,0.0
655,-0.017093347604020127,0.0
656,0.06462423648279994,0.0
657,-0.018889545075492398,0.0
658,-0.0207756020518221,0.0
659,0.06582689615985121,0.0
660,0.16299908071608324,0.0
661,3.5704394229167553,0.0
662,6.889880645938239,0.0
663,-0.509857205219822,0.0
664,-1.922472413942237,0.0
665,1.4819258977113994,0.0
666,-0.7036491931176636,0.0
667,0.11313404524822422,0.0
668,0.03252609107420569,0.0
669,-0.02225507425441272,0.0
670,-0.02377108621364638,0.0
671,-0.057257303778014135,0.0
672,-0.07995279242418464,0.0
673,-0.08356329325710005,0.0
674,-0.11417832695049804,0.0
675,0.00422535150180213,0.0
676,-0.14116828663557246,0.0
677,-0.09090872519216747,0.0
678,0.038328197783875445,0.0
679,-0.04546160189299385,0.0
680,0.15538024052381433,0.0
681,3.5210655891958536,0.0
682,6.735671147223082,0.0
683,-0.5002620404242136,0.0
684,-1.9132995054528523,0.0
685,1.5368471464492028,0.0
686,-0.7487137127142927,0.0
687,0.08397531113939365,0.0
688,0.04630244994585911,0.0
689,-0.0008175338109684196,0.0
690,0.0005377258463834939,0.0
691,0.06866003401640336,0.0
692,0.070590456377163,0.0
693,0.11710766721732664,0.0
694,0.058969896469705546,0.0
695,0.01979554538559295,0.0
696,0.043763634230865524,0.0
697,0.05104140341737015,0.0
698,0.06602129542817871,0.0
699,-0.024886348540085562,0.0
700,0.30391986713466607,0.0
701,3.5955222499455375,0.0
702,6.838487265943607,0.0
703,-0.40305740595071626,0.0
704,-1.8894559190120193,0.0
705,1.4952974407546396,0.0
706,-0.8501086287738547,0.0
707,0.09438754460356552,0.0
708,0.010697750089073447,0.0
709,-0.10397750385839385,0.0
710,-0.00455327775379389,0.0
711,-0.06699348325782153,0.0
712,0.004130300297147739,0.0
713,-0.030776526817410436,0.0
714,-0.02656504230800829,0.0
715,0.010970134562898828,0.0
716,0.03148970700750353,0.0
717,0.034388606934627204,0.0
718,0.02974744147116818,0.0
719,0.08975164512568093,0.0
720,0.4024132545627902,0.0
721,3.7397166685950407,0.0
722,6.949234248493372,0.0
723,-0.35329413262711196,0.0
724,-1.845329510998194,0.0
725,1.6323746648997661,0.0
726,-0.732002406069046,0.0
727,0.17401201048032922,0.0
728,-0.0033781409586914717,0.0
729,-0.07852846712139508,0.0
730,0.05648485697107991,0.0
731,-0.029720488821186213,0.0
732,-0.006008284969386866,0.0
733,0.017823488995124065,0.0
734,-0.02090565452416579,0.0
735,-0.10988835965639006,0.0
736,0.008052558311885125,0.0
737,0.04433795939360039,0.0
738,-0.138101011225217,0.0
739,-0.02923343605633469,0.0
740,0.33777005804664595,0.0
741,3.6347730924057715,0.0
742,6.8170697110631435,0.0
743,-0.47365877413597474,0.0
744,-1.8162181480892567,0.0
745,1.5082065624854775,0.0
746,-0.6720878481960358,0.0
747,0.13700360992257463,0.0
748,-0.006897679191802723,0.0
749,-0.05013990023483967,0.0
750,0.03384930114542713,0.0
751,0.009113732202386393,0.0
752,0.08852913376762363,0.0
753,0.14348398061184672,0.0
754,-0.04028678160045967,0.0
755,0.02775968181781986,0.0
756,-0.03564281737695874,0.0
757,0.04447893372481146,0.0
758,0.11400385745989638,0.0
759,0.14645795600908462,0.0
760,0.3612801102146177,0.0
761,3.7264250063767963,0.0
762,6.7955703481043095,0.0
763,-0.391437526871492,0.0
764,-1.836344355209958,0.0
765,1.5102279820176856,0.0
766,-0.8128900745426831,0.0
767,0.13098874152892478,0.0
768,-0.012660237248631637,0.0
769,-0.12896009066582428,0.0
770,-0.10871334687576187,0.0
771,-0.15653744315028445,0.0
772,-0.0873552396894063,0.0
773,-0.08082466862806405,0.0
774,-0.06582702577892147,0.0
775,-0.02984369569520777,0.0
776,-0.05062502212983433,0.0
777,0.0055359594275604385,0.0
778,0.13106361188596483,0.0
779,-0.07442893967313258,0.0
780,0.35575304189412166,0.0
781,3.7134963530354232,0.0
782,6.904393713108348,0.0
783,-0.4114130351430693,0.0
784,-1.8632775131461385,0.0
785,1.6842240598231606,0.0
786,-0.769817462262431,0.0
787,0.19165803930066955,0.0
788,0.10789387706824694,0.0
789,-0.02407231592165078,0.0
790,0.014726728511174438,0.0
791,0.02772393470828351,0.0
792,0.04197665835960378,0.0
793,0.06142377690988378,0.0
794,0.11693202699644696,0.0
795,0.002582415994069262,0.0
796,0.030497824649802094,0.0
797,0.02008866437409331,0.0
798,-0.024412256179105328,0.0
799,-0.008471445107535232,0.0
800,0.3024882313213107,0.0
801,3.7590573608100644,0.0
802,6.818055002470936,0.0
803,-0.35833471060420125,0.0
804,-1.8637210388900343,0.0
805,1.5130965325792751,0.0
806,-0.703590912979048,0.0
807,0.2803164667474814,0.0
808,0.0699469821282006,0.0
809,0.035877824330493635,0.0
810,0.0555795555055662,0.0
811,0.09761757135061702,0.0
812,0.016071192625226473,0.0
813,0.1059442010330259,0.0
814,0.015009616632979086,0.0
815,0.0007359939508879351,0.0
816,0.037866914326805244,0.0
817,0.0572914745170741,0.0
818,0.07335128353561948,0.0
819,-0.03341485103084618,0.0
820,0.3728687219606729,0.0
821,3.6184132754353713,0.0
822,6.83882122547721,0.0
823,-0.408361012358551,0.0
824,-1.76539550946253,0.0
825,1.5741781982716385,0.0
826,-0.6823045009867699,0.0
827,0.20933902630451062,0.0
828,0.09514763387693748,0.0
829,0.02304796989176143,0.0
830,0.07076390772818797,0.0
831,0.17540453853176793,0.0
832,0.06411216523329663,0.0
833,0.11370170667333915,0.0
834,0.052617965807373206,0.0
835,0.10859944820127601,0.0
836,0.08021217343937231,0.0
837,0.0033949676391990605,0.0
838,0.004110961071350144,0.0
839,0.0936010460027957,0.0
840,0.32062174935981946,0.0
841,3.721065314915725,0.0
842,6.868602492444533,0.0
843,-0.4669278510805489,0.0
844,-1.8210073446927764,0.0
845,1.5924976922911218,0.0
846,-0.7332440461690847,0.0
847,0.26292215353390924,0.0
848,0.13399887999322277,0.0
849,0.05766650935374291,0.0
850,0.11880541261767219,0.0
851,0.13201015540599603,0.0
852,-0.056017648365296296,0.0
853,0.020953029040206045,0.0
854,0.007165503762246984,0.0
855,0.0647716734371105,0.0
856,-0.038134789591436055,0.0
857,0.038836976349316245,0.0
858,0.021250247093034552,0.0
859,-0.06705959113570534,0.0
860,0.3288394208376213,0.0
861,3.6777814250713985,0.0
862,6.939794453101952,0.0
863,-0.465258100463548,0.0
864,-1.7665325410511645,0.0
865,1.5757076837632416,0.0
866,-0.7269779928755498,0.0
867,0.23868845103036887,0.0
868,-0.007471484846396398,0.0
869,0.040800112797506366,0.0
870,0.05919141053185294,0.0
871,0.024339711014707336,0.0
872,0.08118994188856685,0.0
873,-0.0009238924819627084,0.0
874,0.10093080830089603,0.0
875,0.10624954924741102,0.0
876,0.01961665013690421,0.0
877,0.0048286373606197044,0.0
878,0.06708569146565677,0.0
879,0.05506554269120851,0.0
880,0.29419817916816793,0.0
881,3.6536521683660936,0.0
882,6.920620015149464,0.0
883,-0.4902805969488331,0.0
884,-1.6883255212943418,0.0
885,1.6191227250738869,0.0
886,-0.7481347669043472,0.0
887,0.18954861897560854,0.0
888,0.07382211004192796,0.0
889,0.009762886015007074,0.0
890,0.033299787320844806,0.0
891,-0.020143698202129086,0.0
892,0.044368890212555946,0.0
893,0.03623642016954537,0.0
894,-0.008701829543819192,0.0
895,0.013032161348275846,0.0
896,0.02734098901902233,0.0
897,0.13597259157200528,0.0
898,0.03658171046452944,0.0
899,0.07003065398519251,0.0
900,0.3077156679876711,0.0
901,3.722621990155919,0.0
902,6.838568278018726,0.0
903,-0.35529651125357853,0.0
904,-1.777215081611207,0.0
905,1.4832075623566217,0.0
906,-0.6980488046554749,0.0
907,0.18884441071133506,0.0
908,0.12701962520959847,0.0
909,0.05850418572596784,0.0
910,0.010966793382790323,0.0
911,0.05596820878026962,0.0
912,-0.003678806966601493,0.0
913,0.03679457447434818,0.0
914,-0.013710654197221853,0.0
915,-0.06303550548645578,0.0
916,0.03923887038625531,0.0
917,0.067778913480248,0.0
918,0.07160994838065526,0.0
919,0.05867926317284291,0.0
920,0.382749272323298,0.0
921,3.8099446085067457,0.0
922,6.810593144657388,0.0
923,-0.4231320468470054,0.0
924,-1.734383839009387,0.0
925,1.5143958045257189,0.0
926,-0.7415611632191096,0.0
927,0.17830187729383504,0.0
928,0.1369424106825306,0.0
929,0.026040511886767495,0.0
930,0.0382091680189653,0.0
931,0.06100189856943281,0.0
932,0.05927770071969831,0.0
933,0.0649570531082759,0.0
934,0.1427553990688312,0.0
935,0.12107680112079036,0.0
936,0.13228555939603281,0.0
937,0.0026498210327549065,0.0
938,0.07606584134527013,0.0
939,0.09802831172580122,0.0
940,0.482081857478779,0.0
941,3.7777678096524347,0.0
942,6.866979446753015,0.0
943,-0.3603824902133275,0.0
944,-1.7511764451885643,0.0
945,1.6423070112738811,0.0
946,-0.6863536713423807,0.0
947,0.2202548198733356,0.0
948,0.10525886249062757,0.0
949,0.020702300852664245,0.0
950,0.1824990520978825,0.0
951,0.04739451764878875,0.0
952,0.012713235445170543,0.0
953,0.06633636393817527,0.0
954,0.05071160536962694,0.0
955,0.15359432962894307,0.0
956,0.053570783891522894,0.0
957,0.08553171845706534,0.0
958,0.006513768333079754,0.0
959,0.012716636518971279,0.0
960,0.28195756018719675,0.0
961,3.627095993168447,0.0
962,6.840027736393506,0.0
963,-0.4149532100275373,0.0
964,-1.7992179882166668,0.0
965,1.5319429378517995,0.0
966,-0.7081531039861331,0.0
967,0.14513322421914418,0.0
968,0.0244003736553799,0.0
969,-0.12139299496409979,0.0
970,0.0031963230450475465,0.0
971,-0.07325357930480736,0.0
972,-0.0209148930685823,0.0
973,0.032089422121357,0.0
974,0.027939402696763024,0.0
975,0.07792113339393751,0.0
976,0.1193584857033863,0.0
977,-0.09279110266359712,0.0
978,-0.026980719708722463,0.0
979,0.023632151207196354,0.0
980,0.2780730540754851,0.0
981,3.637768199848799,0.0
982,6.804138038495943,0.0
983,-0.4608031999198344,0.0
984,-1.755683648407557,0.0
985,1.5053098543985826,0.0
986,-0.6548107921188594,0.0
987,0.1623633941026441,0.0
988,-0.0049101682166165575,0.0
989,-0.0911523123868867,0.0
990,0.048180657416418415,0.0
991,0.038711803711039175,0.0
992,-0.04840884630658111,0.0
993,0.05857780354821387,0.0
994,-0.041036250872748474,0.0
995,0.06530174073726656,0.0
996,-0.02236792536329255,0.0
997,-0.00045018777115585,0.0
998,-0.04691650806391864,0.0
999,-0.023431957565904576,0.0
1000,0.38760131320709595,0.0
1001,3.624060104388295,0.0
1002,6.800489293734301,0.0
1003,-0.5439049964861398,0.0
1004,-1.7834317670241142,0.0
1005,1.564265749284423,0.0
1006,-0.7348477254191139,0.0
1007,0.11332949870814299,0.0
1008,-0.0013037178557930504,0.0
1009,-0.09424880662069252,0.0
1010,0.06666835756852543,0.0
1011,0.049708056296096946,0.0
1012,0.05059014072066127,0.0
1013,-0.018691122598697273,0.0
1014,0.10672566675695833,0.0
1015,0.041037216471509985,0.0
1016,0.06751559252334902,0.0
1017,0.013384885250459508,0.0
1018,0.06336196812561001,0.0
1019,-0.008114435251258274,0.0
1020,0.28572914764272445,0.0
1021,3.6018436009927117,0.0
1022,6.951833127693177,0.0
1023,-0.5297447394744815,0.0
1024,-1.7732984371259224,0.0
1025,1.5023009549591395,0.0
1026,-0.6830618629423082,0.0
1027,0.10975732278320946,0.0
1028,0.0028409057223155003,0.0
1029,0.0018154976196200906,0.0
1030,0.1104226210332197,0.0
1031,0.08610220964961543,0.0
1032,0.03061635421124414,0.0
1033,-0.10920082660449165,0.0
1034,-0.07362012735000814,0.0
1035,0.040500731587933034,0.0
1036,-0.044401478931630725,0.0
1037,0.06021905515022412,0.0
1038,0.02993413044235962,0.0
1039,0.06386969381140403,0.0
1040,0.2516728486428454,0.0
1041,3.674724371608572,0.0
1042,6.70143671174642,0.0
1043,-0.4849771369534537,0.0
1044,-1.7631610106654476,0.0
1045,1.609012708926304,0.0
1046,-0.6660619982545315,0.0
1047,0.1915512712488324,0.0
1048,0.024409597915133672,0.0
1049,-0.0028610072824352207,0.0
1050,0.11699562680929315,0.0
1051,0.12253675809267617,0.0
1052,0.083160099213404,0.0
1053,0.11135423236337691,0.0
1054,0.053722460659985254,0.0
1055,-0.04197082103354939,0.0
1056,-0.0411174532949623,0.0
1057,0.097747732670994,0.0
1058,-0.04891907581227173,0.0
1059,0.08055650956516214,0.0
1060,0.2519546838880287,0.0
1061,3.7125014287596043,0.0
1062,6.772442997060969,0.0
1063,-0.5479164105583789,0.0
1064,-1.7948795586857658,0.0
1065,1.5110655281016696,0.0
1066,-0.7715413084852724,0.0
1067,0.1626550301329112,0.0
1068,0.009852312372096696,0.0
1069,-0.10764570358681705,0.0
1070,0.0366047356290108,0.0
1071,-0.06729282877104123,0.0
1072,-0.028681647503794525,0.0
1073,-0.004320816517893065,0.0
1074,0.041539530674749164,0.0
1075,0.02730955747494805,0.0
1076,0.1367185112564004,0.0
1077,-0.022349860682472737,0.0
1078,0.04670258813346392,0.0
1079,0.09052836264674191,0.0
1080,0.3315611896056607,0.0
1081,3.7124888387955655,0.0
1082,6.712522068991801,0.0
1083,-0.5184309009751805,0.0
1084,-1.7307059620949494,0.0
1085,1.5301245030170043,0.0
1086,-0.735377092957794,0.0
1087,0.016195464022562292,0.0
1088,-0.057857924089313964,0.0
1089,-0.13500476285981527,0.0
1090,-0.09776602813060786,0.0
1091,-0.08554390518556182,0.0
1092,-0.06401557662757362,0.0
1093,-0.036441463049645906,0.0
1094,-0.06571845138628793,0.0
1095,0.04394089702490568,0.0
1096,0.025691086736519476,0.0
1097,0.005920034038076017,0.0
1098,-0.0012377067699438603,0.0
1099,0.05466134194733764,0.0
1100,0.3985882583776713,0.0
1101,3.7267444029077814,0.0
1102,6.900462177068807,0.0
1103,-0.5208526180321972,0.0
1104,-1.7411776937806835,0.0
1105,1.5973384463902471,0.0
1106,-0.8177030966903234,0.0
1107,0.10996467726746287,0.0
1108,0.0662340948303901,0.0
1109,-0.14134491876928879,0.0
1110,0.0910893711564701,0.0
1111,0.040811714285584,0.0
1112,-0.037091452605554576,0.0
1113,-0.06069042587394272,0.0
1114,-0.04047743967275791,0.0
1115,-0.07769278499979287,0.0
1116,-0.06175959238351883,0.0
1117,-0.06944780635575944,0.0
1118,0.034994996659971384,0.0
1119,-0.001197244974075199,0.0
1120,0.34289574074455575,0.0
1121,3.589720784066723,0.0
1122,6.81131725667672,0.0
1123,-0.530254478002347,0.0
1124,-1.7659270524217905,0.0
1125,1.4644777671089728,0.0
1126,-0.7052398931070556,0.0
1127,0.18112649962237665,0.0
1128,0.05126857028280905,0.0
1129,-0.05078057482250071,0.0
1130,-0.051079298152896205,0.0
1131,-0.06374972091450463,0.0
1132,-0.04693842069680251,0.0
1133,-0.01403276385950935,0.0
1134,-0.03248146122126049,0.0
1135,-0.08631293093973316,0.0
1136,0.005193980902924215,0.0
1137,-0.03348254426453478,0.0
1138,-0.016672069225008128,0.0
1139,-0.06928310958175334,0.0
1140,0.3403642372735381,0.0
1141,3.7414286439144053,0.0
1142,6.759365283149571,0.0
1143,-0.5601561102654654,0.0
1144,-1.8265592295176778,0.0
1145,1.4907551612738188,0.0
1146,-0.7450850950595814,0.0
1147,0.17171685241117085,0.0
1148,0.062313274106480784,0.0
1149,-0.057748726248737225,0.0
1150,-0.03243727679873397,0.0
1151,0.015359897383184586,0.0
1152,-0.0017975562207179323,0.0
1153,-0.028725812155815475,0.0
1154,0.07331705872697804,0.0
1155,0.04033857735807985,0.0
1156,0.0069914127212239875,0.0
1157,-0.01699082113267819,0.0
1158,0.06092331153613456,0.0
1159,-0.0003307070926726243,0.0
1160,0.33570997125950686,0.0
1161,3.68469459227261,0.0
1162,6.706586920866828,0.0
1163,-0.6084439893002562,0.0
1164,-1.708837869972977,0.0
1165,1.5341298883711494,0.0
1166,-0.8506943145787846,0.0
1167,0.0557328358729421,0.0
1168,-0.05874652465430909,0.0
1169,-0.0403337846611722,0.0
1170,0.04468534123793732,0.0
1171,0.07038180704310801,0.0
1172,-0.02549804028665149,0.0
1173,-0.044390732666816514,0.0
1174,0.06525061519562837,0.0
1175,0.019829743252751428,0.0
1176,0.014572002492282441,0.0
1177,0.08529752501284028,0.0
1178,-0.0787635605098072,0.0
1179,-0.09797461159929972,0.0
1180,0.3096925494263474,0.0
1181,3.777258962078453,0.0
1182,6.847919242621677,0.0
1183,-0.595156490567343,0.0
1184,-1.708238748787522,0.0
1185,1.6423092596144881,0.0
1186,-0.7163187808629922,0.0
1187,0.3280766672899006,0.0
1188,0.14707969235383883,0.0
1189,-0.011297754421506032,0.0
1190,0.11094977685158128,0.0
1191,-0.07314983090098191,0.0
1192,0.04535752080790034,0.0
1193,0.060353231779400045,0.0
1194,-0.031572253317771415,0.0
1195,0.07241683343576277,0.0
1196,0.04282791634637316,0.0
1197,0.09502523215861083,0.0
1198,-0.02346321752403626,0.0
1199,-0.03357051794151395,0.0
1200,0.29375256778056325,0.0
1201,3.761115562651234,0.0
1202,6.83905661996751,0.0
1203,-0.5516465451657271,0.0
1204,-1.7132335981773834,0.0
1205,1.4998509740054402,0.0
1206,-0.7975719753265799,0.0
1207,0.15302093692167285,0.0
1208,0.0643077813553553,0.0
1209,-0.06315113843108931,0.0
1210,0.056122481673319125,0.0
1211,0.03518949708381591,0.0
1212,-0.004119664663606928,0.0
1213,-0.05542733017179986,0.0
1214,0.03211368050769231,0.0
1215,-0.007625491857864833,0.0
1216,0.021060843359553348,0.0
1217,-0.019885071230621915,0.0
1218,0.011284790880604384,0.0
1219,0.025517042425667144,0.0
1220,0.32622436390835396,0.0
1221,3.718994098770992,0.0
1222,6.859263213802475,0.0
1223,-0.5967036828541541,0.0
1224,-1.7847739020841673,0.0
1225,1.5236705997193933,0.0
1226,-0.7098676178570048,0.0
1227,0.15963001678836522,0.0
1228,0.002446078361185239,0.0
1229,-0.1609887771039132,0.0
1230,0.07441344405052608,0.0
1231,-0.052402436351419925,0.0
1232,-0.031764028388089886,0.0
1233,-0.0340929349641535,0.0
1234,0.10541683781911729,0.0
1235,-0.025431055736401934,0.0
1236,0.07825143237212936,0.0
1237,-0.007567211542490874,0.0
1238,0.042170591435727205,0.0
1239,-0.0549128429136333,0.0
1240,0.2688669314708097,0.0
1241,3.624609383785261,0.0
1242,6.714796378445833,0.0
1243,-0.6296070162061502,0.0
1244,-1.8058356003153477,0.0
1245,1.305728799390046,0.0
1246,-0.821462116247741,0.0
1247,-0.017710828043893415,0.0
1248,-0.14669513303513393,0.0
1249,-0.16434999375394882,0.0
1250,-0.044743209617810975,0.0
1251,-0.1022827235874253,0.0
1252,-0.1363251625784956,0.0
1253,0.008094796658861717,0.0
1254,-0.06972286859757489,0.0
1255,-0.04089421181170726,0.0
1256,-0.005585489361966123,0.0
1257,-0.03176064500723178,0.0
1258,-0.03135423690783886,0.0
1259,-0.08181013877961836,0.0
1260,0.2556082213426427,0.0
1261,3.7200011346931063,0.0
1262,6.80506645416181,0.0
1263,-0.7261495524505013,0.0
1264,-1.7501268639842789,0.0
1265,1.3927866943505822,0.0
1266,-0.8112394802339463,0.0
1267,0.10764725584932382,0.0
1268,-0.09412556166648524,0.0
1269,-0.10387409368782893,0.0
1270,-0.01624107072656987,0.0
1271,-0.15749746830005545,0.0
1272,-0.09659575398835882,0.0
1273,-0.05543664649822422,0.0
1274,-0.06058367471197902,0.0
1275,-0.034063320445978505,0.0
1276,-0.10445835997405294,0.0
1277,-0.120357675183128,0.0
1278,-0.02859523602266388,0.0
1279,-0.08330066630743621,0.0
1280,0.2872372921733095,0.0
1281,3.694421138173354,0.0
1282,6.752200637229403,0.0
1283,-0.6511925082701476,0.0
1284,-1.7613834202436596,0.0
1285,1.5129906020576156,0.0
1286,-0.8841098830506807,0.0
1287,0.08384729219527753,0.0
1288,-0.027295498904149174,0.0
1289,-0.06701857265454048,0.0
1290,-0.09670896594630546,0.0
1291,-0.12745455411833073,0.0
1292,-0.04559921127975495,0.0
1293,-0.0873196510240783,0.0
1294,-0.09337930018318864,0.0
1295,-0.0700671385000838,0.0
1296,-0.06368627669279628,0.0
1297,-0.1350302466632121,0.0
1298,-0.13804579782003712,0.0
1299,-0.0855783914050467,0.0
1300,0.18956518459769442,0.0
1301,3.6851609218207084,0.0
1302,6.621566893208781,0.0
1303,-0.7604191956888768,0.0
1304,-1.8901985186107921,0.0
1305,1.3527066318865653,0.0
1306,-0.8562999020283454,0.0
1307,0.036269367330127776,0.0
1308,-0.02500928645410873,0.0
1309,-0.20625130267995667,0.0
1310,-0.033021617735494294,0.0
1311,-0.017585182734158947,0.0
1312,-0.07841010778942115,0.0
1313,-0.10251201965596729,0.0
1314,-0.05226334499779234,0.0
1315,-0.0700444711678278,0.0
1316,-0.0764125622650785,0.0
1317,-0.04613229435707021,0.0
1318,-0.08136783479899277,0.0
1319,-0.10087905821543802,0.0
1320,0.212904238265537,0.0
1321,3.816228628404113,0.0
1322,6.796784145669557,0.0
1323,-0.669318029434433,0.0
1324,-1.8495073164502518,0.0
1325,1.435368112398758,0.0
1326,-0.8903076103091455,0.0
1327,0.11445574100589694,0.0
1328,-0.059346913753318936,0.0
1329,-0.15544763818550822,0.0
1330,-0.05833499024891241,0.0
1331,-0.07192109476317794,0.0
1332,-0.0949781290331658,0.0
1333,-0.06490481674204925,0.0
1334,-0.018762821406698257,0.0
1335,-0.12021227815143151,0.0
1336,-0.1774436363864988,0.0
1337,-0.11430361755366905,0.0
1338,-0.17676192756422,0.0
1339,-0.0362026920895306,0.0
1340,0.24422945798867957,0.0
1341,3.588272120452915,0.0
1342,6.602396943192639,0.0
1343,-0.758644785181231,0.0
1344,-1.8240512511703337,0.0
1345,1.3760703321050856,0.0
1346,-0.8762501257410986,0.0
1347,0.08311897186116829,0.0
1348,-0.09993620633254174,0.0
1349,-0.1032072868326484,0.0
1350,0.03492363241774882,0.0
1351,-0.11479228593885006,0.0
1352,0.018847108152826364,0.0
1353,-0.1353437298458166,0.0
1354,-0.16338622830752542,0.0
1355,0.025450207422135357,0.0
1356,-0.0704414818874038,0.0
1357,0.02307752845931338,0.0
1358,-0.12146207458067151,0.0
1359,-0.018889095681638907,0.0
1360,0.18496886880189553,0.0
1361,3.66971621836821,0.0
1362,6.72127248082929,0.0
1363,-0.6264314813546505,0.0
1364,-1.7805081935304747,0.0
1365,1.4876137511055498,0.0
1366,-0.8680083355553762,0.0
1367,0.06561612109592485,0.0
1368,-0.03597423995982975,0.0
1369,-0.12841257927138175,0.0
1370,-0.08138560133030387,0.0
1371,-0.042702394573871455,0.0
1372,0.026259554227236144,0.0
1373,-0.09805888978261523,0.0
1374,-0.05324101467164211,0.0
1375,-0.08281168297673067,0.0
1376,-0.03980521226245222,0.0
1377,-0.022919440135209364,0.0
1378,-0.08949346980005281,0.0
1379,-0.09614440816434455,0.0
1380,0.27382836454097015,0.0
1381,3.6275814771672983,0.0
1382,6.651735520443151,0.0
1383,-0.7889732896469371,0.0
1384,-1.8619918513547744,0.0
1385,1.4550694267165019,0.0
1386,-0.8323840773150477,0.0
1387,0.05338095145992279,0.0
1388,-0.14402298965964191,0.0
1389,-0.17167596431628146,0.0
1390,-0.07828474728278909,0.0
1391,-0.022224142566261346,0.0
1392,-0.0982042173420908,0.0
1393,-0.04994570580210986,0.0
1394,-0.15662715234449798,0.0
1395,-0.13316696746870668,0.0
1396,-0.012479143242833349,0.0
1397,-0.03633020509777086,0.0
1398,-0.06766038930801654,0.0
1399,-0.006637988901852382,0.0
1400,0.3171905552092325,0.0
1401,3.63666183712597,0.0
1402,6.801942403949688,0.0
1403,-0.6782644601920138,0.0
1404,-1.8443508005457552,0.0
1405,1.4936176754629966,0.0
1406,-0.8212703275708291,0.0
1407,0.14984445485595974,0.0
1408,-0.05159052843468047,0.0
1409,-0.04570036993442532,0.0
1410,-0.054553301109031074,0.0
1411,-0.06312925923957738,0.0
1412,-0.09977205412674534,0.0
1413,-0.07927217909627049,0.0
1414,-0.02115009426390807,0.0
1415,-0.0718806284847361,0.0
1416,-0.09711971762380868,0.0
1417,-0.1418296570443234,0.0
1418,0.026917683023041178,0.0
1419,-0.07560896433973366,0.0
1420,0.34471428408045823,0.0
1421,3.666296384989419,0.0
1422,6.674416346481227,0.0
1423,-0.7416263650464491,0.0
1424,-1.8408942273087612,0.0
1425,1.5012098867117427,0.0
1426,-0.7538331348560994,0.0
1427,0.11158471434497799,0.0
1428,-0.03551835199184222,0.0
1429,-0.16691835577442934,0.0
1430,-0.1288939575749089,0.0
1431,-0.04986430843743926,0.0
1432,-0.0255206684964362,0.0
1433,-0.0674555583831541,0.0
1434,-0.024656455086487675,0.0
1435,-0.08476338005994008,0.0
1436,-0.09727126610805326,0.0
1437,-0.04134015819826213,0.0
1438,-0.02131927490768644,0.0
1439,-0.00825045120789028,0.0
1440,0.2754769609153613,0.0
1441,3.6966252261813413,0.0
1442,6.649139359914681,0.0
1443,-0.6288801579136406,0.0
1444,-1.9171384509951752,0.0
1445,1.3155943080144739,0.0
1446,-0.8093308512514725,0.0
1447,0.13161615545668917,0.0
1448,-0.047313241852586715,0.0
1449,-0.13024878268318651,0.0
1450,-0.07920584766430663,0.0
1451,-0.1938859780090675,0.0
1452,-0.08606595705779586,0.0
1453,-0.0030297944088470696,0.0
1454,-0.09381242889179335,0.0
1455,-0.06898401226006398,0.0
1456,-0.0835386538119926,0.0
1457,-0.03165698581777994,0.0
1458,-0.05430173746397485,0.0
1459,-0.16466162043943872,0.0
1460,0.24342236921449156,0.0
1461,3.7121295981652245,0.0
1462,6.742792519005656,0.0
1463,-0.7731989819143902,0.0
1464,-1.778414372065602,0.0
1465,1.3809494736630552,0.0
1466,-0.869865034568913,0.0
1467,0.08599131063445534,0.0
1468,-0.06431371161336488,0.0
1469,-0.17877657704901892,0.0
1470,-0.09522529163489225,0.0
1471,-0.07073102869886459,0.0
1472,-0.0065530159490774925,0.0
1473,-0.05941376500855889,0.0
1474,-0.11257590457917657,0.0
1475,-0.011322303290068204,0.0
1476,-0.037853696111979085,0.0
1477,0.002264111332573898,0.0
1478,-0.025867388465451495,0.0
1479,-0.020049272689062078,0.0
1480,0.2656034324361325,0.0
1481,3.773025118800788,0.0
1482,6.704382019716583,0.0
1483,-0.6314605948018636,0.0
1484,-1.6636952157167784,0.0
1485,1.5104110052516408,0.0
1486,-0.7508136155785542,0.0
1487,0.1977093680135417,0.0
1488,-0.05546317875499506,0.0
1489,0.004266999698061644,0.0
1490,-0.03429268280126561,0.0
1491,-0.033347719895113856,0.0
1492,-0.13075568131339094,0.0
1493,-0.07640272575157382,0.0
1494,-0.12186066712254244,0.0
1495,0.0417132718593463,0.0
1496,-0.06533742977343737,0.0
1497,-0.05073472175224779,0.0
1498,-0.04517609942966433,0.0
1499,-0.07185338608201175,0.0
1500,0.2570195693275098,0.0
1501,3.7258155495290772,0.0
1502,6.804015698094914,0.0
1503,-0.7324674070264205,0.0
1504,-1.8375762970005962,0.0
1505,1.4287792028241544,0.0
1506,-0.7892587336641277,0.0
1507,0.07124121869414085,0.0
1508,-0.09567192081796003,0.0
1509,-0.0813765403029677,0.0
1510,-0.015463933156220452,0.0
1511,-0.1184546764025167,0.0
1512,-0.16574404444207488,0.0
1513,-0.1346259879769552,0.0
1514,-0.011113776084416563,0.0
1515,-0.047083276033755186,0.0
1516,-0.08499954856942107,0.0
1517,-0.09678134718375404,0.0
1518,-0.02253622848433451,0.0
1519,-0.08687397156295491,0.0
1520,0.20918915346799635,0.0
1521,3.6745822528252763,0.0
1522,6.660955828696713,0.0
1523,-0.7815433912053965,0.0
1524,-1.6851234145623253,0.0
1525,1.4413005989660777,0.0
1526,-0.7964978381093659,0.0
1527,0.07381184233905312,0.0
1528,-0.059866964605255146,0.0
1529,-0.08616422124478976,0.0
1530,-0.03313643669937903,0.0
1531,-0.16913678005673036,0.0
1532,0.042929390993054345,0.0
1533,-0.1219824508084653,0.0
1534,-0.0988469623588817,0.0
1535,-0.07116655049194334,0.0
1536,0.06763918245401562,0.0
1537,-0.1364176354693002,0.0
1538,-0.09129580979006713,0.0
1539,-0.05464182179720116,0.0
1540,0.18171490470294796,0.0
1541,3.7307476821346226,0.0
1542,6.7416665405314955,0.0
1543,-0.6873737528851736,0.0
1544,-1.7837614001128568,0.0
1545,1.4372995209817971,0.0
1546,-0.8668187685048244,0.0
1547,0.12306724254210305,0.0
1548,0.0015425493110107352,0.0
1549,-0.12598267250059297,0.0
1550,-0.0690393227806036,0.0
1551,-0.021553891193176702,0.0
1552,-0.09782338606245838,0.0
1553,-0.0914426462944762,0.0
1554,-0.05767045182856273,0.0
1555,-0.1340426785257232,0.0
1556,-0.11508558121045666,0.0
1557,-0.04043048372404874,0.0
1558,0.018653402636041705,0.0
1559,0.0005733410134630135,0.0
1560,0.1937365638171213,0.0
1561,3.6551929703424246,0.0
1562,6.615906600804165,0.0
1563,-0.7488799441470454,0.0
1564,-1.749749182114694,0.0
1565,1.4833792070553198,0.0
1566,-0.794564104641667,0.0
1567,0.14225584884441336,0.0
1568,-0.026642504087116665,0.0
1569,0.010470884127467217,0.0
1570,-0.044443738226354355,0.0
1571,-0.12666192076287044,0.0
1572,-0.015113119787909895,0.0
1573,-0.05526137777359946,0.0
1574,-0.10977051981471353,0.0
1575,-0.058526560915420356,0.0
1576,-0.03858428668632086,0.0
1577,0.012014414861993838,0.0
1578,-0.12755820141125923,0.0
1579,-0.09107038261791849,0.0
1580,0.2801796589277994,0.0
1581,3.7879575651950157,0.0
1582,6.689356909826911,0.0
1583,-0.6735389782198365,0.0
1584,-1.7023855898067108,0.0
1585,1.473635706625401,0.0
1586,-0.7673314571640079,0.0
1587,0.13137735131403447,0.0
1588,-0.11203165955301111,0.0
1589,-0.025106653142747425,0.0
1590,0.009578058854497296,0.0
1591,-0.061943425135006946,0.0
1592,0.04478333429561211,0.0
1593,-0.049932377558651916,0.0
1594,-0.0889441562242124,0.0
1595,0.0330019245048273,0.0
1596,-0.0904690935141475,0.0
1597,-0.002120947569473876,0.0
1598,-0.009658324075465186,0.0
1599,-0.09802087241803567,0.0
1600,0.29156995782962164,0.0
1601,3.7346132826862477,0.0
1602,6.758087909517807,0.0
1603,-0.689813305749839,0.0
1604,-1.7549479256641378,0.0
1605,1.491458312743002,0.0
1606,-0.8199461231229282,0.0
1607,0.09178738339288138,0.0
1608,-0.10868721723694841,0.0
1609,-0.13505166082491707,0.0
1610,-0.14403396927336837,0.0
1611,-0.1122377099369676,0.0
1612,-0.062075403978133,0.0
1613,-0.026178666831207023,0.0
1614,0.01197650962766822,0.0
1615,-0.06434587858101941,0.0
1616,-0.14226643947974726,0.0
1617,-0.10731874409225732,0.0
1618,-0.05531260465121003,0.0
1619,0.011810385606724927,0.0
1620,0.3694021503387924,0.0
1621,3.7527605696437027,0.0
1622,6.693888265005805,0.0
1623,-0.6946644983990555,0.0
1624,-1.8028048931413694,0.0
1625,1.412772579833763,0.0
1626,-0.7763665143907384,0.0
1627,0.15540953268707228,0.0
1628,0.02574264557992635,0.0
1629,0.021114860731503808,0.0
1630,0.001983457574414021,0.0
1631,0.08346850535176226,0.0
1632,-0.03264505341643947,0.0
1633,-0.07726558469284474,0.0
1634,-0.11708502701581028,0.0
1635,0.0025141833694763555,0.0
1636,0.03550351518162517,0.0
1637,0.01932163943929487,0.0
1638,-0.00614881579035945,0.0
1639,0.03249460235644374,0.0
1640,0.3066034197208398,0.0
1641,3.719219539041766,0.0
1642,6.738408269757936,0.0
1643,-0.7882214501557341,0.0
1644,-1.7676882784353833,0.0
1645,1.5172052519151822,0.0
1646,-0.7797257834313707,0.0
1647,0.18451988929810564,0.0
1648,0.09174577457983207,0.0
1649,-0.04036288761472555,0.0
1650,-0.04278020047733891,0.0
1651,0.016161535812227977,0.0
1652,0.030964313453745035,0.0
1653,0.008002075412042915,0.0
1654,0.013186070527493205,0.0
1655,0.018209417252906528,0.0
1656,0.001235869903517161,0.0
1657,0.05124206121998123,0.0
1658,0.053467122496436585,0.0
1659,0.03309676127286191,0.0
1660,0.31366301187300144,0.0
1661,3.769107306519572,0.0
1662,6.713087014811158,0.0
1663,-0.802706130342083,0.0
1664,-1.6413192847682545,0.0
1665,1.468244365816875,0.0
1666,-0.7774550047521193,0.0
1667,0.16906584267031832,0.0
1668,0.021018608442721673,0.0
1669,-0.09220435515011531,0.0
1670,-0.0702168899201044,0.0
1671,-0.0030160609864440862,0.0
1672,0.05438288291186681,0.0
1673,-0.02719975091167967,0.0
1674,0.011892821893345555,0.0
1675,0.08105207352108726,0.0
1676,0.017435577485590308,0.0
1677,0.11622017722023414,0.0
1678,0.007026925055304171,0.0
1679,-0.01690996561503451,0.0
1680,0.3240935951090961,0.0
1681,3.7943322254151943,0.0
1682,6.745136070776612,0.0
1683,-0.7182650615386418,0.0
1684,-1.6710370597870352,0.0
1685,1.4815819197993563,0.0
1686,-0.8204114981804925,0.0
1687,0.1910443260311534,0.0
1688,0.08830882254056427,0.0
1689,0.04191082993739721,0.0
1690,0.10192056191772164,0.0
1691,0.024526347337145777,0.0
1692,0.042519819522657334,0.0
1693,-0.011997739472676091,0.0
1694,0.002667981770143747,0.0
1695,-0.0900853097731425,0.0
1696,-0.03028185124012661,0.0
1697,-0.08050025510352288,0.0
1698,0.03246825265869389,0.0
1699,-0.005356321641936416,0.0
1700,0.3564045436636168,0.0
1701,3.8381371437337797,0.0
1702,6.721360239424728,0.0
1703,-0.6822063430505758,0.0
1704,-1.6758104644985004,0.0
1705,1.5183275715404696,0.0
1706,-0.8852794493778542,0.0
1707,0.16523494112555953,0.0
1708,0.011136487739361906,0.0
1709,-0.08904166599207758,0.0
1710,-0.057513223875825595,0.0
1711,0.053992347972938524,0.0
1712,-0.010982686009168761,0.0
1713,0.11139099905546265,0.0
1714,0.016633293681834006,0.0
1715,0.040849551829351176,0.0
1716,0.07427541673456263,0.0
1717,-0.028019040523045366,0.0
1718,-0.006869636234124012,0.0
1719,-0.0008757540415230709,0.0
1720,0.35032206619100364,0.0
1721,3.8046803323950145,0.0
1722,6.8091123528862685,0.0
1723,-0.70188512879941,0.0
1724,-1.6181506467534812,0.0
1725,1.4429976876191837,0.0
1726,-0.7506297701450412,0.0
1727,0.20165556561672626,0.0
1728,-0.0013129360515578524,0.0
1729,0.021692268252727326,0.0
1730,-0.057831306296018146,0.0
1731,-0.008533986569585752,0.0
1732,0.021526073471423678,0.0
1733,0.009245954338178068,0.0
1734,0.06942520392011615,0.0
1735,-0.0270317135504914,0.0
1736,0.007697102909462775,0.0
1737,-0.004601450102057727,0.0
1738,-0.11243144328391541,0.0
1739,-0.0065253214984979345,0.0
1740,0.36422274896436024,0.0
1741,3.6630472886111556,0.0
1742,6.769042537982685,0.0
1743,-0.8158230872873131,0.0
1744,-1.7419921813949777,0.0
1745,1.5020473385820534,0.0
1746,-0.8787047581752643,0.0
1747,0.20157354646846415,0.0
1748,-0.011595071229246887,0.0
1749,-0.013083903723595941,0.0
1750,-0.0633646794456779,0.0
1751,-0.05390732697557633,0.0
1752,-0.09099004703295543,0.0
1753,-0.05812464374820951,0.0
1754,0.004955097261715826,0.0
1755,0.024190871914578825,0.0
1756,-0.047458982298337435,0.0
1757,0.030757168967780787,0.0
1758,-0.05795182134708691,0.0
1759,-0.11019025637306265,0.0
1760,0.409940658075287,0.0
1761,3.7950434768664283,0.0
1762,6.652999228260462,0.0
1763,-0.7259108645876358,0.0
1764,-1.625196354529768,0.0
1765,1.4036116038599802,0.0
1766,-0.7898921025426664,0.0
1767,0.20201591486188092,0.0
1768,-0.004016583755469863,0.0
1769,-0.023994335537693454,0.0
1770,-0.020566571701265433,0.0
1771,-0.002139892616307376,0.0
1772,-0.038432593475781485,0.0
1773,0.09231919010218878,0.0
1774,-0.038948165024272514,0.0
1775,-0.048518049230191505,0.0
1776,0.027185910250978537,0.0
1777,-0.08075144452969961,0.0
1778,0.029166772155399052,0.0
1779,0.1244108620943565,0.0
1780,0.42054691829956975,0.0
1781,3.9042634060409407,0.0
1782,6.779958454083626,0.0
1783,-0.6517451614305383,0.0
1784,-1.7522363865469621,0.0
1785,1.4466922003319926,0.0
1786,-0.6449245512186366,0.0
1787,0.1437396667779085,0.0
1788,0.036860534553690864,0.0
1789,0.04958900338036194,0.0
1790,0.11585407380668852,0.0
1791,-0.010088230384840175,0.0
1792,-0.026379784417305863,0.0
1793,0.027843954651667863,0.0
1794,-0.004507176200226556,0.0
1795,-0.036334431797121605,0.0
1796,-0.013583140593391656,0.0
1797,-0.0575712589331334,0.0
1798,0.07343362233340492,0.0
1799,0.024845205507901244,0.0
1800,0.3073264592026122,0.0
1801,3.8322084813666977,0.0
1802,6.686969444813922,0.0
1803,-0.7799654894137109,0.0
1804,-1.574526098561348,0.0
1805,1.5735507958585164,0.0
1806,-0.834683856143781,0.0
1807,0.1369796194825626,0.0
1808,-0.02546406530438531,0.0
1809,0.007138251864037229,0.0
1810,0.01238711280293016,0.0
1811,0.021680515597709733,0.0
1812,-0.0345300003148932,0.0
1813,0.01864383705647444,0.0
1814,-0.001662132503362836,0.0
1815,-0.025249014570695397,0.0
1816,0.011119348752736152,0.0
1817,-0.01041231291108212,0.0
1818,0.03256002319413544,0.0
1819,-0.027384277650236842,0.0
1820,0.2742758864219882,0.0
1821,3.7959372819267547,0.0
1822,6.69009885173397,0.0
1823,-0.7619963055790123,0.0
1824,-1.6497140478995698,0.0
1825,1.3641408877183174,0.0
1826,-0.8026070835024439,0.0
1827,0.12643954232148616,0.0
1828,0.09140965280932692,0.0
1829,-0.14467950503052565,0.0
1830,-0.051405385986652626,0.0
1831,-0.009493428899609361,0.0
1832,-0.039276486633993454,0.0
1833,-0.041442727864946224,0.0
1834,-0.03287239942950484,0.0
1835,-0.049534055275481555,0.0
1836,0.0669275453228606,0.0
1837,-0.037716592812800494,0.0
1838,-0.06163114782035467,0.0
1839,-0.014858082370214402,0.0
1840,0.2849709479066793,0.0
1841,3.825405343412444,0.0
1842,6.71662117370837,0.0
1843,-0.8790798253853485,0.0
1844,-1.5570407166930647,0.0
1845,1.4454516209366899,0.0
1846,-0.7877725513821133,0.0
1847,0.11030502498162564,0.0
1848,-0.06745082599422839,0.0
1849,-0.035134158479568585,0.0
1850,-0.07660767965179938,0.0
1851,-0.017015506126962617,0.0
1852,0.027013204052969402,0.0
1853,-0.03854422042582369,0.0
1854,-0.07333755474374365,0.0
1855,-0.07281021247962974,0.0
1856,0.004386408272530548,0.0
1857,-0.011499326965348437,0.0
1858,0.03328515422526791,0.0
1859,-0.09934026993631008,0.0
1860,0.34927201653444195,0.0
1861,3.746718945792066,0.0
1862,6.777392986645729,0.0
1863,-0.8650857352701968,0.0
1864,-1.6923844366472096,0.0
1865,1.3999279368051358,0.0
1866,-0.8241755119367219,0.0
1867,0.15609451628878415,0.0
1868,0.04873158764211408,0.0
1869,-0.026260284901340247,0.0
1870,-0.06629425743231805,0.0
1871,-0.039883240678350106,0.0
1872,-0.05877542406418371,0.0
1873,0.01835253322105599,0.0
1874,-0.09107737224335624,0.0
1875,0.07344419163999184,0.0
1876,-0.034903290450464045,0.0
1877,-0.08151293696243742,0.0
1878,0.05716377585100564,0.0
1879,0.028104537725415865,0.0
1880,0.24431675823615,0.0
1881,3.8090613786651564,0.0
1882,6.728392367892839,0.0
1883,-0.7917317441833609,0.0
1884,-1.7258877266620452,0.0
1885,1.4598843345339942,0.0
1886,-0.8038832147443963,0.0
1887,0.13094690855640234,0.0
1888,0.023505492670971642,0.0
1889,-0.09083637216494254,0.0
1890,-0.06330968203132328,0.0
1891,-0.06081130364918943,0.0
1892,-0.071526624551061,0.0
1893,-0.11993412270303141,0.0
1894,-0.05877690883904884,0.0
1895,-0.045644963892386314,0.0
1896,-0.09484638102962048,0.0
1897,-0.0659237975057888,0.0
1898,-0.10108034613543539,0.0
1899,-0.04745167468083683,0.0
1900,0.3607513268427485,0.0
1901,3.6765504181989144,0.0
1902,6.742658768937804,0.0
1903,-0.8748941264684189,0.0
1904,-1.6961718050125025,0.0
1905,1.4598550057401531,0.0
1906,-0.8229570807878428,0.0
1907,0.1970992615770756,0.0
1908,0.04139126818424391,0.0
1909,-0.13056451195753435,0.0
1910,0.017046350978336046,0.0
1911,0.049679167468786714,0.0
1912,0.0837162922826447,0.0
1913,0.034340441583720016,0.0
1914,-0.004126577265316282,0.0
1915,-0.03909182081392269,0.0
1916,-0.05783001124307537,0.0
1917,0.008715578767926507,0.0
1918,0.01453503709814876,0.0
1919,-0.015227817418913448,0.0
1920,0.22492684975443905,0.0
1921,3.75006457075228,0.0
1922,6.706617903617648,0.0
1923,-0.9195444386483911,0.0
1924,-1.6039970538715398,0.0
1925,1.4456742881825546,0.0
1926,-0.8644690761476115,0.0
1927,0.11755740389336838,0.0
1928,0.05109844400490502,0.0
1929,0.022173491511306244,0.0
1930,0.022950400304376065,0.0
1931,-0.02032253685561194,0.0
1932,-0.06503649944158768,0.0
1933,-0.09069148827107402,0.0
1934,-0.022414658582185613,0.0
1935,-0.03527950880823248,0.0
1936,-0.031032838619610516,0.0
1937,0.05281163532103255,0.0
1938,-0.03840908827134852,0.0
1939,0.0434683517914596,0.0
1940,0.2743576282928806,0.0
1941,3.8742563908990943,0.0
1942,6.767338116256201,0.0
1943,-0.876638273982748,0.0
1944,-1.635285764005005,0.0
1945,1.3222920282667159,0.0
1946,-0.9080788972840836,0.0
1947,0.1016216770431827,0.0
1948,-0.08985383145789809,0.0
1949,-0.03956502295706266,0.0
1950,-0.03077873063033265,0.0
1951,-0.10684824809528229,0.0
1952,-0.09123738807845516,0.0
1953,-0.0815200609386173,0.0
1954,0.02630206728170529,0.0
1955,-0.006782826611123158,0.0
1956,-0.06710269163697223,0.0
1957,0.008364945135427772,0.0
1958,-0.07640967954281845,0.0
1959,-0.12072546991375091,0.0
1960,0.308385818074094,0.0
1961,3.8043492855214955,0.0
1962,6.672484050728981,0.0
1963,-0.8585650140997765,0.0
1964,-1.6569066061747681,0.0
1965,1.4492577234611819,0.0
1966,-0.8001857731148079,0.0
1967,0.21969293095918807,0.0
1968,-0.07603697519483801,0.0
1969,-0.06235661364239075,0.0
1970,0.07248971374634937,0.0
1971,0.061888574889040655,0.0
1972,-0.0488130477184064,0.0
1973,0.11109523261941201,0.0
1974,-0.060387974598401756,0.0
1975,0.04516982509813791,0.0
1976,-0.09742048368287043,0.0
1977,0.048290327153347336,0.0
1978,0.02554823014390807,0.0
1979,-0.07863702172586395,0.0
1980,0.38639232464066037,0.0
1981,3.910296705806827,0.0
1982,6.74461469781766,0.0
1983,-0.9070570830614941,0.0
1984,-1.6187155833631006,0.0
1985,1.5477865250305514,0.0
1986,-0.6817876692413075,0.0
1987,0.22033266669419982,0.0
1988,0.04243308578683762,0.0
1989,0.02121607777168994,0.0
1990,0.10912732576861425,0.0
1991,0.09203991630841826,0.0
1992,-0.009007099327743878,0.0
1993,0.00861844891467483,0.0
1994,0.011219158334377768,0.0
1995,0.11790665818912965,0.0
1996,0.05535797190500328,0.0
1997,0.017764174253302692,0.0
1998,0.11044878032060075,0.0
1999,-0.011303072366715357,0.0
2000,0.3808002472094453,0.0
2001,3.8947133829692238,0.0
2002,6.609359884632448,0.0
2003,-0.8117607146894298,0.0
2004,-1.6901389848620847,0.0
2005,1.3976561664258513,0.0
2006,-0.827474092093163,0.0
2007,0.11597065731258821,0.0
2008,0.029390027903108608,0.0
2009,-0.1804491124901985,0.0
2010,-0.032406136611849684,0.0
2011,-0.031673138153231827,0.0
2012,-0.05092025627110075,0.0
2013,-0.07520632009322992,0.0
2014,-0.014543602392887649,0.0
2015,-0.05671965935055369,0.0
2016,-0.11306239876426534,0.0
2017,-0.07207529063293158,0.0
2018,0.015489185894651376,0.0
2019,0.05456773674895482,0.0
2020,0.36091890784747604,0.0
2021,3.767160584938699,0.0
2022,6.713199936786402,0.0
2023,-0.7209018422075837,0.0
2024,-1.6444549213577233,0.0
2025,1.4996737568953764,0.0
2026,-0.7325549353160442,0.0
2027,0.25083213099049795,0.0
2028,0.05687248247714467,0.0
2029,0.1037173949715483,0.0
2030,0.026777800675992752,0.0
2031,-0.027559528344061713,0.0
2032,0.047935992666732354,0.0
2033,-0.017813147443927937,0.0
2034,0.07400120031448242,0.0
2035,-0.007338210493827848,0.0
2036,0.05180515477936721,0.0
2037,-0.014889246765353855,0.0
2038,-0.04505667075680486,0.0
2039,-0.0167522449361718,0.0
2040,0.4142507525472935,0.0
2041,3.888504520017106,0.0
2042,6.738761374300393,0.0
2043,-0.8249407262215812,0.0
2044,-1.7220461436836703,0.0
2045,1.5298399250477832,0.0
2046,-0.7627573566794225,0.0
2047,0.2615339543445691,0.0
2048,0.0591262258330066,0.0
2049,-0.080292759684536,0.0
2050,0.09931955458746142,0.0
2051,-0.00032364839666144257,0.0
2052,0.010927646580213755,0.0
2053,0.0684904898170304,0.0
2054,0.06878793717893833,0.0
2055,-0.01157843722396049,0.0
2056,0.025164406484415952,0.0
2057,0.06622748529277381,0.0
2058,0.06488629105480571,0.0
2059,-0.035200959028636555,0.0
2060,0.3819048709898944,0.0
2061,3.9254202695260116,0.0
2062,6.6997435940778844,0.0
2063,-0.8131222857117532,0.0
2064,-1.5627644717345228,0.0
2065,1.5366186753717634,0.0
2066,-0.7809435178231682,0.0
2067,0.22721411669174102,0.0
2068,0.045008344466094176,0.0
2069,-0.0313747874822169,0.0
2070,0.023683623633950573,0.0
2071,0.06424468655629859,0.0
2072,0.0025703832376717736,0.0
2073,0.008545237933510181,0.0
2074,0.07073820244489518,0.0
2075,0.04146122385340856,0.0
2076,0.05974485713188814,0.0
2077,0.048396777822019905,0.0
2078,-0.061155233792455785,0.0
2079,-0.06592053778743981,0.0
2080,0.29485810448662786,0.0
2081,3.945962385377698,0.0
2082,6.69131465922442,0.0
2083,-0.7373327807601768,0.0
2084,-1.5630614550257818,0.0
2085,1.4439116814129525,0.0
2086,-0.7636333376690886,0.0
2087,0.17914494588145446,0.0
2088,0.0440719472994907,0.0
2089,0.025886391878098942,0.0
2090,0.07169660243982444,0.0
2091,0.07360550284877489,0.0
2092,-0.0009490182320354423,0.0
2093,-0.031041982771401234,0.0
2094,0.05023133984918582,0.0
2095,0.08017186733564007,0.0
2096,-0.037008498824750935,0.0
2097,-0.0550048564850619,0.0
2098,-0.0024329974772541374,0.0
2099,0.030230985658604506,0.0
2100,0.4626857680829463,0.0
2101,3.857265610995424,0.0
2102,6.765028102679428,0.0
2103,-0.801381781789886,0.0
2104,-1.6051106773459936,0.0
2105,1.3920878067519622,0.0
2106,-0.8332275595228462,0.0
2107,0.25293627794646417,0.0
2108,0.0663136635772929,0.0
2109,0.01920053979201975,0.0
2110,-0.09173989063555253,0.0
2111,0.019119067900375975,0.0
2112,0.06501818789600133,0.0
2113,0.0679988480404427,0.0
2114,-0.04595820273192924,0.0
2115,-0.022095409627349502,0.0
2116,0.061746570682316586,0.0
2117,0.023211989241491475,0.0
2118,-0.034283593928011995,0.0
2119,0.13649832819771457,0.0
2120,0.43582040971194075,0.0
2121,3.9173720507606724,0.0
2122,6.678681164328998,0.0
2123,-0.8356008832367764,0.0
2124,-1.554594273333804,0.0
2125,1.4604045390252942,0.0
2126,-0.7849837002681375,0.0
2127,0.2703670985912505,0.0
2128,-0.02529729038809942,0.0
2129,-0.014617817542820072,0.0
2130,-0.08133054648290605,0.0
2131,-0.06726536388536983,0.0
2132,-0.012892839517926656,0.0
2133,-0.031577608205151084,0.0
2134,-0.023629461498058984,0.0
2135,-0.018384622493186786,0.0
2136,-0.13776553459251714,0.0
2137,0.0039426586116195,0.0
2138,0.016377579628179425,0.0
2139,0.03315537176245125,0.0
2140,0.3574743109184001,0.0
2141,3.8416293710882834,0.0
2142,6.728793080835922,0.0
2143,-0.8604557615906554,0.0
2144,-1.6037343125266101,0.0
2145,1.458430128636101,0.0
2146,-0.75243814230135,0.0
2147,0.23920525515755756,0.0
2148,0.02502002000200188,0.0
2149,0.1215789608604959,0.0
2150,0.08905508924265274,0.0
2151,0.1099410806009026,0.0
2152,0.06543478472128043,0.0
2153,0.1445567183943821,0.0
2154,0.019227835060972698,0.0
2155,0.09460452698413951,0.0
2156,0.08012244819209279,0.0
2157,-0.09331107468009756,0.0
2158,0.002444052921258707,0.0
2159,-0.060003953382735245,0.0
2160,0.4377927315202617,0.0
2161,3.812557049133549,0.0
2162,6.75645804395234,0.0
2163,-0.8947562636112572,0.0
2164,-1.5839932511099817,0.0
2165,1.4814132819772425,0.0
2166,-0.7262270129978471,0.0
2167,0.20084374581224165,0.0
2168,0.015480776207451606,0.0
2169,-0.07163843977956308,0.0
2170,0.05960651416341216,0.0
2171,0.009287298508460507,0.0
2172,0.03979958679506421,0.0
2173,0.00010252163340192764,0.0
2174,-0.031515948409429485,0.0
2175,0.023730335779452105,0.0
2176,-0.019024269872482055,0.0
2177,-0.08520614803437125,0.0
2178,-0.11484020003296509,0.0
2179,-0.14793729384125295,0.0
2180,0.21615674285365982,0.0
2181,3.8772365500492385,0.0
2182,6.633212709572963,0.0
2183,-0.8907936591223132,0.0
2184,-1.671926878987212,0.0
2185,1.4351004611084806,0.0
2186,-0.7661250218412727,0.0
2187,0.1459126940571703,0.0
2188,-0.058660336664156605,0.0
2189,-0.04847157898089473,0.0
2190,-0.02847101971510808,0.0
2191,-0.0003086650759515537,0.0
2192,-0.07459744875386431,0.0
2193,0.03672178691307918,0.0
2194,0.032845773457031525,0.0
2195,-0.005236570052027014,0.0
2196,7.594015284757491e-05,0.0
2197,-0.08165850334245452,0.0
2198,-0.005834859789570199,0.0
2199,-0.03185445091931075,0.0
2200,0.27034320585932664,0.0
2201,3.903557354906379,0.0
2202,6.6321354123090135,0.0
2203,-0.9920787407759761,0.0
2204,-1.6975313156998342,0.0
2205,1.4612850974684208,0.0
2206,-0.7722017768271042,0.0
2207,0.11126033135393251,0.0
2208,-0.004774670162537228,0.0
2209,-0.1266320245785158,0.0
2210,0.023471784115461605,0.0
2211,0.06473582706932242,0.0
2212,-0.0818573642070171,0.0
2213,0.006008718500155805,0.0
2214,-0.016415516176190373,0.0
2215,-0.009250134984155868,0.0
2216,-0.056923255477146315,0.0
2217,-0.04964121419312893,0.0
2218,0.04124908517042258,0.0
2219,-0.023623268745291127,0.0
2220,0.33301745494139456,0.0
2221,3.9290717075858175,0.0
2222,6.688060131618517,0.0
2223,-0.9253374772424606,0.0
2224,-1.5860333708480168,0.0
2225,1.364886663109763,0.0
2226,-0.8411960319770689,0.0
2227,0.14577219464414407,0.0
2228,-0.07267446119954696,0.0
2229,-0.02523294443484446,0.0
2230,-0.05052504527868838,0.0
2231,0.019316556929533497,0.0
2232,-0.06412383812196923,0.0
2233,0.050477787951757405,0.0
2234,-0.12688590109909817,0.0
2235,-0.013665474492738212,0.0
2236,-0.013717194037040411,0.0
2237,-0.09452632430292486,0.0
2238,-0.08242386879798119,0.0
2239,-0.05722128638674773,0.0
2240,0.249141093995517,0.0
2241,3.880381350711708,0.0
2242,6.537654480426235,0.0
2243,-0.884313403459193,0.0
2244,-1.6062968970372826,0.0
2245,1.3333482411286874,0.0
2246,-0.8127180796380632,0.0
2247,0.17528676647271438,0.0
2248,-0.10377231425795092,0.0
2249,-0.04264866912017565,0.0
2250,0.09599154587262886,0.0
2251,0.02929188705982903,0.0
2252,-0.04961305864375231,0.0
2253,0.07274614359641911,0.0
2254,-0.05376681913869389,0.0
2255,-0.06887165221452535,0.0
2256,-0.030602746257538945,0.0
2257,0.07443510032815367,0.0
2258,0.037654571768235626,0.0
2259,0.0269605447095669,0.0
2260,0.36381354279817363,0.0
2261,3.84715032303464,0.0
2262,6.6594395664479,0.0
2263,-0.9364523976811008,0.0
2264,-1.6268038922302568,0.0
2265,1.3956245133634755,0.0
2266,-0.8222556974984889,0.0
2267,0.16482777188839456,0.0
2268,-0.08640849896355576,0.0
2269,0.018027567100915978,0.0
2270,-0.12770637640742866,0.0
2271,0.016555324785352536,0.0
2272,-0.0840547878215642,0.0
2273,-0.1329406009435003,0.0
2274,0.032938297181065244,0.0
2275,-0.01901340030225119,0.0
2276,-0.00919018957233561,0.0
2277,-0.05114964960337388,0.0
2278,-0.0421268090329397,0.0
2279,0.011778580529559143,0.0
2280,0.2427769790662423,0.0
2281,3.7616864377135477,0.0
2282,6.736553386507337,0.0
2283,-0.9533662428833878,0.0
2284,-1.6205930180178656,0.0
2285,1.540860322319841,0.0
2286,-0.861528290750608,0.0
2287,0.12953246329494106,0.0
2288,-0.03570400993743694,0.0
2289,-0.08079237355679175,0.0
2290,-0.09077700949997566,0.0
2291,-0.06199002716369138,0.0
2292,-0.01146856511998208,0.0
2293,-0.04758937766066214,0.0
2294,-0.15837970273078372,0.0
2295,-0.09122981998080137,0.0
2296,-0.05367674698952858,0.0
2297,-0.016794233685391832,0.0
2298,-0.08117019940580036,0.0
2299,-0.04639689600850053,0.0
2300,0.30187219004750254,0.0
2301,3.7995152293294807,0.0
2302,6.630567505395341,0.0
2303,-0.9574387715406744,0.0
2304,-1.5759842077012813,0.0
2305,1.5644065500475612,0.0
2306,-0.7051470921823704,0.0
2307,0.20091425364485246,0.0
2308,0.03660319763738719,0.0
2309,-0.05650310786297092,0.0
2310,0.15021378468590746,0.0
2311,0.03400904452438681,0.0
2312,0.10908464892301659,0.0
2313,0.06293052924977519,0.0
2314,0.0013784273094211846,0.0
2315,0.0775353505348471,0.0
2316,0.03979731291699738,0.0
2317,-0.012658461775118299,0.0
2318,0.058631998540937466,0.0
2319,-0.10854381898266582,0.0
2320,0.32220649569409854,0.0
2321,3.922621095553233,0.0
2322,6.642951326635419,0.0
2323,-0.9358731337951303,0.0
2324,-1.6165278228994195,0.0
2325,1.3965981314654066,0.0
2326,-0.6925200055966271,0.0
2327,0.15433586763690438,0.0
2328,0.01727364573360772,0.0
2329,-0.14244685256009038,0.0
2330,-0.00467048606437253,0.0
2331,-0.05594184919105467,0.0
2332,-0.06211094532485957,0.0
2333,-0.04541398539680855,0.0
2334,-0.03941158871126,0.0
2335,-0.03276200254427804,0.0
2336,0.02730813493433775,0.0
2337,-0.121146688892344,0.0
2338,-0.027689155809726064,0.0
2339,-0.04982421378684263,0.0
2340,0.20924982669633718,0.0
2341,3.907826800854198,0.0
2342,6.564936713685536,0.0
2343,-1.011256336528411,0.0
2344,-1.7105513235225647,0.0
2345,1.4066829360354318,0.0
2346,-0.8421116381039999,0.0
2347,0.11877970791599644,0.0
2348,-0.054242874656229116,0.0
2349,-0.06935537600226756,0.0
2350,-0.01062057107187041,0.0
2351,0.06869830870698773,0.0
2352,0.08201503229562619,0.0
2353,0.016854044792517765,0.0
2354,0.0669711126150374,0.0
2355,-0.12031021575795747,0.0
2356,0.13877412666241076,0.0
2357,0.1475363155182403,0.0
2358,0.027120857165032278,0.0
2359,-0.06237045499624774,0.0
2360,0.44086344490704665,0.0
2361,3.914944031087618,0.0
2362,6.650602101696948,0.0
2363,-0.8895991992629556,0.0
2364,-1.6139025747267062,0.0
2365,1.5315652905108676,0.0
2366,-0.7469261112899133,0.0
2367,0.05651146882451655,0.0
2368,-0.006584668302610883,0.0
2369,-0.022892335779850205,0.0
2370,0.02220493675415054,0.0
2371,-0.1341001359319205,0.0
2372,0.007123062476291332,0.0
2373,-0.020614879861996012,0.0
2374,-0.03404987720138629,0.0
2375,-0.003477886358043667,0.0
2376,-0.03828254153729234,0.0
2377,0.06564734193432155,0.0
2378,0.04693358526837791,0.0
2379,0.0838888072349311,0.0
2380,0.3522990168457261,0.0
2381,3.9438322108889845,0.0
2382,6.673840054059614,0.0
2383,-0.806651405561768,0.0
2384,-1.6161022567961933,0.0
2385,1.5490673496428713,0.0
2386,-0.700845035782066,0.0
2387,0.22695182893961574,0.0
2388,-0.011818302461900389,0.0
2389,0.032346865492910576,0.0
2390,-0.01970640778635284,0.0
2391,0.04595719125591522,0.0
2392,0.0024088046055729465,0.0
2393,0.0006138358927507415,0.0
2394,0.06765184863478109,0.0
2395,0.0011611334155491107,0.0
2396,0.08231300700057725,0.0
2397,0.06122464478842033,0.0
2398,0.029629184747006532,0.0
2399,-0.09001908012300916,0.0
2400,0.3707238522092984,0.0
2401,4.008243828983238,0.0
2402,6.658489731433167,0.0
2403,-0.809880204909015,0.0
2404,-1.5001597551021064,0.0
2405,1.5287952659205242,0.0
2406,-0.7540625834001896,0.0
2407,0.20415341059574882,0.0
2408,0.013883184735407568,0.0
2409,0.09179393715385648,0.0
2410,0.0188451041998454,0.0
2411,0.06679621012895641,0.0
2412,0.018139744015907462,0.0
2413,0.011700738251564924,0.0
2414,0.06168979316734321,0.0
2415,0.06027689481376916,0.0
2416,0.007770302324020671,0.0
2417,0.011795844956648815,0.0
2418,0.007471698617069249,0.0
2419,0.04936991552877672,0.0
2420,0.5345946209280265,0.0
2421,4.076016317101062,0.0
2422,6.744763066762391,0.0
2423,-0.8760266074865345,0.0
2424,-1.5359408339305578,0.0
2425,1.5126312610765018,0.0
2426,-0.8038314103100526,0.0
2427,0.17916173396435578,0.0
2428,0.10171838255899347,0.0
2429,0.04987959824467299,0.0
2430,0.06166541242436149,0.0
2431,-0.00044998230437448376,0.0
2432,0.03262580854309089,0.0
2433,0.01962934330042114,0.0
2434,0.034388230379422,0.0
2435,0.01590525677752958,0.0
2436,0.05716899449310321,0.0
2437,-0.024553885054899104,0.0
2438,-0.020506830688554224,0.0
2439,-0.012949417375938466,0.0
2440,0.45881331803263964,0.0
2441,3.974457856977972,0.0
2442,6.801478229104506,0.0
2443,-0.8622037734717727,0.0
2444,-1.5063872073261342,0.0
2445,1.5075384324446812,0.0
2446,-0.7738011284565851,0.0
2447,0.3318908016397478,0.0
2448,-0.0011938306393700082,0.0
2449,0.09900815214032903,0.0
2450,-0.018787746048396253,0.0
2451,0.11574575205487057,0.0
2452,-0.03377525615199482,0.0
2453,0.08225908574436984,0.0
2454,0.06900728693982916,0.0
2455,0.04888380777702879,0.0
2456,0.06571635390231592,0.0
2457,0.09390795611460813,0.0
2458,0.1211116130999018,0.0
2459,0.0732054096792978,0.0
2460,0.4126578173902238,0.0
2461,4.084137435963785,0.0
2462,6.635362244080557,0.0
2463,-0.8608997675770832,0.0
2464,-1.5093169611472776,0.0
2465,1.4586032988455795,0.0
2466,-0.7906440813286333,0.0
2467,0.1164692994394787,0.0
2468,0.04906696768432501,0.0
2469,-0.005289935053304624,0.0
2470,0.056240910829597014,0.0
2471,0.007479735037215813,0.0
2472,-0.02411223496845236,0.0
2473,0.10631117322753911,0.0
2474,0.015658745990337564,0.0
2475,-0.05352594817160178,0.0
2476,-0.04301523171618038,0.0
2477,-0.027653840086582806,0.0
2478,0.1258356663355821,0.0
2479,0.06554427944867197,0.0
2480,0.4486461401010436,0.0
2481,3.957977660213559,0.0
2482,6.744744982495529,0.0
2483,-0.9217994463321876,0.0
2484,-1.5225963984629198,0.0
2485,1.522993069246434,0.0
2486,-0.7113799878730649,0.0
2487,0.15764357698323245,0.0
2488,-0.0048803763014654035,0.0
2489,-0.08642428305659834,0.0
2490,0.0004439698253116964,0.0
2491,0.024856445453101138,0.0
2492,0.03917621398072025,0.0
2493,0.0730134425084897,0.0
2494,-0.006562061076745299,0.0
2495,-0.07548475951349498,0.0
2496,-0.05032055154697896,0.0
2497,-0.01086857466884963,0.0
2498,-0.04995358596206999,0.0
2499,0.013363355849994957,0.0
2500,0.2556527767971779,0.0
2501,3.9351546000002298,0.0
2502,6.627691770967933,0.0
2503,-0.96986781014025,0.0
2504,-1.5565283769166631,0.0
2505,1.5329140001641846,0.0
2506,-0.7366564243698801,0.0
2507,0.20691569782865962,0.0
2508,0.08284672640222071,0.0
2509,0.026409552923364093,0.0
2510,0.15269179164716284,0.0
2511,0.014323611814744546,0.0
2512,0.09203080740789049,0.0
2513,-0.013774484885872525,0.0
2514,0.00461511086608302,0.0
2515,0.11731269708635439,0.0
2516,0.10556854195389409,0.0
2517,0.013451751010481542,0.0
2518,-0.05100624717499235,0.0
2519,-0.006342901907404077,0.0
2520,0.2648608865977141,0.0
2521,3.9855257746074817,0.0
2522,6.694133404130619,0.0
2523,-0.9636877521343861,0.0
2524,-1.5563840837750573,0.0
2525,1.3867584966329796,0.0
2526,-0.8125788830888554,0.0
2527,0.24354529250028173,0.0
2528,-0.12585287915757987,0.0
2529,-0.10550773414032252,0.0
2530,0.04294693754187281,0.0
2531,-0.09808160076687028,0.0
2532,0.02374435300262664,0.0
2533,-0.005246492905227238,0.0
2534,-0.017591289705796986,0.0
2535,-0.027304751378300386,0.0
2536,0.027476652118783987,0.0
2537,0.06563632134815568,0.0
2538,-0.02695565552469259,0.0
2539,0.02036946227847017,0.0
2540,0.40937167426238597,0.0
2541,4.090432019409489,0.0
2542,6.6496786192990465,0.0
2543,-0.9436045506356963,0.0
2544,-1.5321717095143392,0.0
2545,1.496114687178363,0.0
2546,-0.7302236018413065,0.0
2547,0.2563160613693537,0.0
2548,0.009809100872442205,0.0
2549,-0.05871784596179691,0.0
2550,-0.009576310655923504,0.0
2551,0.02199351314016319,0.0
2552,-0.061839367989560266,0.0
2553,-0.061105581966231705,0.0
2554,-0.03596635310722396,0.0
2555,-0.03567751661499749,0.0
2556,0.018682611048249566,0.0
2557,0.018847676607236002,0.0
2558,0.048446289616730254,0.0
2559,0.007999836214822531,0.0
2560,0.35489547708585256,0.0
2561,3.967945987057145,0.0
2562,6.638144034052348,0.0
2563,-0.9182111774021859,0.0
2564,-1.4511726886244547,0.0
2565,1.4725418788737428,0.0
2566,-0.6972093679625853,0.0
2567,0.1634586045452165,0.0
2568,0.09914154354238341,0.0
2569,-0.05668088425233361,0.0
2570,-0.07616539227728072,0.0
2571,-0.05555223492511705,0.0
2572,-0.02143341494823476,0.0
2573,-0.058760028974473286,0.0
2574,-0.06538208467378144,0.0
2575,0.018854030413823834,0.0
2576,0.0026781726726791016,0.0
2577,-0.035472485176046974,0.0
2578,0.04072725110981623,0.0
2579,-0.043073669842527404,0.0
2580,0.44451301333765014,0.0
2581,4.017140162939283,0.0
2582,6.687504585092798,0.0
2583,-0.9292318890597596,0.0
2584,-1.5591085546811165,0.0
2585,1.4892857086778393,0.0
2586,-0.7708968505950525,0.0
2587,0.25184634215290685,0.0
2588,-0.03826643293504907,0.0
2589,0.07455446981365856,0.0
2590,-0.007323595866928722,0.0
2591,0.016650678712691026,0.0
2592,-0.056062562370075945,0.0
2593,-0.05255739184153664,0.0
2594,-0.0359925948529819,0.0
2595,0.010769615587815744,0.0
2596,0.006848851271671501,0.0
2597,-0.10865308917505168,0.0
2598,0.014645858059962573,0.0
2599,-0.0035188751544581267,0.0
2600,0.3683385106945109,0.0
2601,3.971462203283546,0.0
2602,6.710698768828395,0.0
2603,-0.8666016133979864,0.0
2604,-1.4214389330955521,0.0
2605,1.5006516029005912,0.0
2606,-0.7682614833678658,0.0
2607,0.18836550957563813,0.0
2608,-0.048074564114463716,0.0
2609,-0.08698153381813577,0.0
2610,0.08534517443635556,0.0
2611,-0.09597638426076391,0.0
2612,0.072421539175243,0.0
2613,0.033470183403816675,0.0
2614,0.03386013648747892,0.0
2615,-0.026740483020127846,0.0
2616,0.013744759980212611,0.0
2617,0.04790825450089124,0.0
2618,0.015318254009661457,0.0
2619,0.11036585116229738,0.0
2620,0.31211716513847615,0.0
2621,3.9984023494441363,0.0
2622,6.724102759758561,0.0
2623,-0.9032466896883276,0.0
2624,-1.5241044664215702,0.0
2625,1.4123318562076124,0.0
2626,-0.7386544928493213,0.0
2627,0.16280866384042966,0.0
2628,-0.03381385503596196,0.0
2629,-0.09959867301019935,0.0
2630,-0.05559049826566054,0.0
2631,-0.0071437065783008236,0.0
2632,-0.013332905634065383,0.0
2633,-0.050511290237390156,0.0
2634,0.014084094584202435,0.0
2635,-0.07650317976564602,0.0
2636,0.014612054761335497,0.0
2637,0.008213421128497735,0.0
2638,0.008743394129569823,0.0
2639,0.053517199471744034,0.0
2640,0.40691565994901024,0.0
2641,3.986686972956967,0.0
2642,6.584488067375478,0.0
2643,-1.0007194839961366,0.0
2644,-1.4524320276027942,0.0
2645,1.3641563384327668,0.0
2646,-0.7007311823298646,0.0
2647,0.18242969164366518,0.0
2648,0.04094608871275304,0.0
2649,-0.024807596273546652,0.0
2650,-0.03460997044218288,0.0
2651,-0.06611577924070865,0.0
2652,0.07652752162432573,0.0
2653,0.014608163238326049,0.0
2654,-0.014049616794473098,0.0
2655,-0.022027716742057828,0.0
2656,-0.020621245263937733,0.0
2657,0.030756910904303412,0.0
2658,-0.0027209613296107155,0.0
2659,-0.05158621903103541,0.0
2660,0.3475985666595298,0.0
2661,3.9955486753410594,0.0
2662,6.618110972026336,0.0
2663,-0.9391148728179841,0.0
2664,-1.5574886828614958,0.0
2665,1.4020834110274183,0.0
2666,-0.8115692807186482,0.0
2667,0.18441915887600252,0.0
2668,0.06671742062151897,0.0
2669,-0.03408114599716543,0.0
2670,-0.01379255594743942,0.0
2671,-0.03408129441399626,0.0
2672,-0.005339233076743478,0.0
2673,0.0013673505060993532,0.0
2674,-0.07291965445552782,0.0
2675,0.04699740424846074,0.0
2676,-0.02105763353478536,0.0
2677,-0.0037128017280882893,0.0
2678,-0.0942835220349042,0.0
2679,-0.003540451112878193,0.0
2680,0.3744113644494618,0.0
2681,3.9884105818848945,0.0
2682,6.638334171864445,0.0
2683,-1.0449547596642779,0.0
2684,-1.5819507025071116,0.0
2685,1.5138052169234166,0.0
2686,-0.7736329942513321,0.0
2687,0.1848585956496386,0.0
2688,0.0771677013226994,0.0
2689,0.014267208042453128,0.0
2690,-0.0365851958399037,0.0
2691,-0.04448694126156152,0.0
2692,-0.012669965290790779,0.0
2693,-0.05659842872163064,0.0
2694,-0.023460715998556817,0.0
2695,-0.017038963879584243,0.0
2696,-0.03137732031642904,0.0
2697,-0.030653042260437902,0.0
2698,-0.009601726055233704,0.0
2699,0.027002909068753037,0.0
2700,0.3623840985153998,0.0
2701,4.07752383471895,0.0
2702,6.692817083646513,0.0
2703,-0.93705884887434,0.0
2704,-1.5071342676234378,0.0
2705,1.496194315662219,0.0
2706,-0.7459131059902355,0.0
2707,0.18722585487752866,0.0
2708,-0.008533510477033992,0.0
2709,0.008375980465470313,0.0
2710,0.006015801392983487,0.0
2711,0.04468507250945572,0.0
2712,0.09361362389645497,0.0
2713,0.05339683400553695,0.0
2714,-0.010075897380420553,0.0
2715,-0.0630433766417759,0.0
2716,-0.018140043074296494,0.0
2717,0.041929483361791635,0.0
2718,-0.030840293603779288,0.0
2719,0.02045220686665242,0.0
2720,0.3613969169608302,0.0
2721,3.961368057257063,0.0
2722,6.731087542003893,0.0
2723,-0.9289851819124719,0.0
2724,-1.4792541983482175,0.0
2725,1.4262666158533603,0.0
2726,-0.7205918691804212,0.0
2727,0.2580041335161895,0.0
2728,0.03722977396803349,0.0
2729,-0.08021402355964698,0.0
2730,0.0009198335885390943,0.0
2731,0.0390533417622885,0.0
2732,0.042598153543556484,0.0
2733,-0.018529393848283962,0.0
2734,-0.027395641988681014,0.0
2735,0.007695886743158141,0.0
2736,-0.011848266726448018,0.0
2737,0.009018577713797523,0.0
2738,0.003626605516872463,0.0
2739,-0.040858021601614954,0.0
2740,0.3189334714929333,0.0
2741,3.9541681488360085,0.0
2742,6.677456268149949,0.0
2743,-0.9611054679281335,0.0
2744,-1.5325094234640737,0.0
2745,1.3807017306438871,0.0
2746,-0.741135535105198,0.0
2747,0.24761426839440528,0.0
2748,0.05900616887354446,0.0
2749,0.0644008599645374,0.0
2750,0.051333623443438926,0.0
2751,-0.014694711296173738,0.0
2752,0.1545991349176997,0.0
2753,0.011810291328824503,0.0
2754,0.12981714450434517,0.0
2755,0.10447823462017372,0.0
2756,0.10875212661521969,0.0
2757,-0.047655380987277535,0.0
2758,-0.012340163305372069,0.0
2759,0.03400193865759353,0.0
2760,0.47757403675534466,0.0
2761,3.9573826005558503,0.0
2762,6.749007454541253,0.0
2763,-1.0126720162625864,0.0
2764,-1.566514721082063,0.0
2765,1.397928452949915,0.0
2766,-0.816591462607231,0.0
2767,0.19894872416571024,0.0
2768,-0.04861642643353023,0.0
2769,-0.050579352632380246,0.0
2770,0.05284873575658372,0.0
2771,-0.011259248050835887,0.0
2772,0.02050540414455892,0.0
2773,0.050543779156129016,0.0
2774,0.04908556944789074,0.0
2775,-0.025252335851215488,0.0
2776,-0.00553248752930849,0.0
2777,0.026917282793446174,0.0
2778,0.010027955648959794,0.0
2779,-0.016963608094871158,0.0
2780,0.3148997683709622,0.0
2781,4.0296541163937665,0.0
2782,6.692032018598404,0.0
2783,-0.9392733526151695,0.0
2784,-1.5042612250231024,0.0
2785,1.5276168140562092,0.0
2786,-0.7686796411471309,0.0
2787,0.13319035842425614,0.0
2788,-0.03181493395707405,0.0
2789,-0.0833665817945949,0.0
2790,0.11453997521533325,0.0
2791,-0.04562381886793558,0.0
2792,0.0762008844822843,0.0
2793,-0.08202257806949538,0.0
2794,-0.006649950764993907,0.0
2795,-0.003943189073510669,0.0
2796,-0.011150810330357138,0.0
2797,-0.048947450931361984,0.0
2798,0.005193140769688052,0.0
2799,-0.051683637477432265,0.0
2800,0.3543647113353648,0.0
2801,4.095170280385506,0.0
2802,6.600496034837484,0.0
2803,-0.9830141897282961,0.0
2804,-1.5178517081163168,0.0
2805,1.4562121574480358,0.0
2806,-0.7417946959929355,0.0
2807,0.15858912139439196,0.0
2808,-0.06560539819297014,0.0
2809,0.003898602250601183,0.0
2810,0.07165711310317373,0.0
2811,0.16195199403753172,0.0
2812,-0.08836949774010268,0.0
2813,0.019283225930811134,0.0
2814,-0.033483910931556476,0.0
2815,0.0857138375062562,0.0
2816,-0.013759067151203288,0.0
2817,-0.003467066753480237,0.0
2818,0.058344008605959355,0.0
2819,0.02475384593124511,0.0
2820,0.4062662172591188,0.0
2821,4.016254510680181,0.0
2822,6.654090803048092,0.0
2823,-1.0521153771177483,0.0
2824,-1.4076089072707014,0.0
2825,1.4603154694813405,0.0
2826,-0.8533817562479593,0.0
2827,0.2103947332914164,0.0
2828,-0.014302050012136738,0.0
2829,-0.05570649525478713,0.0
2830,0.04329702917660495,0.0
2831,0.017602408061545075,0.0
2832,0.031183518681453797,0.0
2833,0.06319095480107377,0.0
2834,-0.02923520874885234,0.0
2835,0.03540236755231695,0.0
2836,-0.09559603387781251,0.0
2837,-0.004291995700699332,0.0
2838,-0.08657372049418312,0.0
2839,0.014429135083658486,0.0
2840,0.3606296531559102,0.0
2841,4.105019174475772,0.0
2842,6.608186767404928,0.0
2843,-1.1008226242939911,0.0
2844,-1.4769734473539582,0.0
2845,1.4509344348026738,0.0
2846,-0.7636887341814671,0.0
2847,0.1947568166412246,0.0
2848,0.0033671453063429304,0.0
2849,-0.032194848673336746,0.0
2850,-0.011132824480222112,0.0
2851,0.05320927644343991,0.0
2852,-0.04104458510461328,0.0
2853,0.047669995844424815,0.0
2854,0.011926540018180429,0.0
2855,-0.009171698984001362,0.0
2856,-0.04012115071376489,0.0
2857,0.04356623512726963,0.0
2858,0.039726920546705596,0.0
2859,-0.0397375736985137,0.0
2860,0.36522657510299683,0.0
2861,4.194288293158886,0.0
2862,6.60403130134959,0.0
2863,-0.9664081416785356,0.0
2864,-1.4034975406729062,0.0
2865,1.376987867794126,0.0
2866,-0.8934868838652072,0.0
2867,0.14189533247290395,0.0
2868,-0.019278224261879775,0.0
2869,0.02919525917249159,0.0
2870,-0.03275720482096042,0.0
2871,0.049216912580967304,0.0
2872,-0.05809945560369948,0.0
2873,0.0458525221608799,0.0
2874,0.08557668630221675,0.0
2875,0.0036550050491797777,0.0
2876,-0.09010147840790071,0.0
2877,0.07725878147835022,0.0
2878,-0.03563839223942723,0.0
2879,-0.06844586030320471,0.0
2880,0.4462507545471379,0.0
2881,3.9976562385501713,0.0
2882,6.60595670800149,0.0
2883,-1.1547084807018668,0.0
2884,-1.460276430756615,0.0
2885,1.4447595723923794,0.0
2886,-0.8223473872943647,0.0
2887,0.17231212981084906,0.0
2888,-0.11368663634431125,0.0
2889,-0.06612921057394121,0.0
2890,0.028866687784201723,0.0
2891,-0.0397310648554133,0.0
2892,0.0862612145326351,0.0
2893,0.04307739499151132,0.0
2894,-0.017782763971665814,0.0
2895,0.07050442333620227,0.0
2896,0.004355819871154098,0.0
2897,-0.008271486336604237,0.0
2898,0.030005794927371484,0.0
2899,0.036651552308255175,0.0
2900,0.3751351005529422,0.0
2901,4.057264938933846,0.0
2902,6.597963978095009,0.0
2903,-1.0893027418857535,0.0
2904,-1.4635058177176434,0.0
2905,1.31943920289102,0.0
2906,-0.7762668576896261,0.0
2907,0.16207338399281537,0.0
2908,-0.08878864975241094,0.0
2909,-0.07126903279951549,0.0
2910,-0.06113016041117597,0.0
2911,-0.07478979030697645,0.0
2912,-0.16680523844181325,0.0
2913,-0.04515475774160584,0.0
2914,-0.16436998184930735,0.0
2915,-0.017743737257699566,0.0
2916,0.039888214341678795,0.0
2917,0.031439464077024706,0.0
2918,-0.11730499878911804,0.0
2919,-0.08356412959393322,0.0
2920,0.3027365747701434,0.0
2921,3.9519950045854664,0.0
2922,6.685855950728287,0.0
2923,-1.0838485408260983,0.0
2924,-1.57658121104388,0.0
2925,1.4741982155014124,0.0
2926,-0.7678527441562834,0.0
2927,0.11674154204234653,0.0
2928,-0.09997833018826999,0.0
2929,-0.07141546060861238,0.0
2930,-0.021364883419058817,0.0
2931,0.0077191564485267344,0.0
2932,0.021762798919686924,0.0
2933,-0.08903483840632127,0.0
2934,-0.06788422155169975,0.0
2935,0.004659273641369456,0.0
2936,-0.013803182311236215,0.0
2937,-0.024002173464950323,0.0
2938,-0.05471730630269085,0.0
2939,-0.015341385057988217,0.0
2940,0.33106995248649557,0.0
2941,3.985630685252179,0.0
2942,6.653515973970795,0.0
2943,-1.090160794651669,0.0
2944,-1.5673678905341208,0.0
2945,1.4124898255910283,0.0
2946,-0.8355198281334995,0.0
2947,0.1496591112380471,0.0
2948,-0.027953956074631678,0.0
2949,-0.07612476517765467,0.0
2950,-0.023417768606465283,0.0
2951,-0.06741460164807098,0.0
2952,0.056996344648337645,0.0
2953,0.018245559552459593,0.0
2954,-0.031106133471695142,0.0
2955,-0.022471331629520294,0.0
2956,-0.12140599840075456,0.0
2957,-0.03569943153373034,0.0
2958,0.07123856996301027,0.0
2959,-0.10184446467393815,0.0
2960,0.3561578455465343,0.0
2961,4.031218315360629,0.0
2962,6.608062187859966,0.0
2963,-1.0025658248564076,0.0
2964,-1.494607685511961,0.0
2965,1.3956828437682995,0.0
2966,-0.6558120694114007,0.0
2967,0.23306251751928406,0.0
2968,0.02296798429762942,0.0
2969,-0.062473883999177984,0.0
2970,0.09771967040974942,0.0
2971,-0.10978525664841482,0.0
2972,0.0013164578341278259,0.0
2973,-0.01448258894148496,0.0
2974,0.001330019516437065,0.0
2975,-0.0015738638627137876,0.0
2976,0.011391328717348471,0.0
2977,0.0070065297559509625,0.0
2978,0.05262341523880931,0.0
2979,-0.017865869362189268,0.0
2980,0.3990971442951605,0.0
2981,4.001971958635898,0.0
2982,6.60236888294182,0.0
2983,-1.0847369755356298,0.0
2984,-1.4649557232724602,0.0
2985,1.4672217960339549,0.0
2986,-0.8570325532627827,0.0
2987,0.1106478649651101,0.0
2988,-0.07162939306512409,0.0
2989,0.0039151730154154685,0.0
2990,-0.006333719725465842,0.0
2991,-0.07365256450823515,0.0
2992,-0.1000161673635066,0.0
2993,-0.04945665023208399,0.0
2994,-0.03795517873369362,0.0
2995,-0.07918876550038995,0.0
2996,0.02095119011274673,0.0
2997,0.07391491564373198,0.0
2998,-0.01981209018688181,0.0
2999,-0.05413192046625448,0.0
3000,0.46864700981144264,0.0
3001,4.019161324067117,0.0
3002,6.6282207337548975,0.0
3003,-1.0908417140398432,0.0
3004,-1.3905011394568885,0.0
3005,1.5417734425709957,0.0
3006,-0.7858249291127534,0.0
3007,0.22896348721290344,0.0
3008,-0.030281137854088095,0.0
3009,-0.040362515369590825,0.0
3010,0.04819238640325543,0.0
3011,-0.04340629901566927,0.0
3012,-0.015453285142386669,0.0
3013,0.01876988760288193,0.0
3014,-0.04749206229300569,0.0
3015,0.03389522527209979,0.0
3016,0.07387740465842663,0.0
3017,-0.06979646641474159,0.0
3018,0.04362349390822999,0.0
3019,-0.05766450203582727,0.0
3020,0.3488922396663981,0.0
3021,3.9483696204691867,0.0
3022,6.601009652091635,0.0
3023,-1.0093054291163155,0.0
3024,-1.464945073468172,0.0
3025,1.4120017816123311,0.0
3026,-0.8047736303081453,0.0
3027,0.18416921367365638,0.0
3028,-0.015184273104457361,0.0
3029,-0.12733041654997732,0.0
3030,0.005061065469444943,0.0
3031,-0.1095849773351949,0.0
3032,0.002653324095706573,0.0
3033,-0.09659370636909662,0.0
3034,-0.09841881712601741,0.0
3035,0.06072063352984417,0.0
3036,-0.04182419610004749,0.0
3037,-0.0848087722564389,0.0
3038,0.00657866682791837,0.0
3039,0.031020407450648997,0.0
3040,0.4233961970372867,0.0
3041,4.011542352194541,0.0
3042,6.674323446203758,0.0
3043,-1.155871706486183,0.0
3044,-1.567372521114225,0.0
3045,1.3844468703354038,0.0
3046,-0.7444990206497861,0.0
3047,0.18938297850068156,0.0
3048,-0.14664069950917824,0.0
3049,-0.08356571067772788,0.0
3050,-0.02087899217876492,0.0
3051,-0.06756845101878493,0.0
3052,0.02188913547582228,0.0
3053,-0.1246628446170184,0.0
3054,-0.04931139600806942,0.0
3055,-0.025513776911246004,0.0
3056,-0.018142077045674894,0.0
3057,-0.023414685816321966,0.0
3058,-0.04750562784536412,0.0
3059,-0.015129519775729128,0.0
3060,0.3198100759866074,0.0
3061,3.9677574683993972,0.0
3062,6.519525906547873,0.0
3063,-1.1286506258875102,0.0
3064,-1.5813890001703816,0.0
3065,1.3598920613577046,0.0
3066,-0.8666039475355647,0.0
3067,0.14689810495842645,0.0
3068,-0.1603922141411188,0.0
3069,-0.034851054027541975,0.0
3070,0.013042026167170859,0.0
3071,-0.06997758180251634,0.0
3072,-0.09876213151253127,0.0
3073,-0.03635560061546903,0.0
3074,-0.08937612848414762,0.0
3075,-0.041903056074254985,0.0
3076,-0.0184852651388833,0.0
3077,-0.031120061315764877,0.0
3078,0.004918187473117532,0.0
3079,-0.040521886688481945,0.0
3080,0.3297355285661876,0.0
3081,4.041723601100036,0.0
3082,6.5414756070009465,0.0
3083,-1.201979437291519,0.0
3084,-1.4251184394427265,0.0
3085,1.4260952158856286,0.0
3086,-0.7797899292058419,0.0
3087,0.08546534588435699,0.0
3088,0.01739071609367626,0.0
3089,-0.13000143710876083,0.0
3090,0.011085875107750066,0.0
3091,-0.06431499611252292,0.0
3092,-0.07452671164849763,0.0
3093,0.06256962475752487,0.0
3094,-0.0024381413147434687,0.0
3095,-0.0697285499304536,0.0
3096,-0.11717008147875983,0.0
3097,-0.0402480915980574,0.0
3098,-0.06704707688621761,0.0
3099,-0.024756981246860165,0.0
3100,0.37829575851488256,0.0
3101,4.04665744383364,0.0
3102,6.62181649280767,0.0
3103,-1.0439097475024173,0.0
3104,-1.4385562720685858,0.0
3105,1.420357861293125,0.0
3106,-0.8253076706066302,0.0
3107,0.2225481490120923,0.0
3108,-0.019284135124871843,0.0
3109,-0.061361399726409575,0.0
3110,-0.023884099321632796,0.0
3111,-0.05465752009819506,0.0
3112,-0.09063124879448232,0.0
3113,0.018348458031977915,0.0
3114,0.0017604708216811468,0.0
3115,0.022840105235110944,0.0
3116,0.04502324527541284,0.0
3117,-0.016825304821137886,0.0
3118,0.04719698248038593,0.0
3119,0.04902036467986479,0.0
3120,0.3225129278792283,0.0
3121,3.9949431517379366,0.0
3122,6.5507936070629516,0.0
3123,-1.093522305901562,0.0
3124,-1.406672660431305,0.0
3125,1.3488387644476176,0.0
3126,-0.9198020869520441,0.0
3127,0.17231012051230438,0.0
3128,0.05168863644007527,0.0
3129,-0.027321663638893087,0.0
3130,0.1315825783749159,0.0
3131,-0.02998010519370524,0.0
3132,-0.00785553019116969,0.0
3133,-0.05991045934700586,0.0
3134,0.026613640072167506,0.0
3135,0.0029930146714565796,0.0
3136,-0.06294461323084159,0.0
3137,-0.019114487371995517,0.0
3138,-0.06176541208640239,0.0
3139,-0.10431010385576339,0.0
3140,0.3251049451627548,0.0
3141,4.009177779682546,0.0
3142,6.545981918384116,0.0
3143,-1.197634367474075,0.0
3144,-1.5074916785986305,0.0
3145,1.3854639113124938,0.0
3146,-0.8801049193960423,0.0
3147,0.1390509925190341,0.0
3148,-0.013398497313980157,0.0
3149,-0.011393048493940086,0.0
3150,-0.053182478799579554,0.0
3151,-0.017689333500281748,0.0
3152,-0.038403283141633146,0.0
3153,0.03240173555394759,0.0
3154,-0.03580667963162918,0.0
3155,-0.07753548240221356,0.0
3156,-0.024340085470309955,0.0
3157,-0.1288496546448005,0.0
3158,0.010619875932627615,0.0
3159,-0.08393498553067433,0.0
3160,0.37598255124343016,0.0
3161,3.918771549800805,0.0
3162,6.5825798620090294,0.0
3163,-1.130715261263004,0.0
3164,-1.4592902400849685,0.0
3165,1.3856285840158329,0.0
3166,-0.8510952114332107,0.0
3167,0.11178172176193071,0.0
3168,-0.031294142816066337,0.0
3169,-0.07994572579744808,0.0
3170,-0.08305966471829604,0.0
3171,-0.1107395431652137,0.0
3172,0.024896394249616434,0.0
3173,-0.026972931692162458,0.0
3174,-0.011013350388301134,0.0
3175,-0.03133292775685563,0.0
3176,0.019197433897896108,0.0
3177,-0.07039786346286155,0.0
3178,0.01003399891778313,0.0
3179,-0.0325489369587528,0.0
3180,0.37363202833081227,0.0
3181,3.94902743937461,0.0
3182,6.616036580042713,0.0
3183,-1.1226522864901505,0.0
3184,-1.3730853928874154,0.0
3185,1.4315255616132825,0.0
3186,-0.7614617269812675,0.0
3187,0.13496534151532558,0.0
3188,-0.11694307783442248,0.0
3189,-0.09502632943466291,0.0
3190,-0.03853151910334183,0.0
3191,0.015136526370975331,0.0
3192,-0.03188249899659712,0.0
3193,-0.003367273948469929,0.0
3194,0.05018631236421454,0.0
3195,0.0442725727818372,0.0
3196,-0.048989435906782876,0.0
3197,-0.031904442174222565,0.0
3198,0.042668932346143315,0.0
3199,0.0038260892399898543,0.0
3200,0.34577916843924617,0.0
3201,4.097138153995436,0.0
3202,6.5754792519659535,0.0
3203,-1.1269373159828455,0.0
3204,-1.459910755045655,0.0
3205,1.4035751477668745,0.0
3206,-0.8077338919834152,0.0
3207,0.2201845825941668,0.0
3208,-0.01129304281168009,0.0
3209,-0.01194278494044005,0.0
3210,0.023188695928907432,0.0
3211,-0.05434627105072415,0.0
3212,0.0062374126730773555,0.0
3213,0.03100255563730818,0.0
3214,0.02396830192206457,0.0
3215,-0.06832042271684013,0.0
3216,-0.09193976304416687,0.0
3217,0.024280207439158746,0.0
3218,0.012303744086858021,0.0
3219,-0.09159634888367836,0.0
3220,0.350945334448259,0.0
3221,4.005947940585027,0.0
3222,6.60828417632649,0.0
3223,-1.1121698441520689,0.0
3224,-1.481569381884939,0.0
3225,1.4119686668551403,0.0
3226,-0.8449222026645958,0.0
3227,0.24989336706557516,0.0
3228,-0.021831727634218874,0.0
3229,-0.016549045353731952,0.0
3230,0.002820295296618657,0.0
3231,-0.029518540238783038,0.0
3232,-0.09185495720759478,0.0
3233,-0.0289955900153148,0.0
3234,-0.08225275777230459,0.0
3235,-0.019260298791668587,0.0
3236,-0.060342614039507275,0.0
3237,0.03178340599340877,0.0
3238,-0.020878748195564102,0.0
3239,-0.03526461694189129,0.0
3240,0.44970045648003,0.0
3241,4.149406547048797,0.0
3242,6.5761989796335305,0.0
3243,-1.086978675934964,0.0
3244,-1.467494144969984,0.0
3245,1.4466085313844976,0.0
3246,-0.8012430834119674,0.0
3247,0.20381804964982597,0.0
3248,-0.02281268992847248,0.0
3249,0.012374206070802793,0.0
3250,0.08624016599660263,0.0
3251,-0.01095924957595737,0.0
3252,0.023079613541297166,0.0
3253,-0.025098399482645077,0.0
3254,-0.07087676568101238,0.0
3255,-0.05234430063626577,0.0
3256,0.014313075532299414,0.0
3257,-0.048865377516985095,0.0
3258,-0.0019281969586993053,0.0
3259,-0.12270810494700661,0.0
3260,0.39683091221678174,0.0
3261,4.067158528611303,0.0
3262,6.648265994604882,0.0
3263,-1.1021539439402321,0.0
3264,-1.3023740201237763,0.0
3265,1.4191645075740769,0.0
3266,-0.7706302746322201,0.0
3267,0.31841692022969903,0.0
3268,-0.11977152109820424,0.0
3269,-0.018123063478921828,0.0
3270,-0.05202579322459903,0.0
3271,-0.060661700159094924,0.0
3272,-0.01044798100386973,0.0
3273,-0.006848918120822962,0.0
3274,0.03512412841741925,0.0
3275,-0.0559055473684985,0.0
3276,0.003255752652940723,0.0
3277,-0.03658795694552934,0.0
3278,-0.04914500438281494,0.0
3279,-0.036084343308939795,0.0
3280,0.40348518039075626,0.0
3281,4.08299469820644,0.0
3282,6.602583003298865,0.0
3283,-1.1064721954313557,0.0
3284,-1.413484312073471,0.0
3285,1.3975522224771313,0.0
3286,-0.6743445858300173,0.0
3287,0.29837149573021376,0.0
3288,0.06983224246226458,0.0
3289,-0.06923676690910963,0.0
3290,0.056781276911705994,0.0
3291,0.10481928597058385,0.0
3292,-0.0014610468820476091,0.0
3293,0.021118829534577364,0.0
3294,0.01678816297582901,0.0
3295,0.07564396714417777,0.0
3296,-0.10464012436244452,0.0
3297,0.03604124233388505,0.0
3298,0.038944476684706575,0.0
3299,-0.05224536712705968,0.0
3300,0.32344176013732173,0.0
3301,4.086286219308924,0.0
3302,6.576910852582705,0.0
3303,-1.1304311181242455,0.0
3304,-1.4033874743721564,0.0
3305,1.459270650401657,0.0
3306,-0.7639184960847083,0.0
3307,0.2687394953937115,0.0
3308,-0.046417532613158036,0.0
3309,0.04858009459639414,0.0
3310,0.09583295138276228,0.0
3311,-0.08129037427558297,0.0
3312,-0.03645344744253641,0.0
3313,-0.033477429653234456,0.0
3314,0.027819076845672527,0.0
3315,0.015448920086372614,0.0
3316,0.05737061580557782,0.0
3317,-0.010494376369620173,0.0
3318,0.01719044518008482,0.0
3319,-0.015237308731694554,0.0
3320,0.44012940291778696,0.0
3321,4.045951029371361,0.0
3322,6.60873871292737,0.0
3323,-1.1493163533924553,0.0
3324,-1.4237745654980138,0.0
3325,1.4588381736234974,0.0
3326,-0.7449961640470403,0.0
3327,0.2716083925652857,0.0
3328,-0.028427858352603034,0.0
3329,-0.04701540708390668,0.0
3330,-0.046308312298352514,0.0
3331,-0.04763792195665485,0.0
3332,-0.0780079748451564,0.0
3333,-0.014716200747700062,0.0
3334,-0.0016006094839181087,0.0
3335,-0.004931981973673742,0.0
3336,0.04867692267587901,0.0
3337,0.027812659023957572,0.0
3338,-0.006200177645851219,0.0
3339,0.0439684584924233,0.0
3340,0.4057387062234791,0.0
3341,4.01409297413844,0.0
3342,6.528609752368775,0.0
3343,-1.196944749530513,0.0
3344,-1.4007059663623755,0.0
3345,1.4313930545660623,0.0
3346,-0.8337066310353592,0.0
3347,0.2644638873434668,0.0
3348,-0.018731347161299962,0.0
3349,-0.05912151164519015,0.0
3350,0.0534433424534937,0.0
3351,0.004544657637823028,0.0
3352,0.02597124153415497,0.0
3353,-0.007496844366018142,0.0
3354,-0.013350809295959734,0.0
3355,0.05179643069806947,0.0
3356,0.0008143350915551517,0.0
3357,-0.039508190501797776,0.0
3358,0.0373205282328035,0.0
3359,0.07558598553093002,0.0
3360,0.45883898059453543,0.0
3361,4.053658010909344,0.0
3362,6.556119068804768,0.0
3363,-1.1904445318181471,0.0
3364,-1.378113768857094,0.0
3365,1.3391471701093436,0.0
3366,-0.8099729093039684,0.0
3367,0.18063267050285375,0.0
3368,0.029570269042626947,0.0
3369,-0.04078729005850735,0.0
3370,0.03693616374501209,0.0
3371,0.07228831323187729,0.0
3372,-0.06509769515668047,0.0
3373,-0.0010210740820109083,0.0
3374,-0.041328272132852895,0.0
3375,-0.03721540250893795,0.0
3376,0.0034784720486674826,0.0
3377,-0.018614275408277054,0.0
3378,-0.04104038627496737,0.0
3379,-0.03988278299845995,0.0
3380,0.3951625587927295,0.0
3381,4.121644407588041,0.0
3382,6.582611586095101,0.0
3383,-1.1644786568901822,0.0
3384,-1.3533450437076746,0.0
3385,1.4682019410396958,0.0
3386,-0.7842583011193934,0.0
3387,0.2433000619685553,0.0
3388,-0.10283282064402174,0.0
3389,-0.03571071231564064,0.0
3390,0.03714940978828585,0.0
3391,-0.1240183944787488,0.0
3392,0.05813588315689534,0.0
3393,0.044983748295088666,0.0
3394,-0.06719889075782895,0.0
3395,-0.07528800175046516,0.0
3396,0.012758383503014042,0.0
3397,-0.031015718754952206,0.0
3398,-0.01255233113564541,0.0
3399,0.01715512252607907,0.0
3400,0.47601615124414964,0.0
3401,4.0222301411060615,0.0
3402,6.545312355396171,0.0
3403,-1.1532998063129345,0.0
3404,-1.342379489137493,0.0
3405,1.5005733734961186,0.0
3406,-0.8140376177995737,0.0
3407,0.26237423093241447,0.0
3408,-0.000802995501030343,0.0
3409,-0.06842743169575358,0.0
3410,-0.019056346428789055,0.0
3411,-0.00870630292830521,0.0
3412,-0.09862136796781369,0.0
3413,0.02477366029319024,0.0
3414,-0.0009954317561555268,0.0
3415,-0.0037028650177800397,0.0
3416,-0.016140363118688134,0.0
3417,0.020542244455412334,0.0
3418,0.12004926004296174,0.0
3419,0.13313800608276166,0.0
3420,0.3772438791419091,0.0
3421,4.203061295938725,0.0
3422,6.6940251487922175,0.0
3423,-1.14360645165877,0.0
3424,-1.207141638673862,0.0
3425,1.4172007089222425,0.0
3426,-0.7026309015831582,0.0
3427,0.3042290314988787,0.0
3428,-0.0412445814258696,0.0
3429,0.0796646202617427,0.0
3430,-0.019741539817751994,0.0
3431,0.023940626178413055,0.0
3432,0.001887547816915378,0.0
3433,-0.09120535481027288,0.0
3434,-0.019192895743893823,0.0
3435,-0.03459148089076905,0.0
3436,0.04286907719246583,0.0
3437,0.06649620694231348,0.0
3438,-0.07365747624207816,0.0
3439,-0.0023412842280374647,0.0
3440,0.5000175973287857,0.0
3441,4.1335278542609615,0.0
3442,6.630910899782506,0.0
3443,-1.1618845051944595,0.0
3444,-1.3440249825627206,0.0
3445,1.3932361200349255,0.0
3446,-0.7146427144302179,0.0
3447,0.3095450994652432,0.0
3448,0.04659140391140459,0.0
3449,-0.10235123195535847,0.0
3450,0.0733142720744603,0.0
3451,0.042869699915248756,0.0
3452,-0.07388660761631129,0.0
3453,0.008994998811493175,0.0
3454,-0.0443516870970519,0.0
3455,-0.02926540234934174,0.0
3456,-2.8893510758052493e-05,0.0
3457,-0.0524249670066748,0.0
3458,-0.04592357272524493,0.0
3459,0.008450880032531215,0.0
3460,0.37910249684709246,0.0
3461,4.076984969699904,0.0
3462,6.586681504008638,0.0
3463,-1.182035718039689,0.0
3464,-1.4052701705071273,0.0
3465,1.4685837212674713,0.0
3466,-0.7655059688614742,0.0
3467,0.2223789173083714,0.0
3468,0.006546987028006802,0.0
3469,-0.06830738863502404,0.0
3470,0.10073757121841459,0.0
3471,0.0011400980070545921,0.0
3472,0.002354751038044344,0.0
3473,-0.03204945062760831,0.0
3474,-0.021448971106104796,0.0
3475,-0.05722111628140718,0.0
3476,-0.08997861910052206,0.0
3477,-0.02967641381592569,0.0
3478,-0.07091276843995789,0.0
3479,-0.04019255826902836,0.0
3480,0.3577315962311604,0.0
3481,4.095621666204093,0.0
3482,6.573401407533378,0.0
3483,-1.2081002045060434,0.0
3484,-1.3676913531501766,0.0
3485,1.325344479246908,0.0
3486,-0.7879779923166211,0.0
3487,0.29352208748334435,0.0
3488,-0.11099712162188918,0.0
3489,-0.008927480143213679,0.0
3490,0.038839058648223464,0.0
3491,0.05783646312446457,0.0
3492,-0.0053867849721324565,0.0
3493,-0.014144256570025548,0.0
3494,-0.1395935844454608,0.0
3495,-0.00998717487512852,0.0
3496,-0.0851929185132627,0.0
3497,-0.07914538677649378,0.0
3498,-0.11900102156967188,0.0
3499,0.029831416751847667,0.0
3500,0.3455701422125196,0.0
3501,4.105167933386355,0.0
3502,6.489705699871904,0.0
3503,-1.2492263700695834,0.0
3504,-1.4618484531180753,0.0
3505,1.3596981202530425,0.0
3506,-0.8432365445468747,0.0
3507,0.1717240496103324,0.0
3508,0.002671189602789427,0.0
3509,-0.036921807522389063,0.0
3510,-0.08343672658774291,0.0
3511,0.12771453682964276,0.0
3512,-0.04052926944315067,0.0
3513,0.05877053249236869,0.0
3514,-0.10284603527827446,0.0
3515,-0.0982295806075868,0.0
3516,-0.05146013999126757,0.0
3517,0.015411394391021689,0.0
3518,0.039289068489267456,0.0
3519,-0.08686597811415414,0.0
3520,0.3834832995666363,0.0
3521,4.019986392514585,0.0
3522,6.497638711127238,0.0
3523,-1.2882770044319416,0.0
3524,-1.3646521022746743,0.0
3525,1.4116557300904633,0.0
3526,-0.7590618321250086,0.0
3527,0.2228924668380122,0.0
3528,0.04525069178017489,0.0
3529,0.0741311500311166,0.0
3530,-0.024163818492863472,0.0
3531,-0.024507267781923484,0.0
3532,-0.08025470705490266,0.0
3533,-0.019602063709909807,0.0
3534,-0.003052652499934142,0.0
3535,-0.10472033593192887,0.0
3536,-0.004878069216637072,0.0
3537,-0.022319910898658132,0.0
3538,-0.013460298984653441,0.0
3539,-0.025229569888457027,0.0
3540,0.47019744078054826,0.0
3541,4.079812282370993,0.0
3542,6.5275612307900825,0.0
3543,-1.284384307051139,0.0
3544,-1.446402995613452,0.0
3545,1.404299053440222,0.0
3546,-0.822055345592721,0.0
3547,0.2585664114984706,0.0
3548,-0.05552269438241782,0.0
3549,0.0012488703809016635,0.0
3550,0.015152413861408986,0.0
3551,0.04896749157984745,0.0
3552,0.04065616713290807,0.0
3553,-0.1076811236337509,0.0
3554,-0.03780539072697142,0.0
3555,0.03238269737180764,0.0
3556,0.00654677378578092,0.0
3557,0.004678871665064558,0.0
3558,0.06053441135584023,0.0
3559,0.045324255491150586,0.0
3560,0.48276732956831725,0.0
3561,4.110174831293223,0.0
3562,6.564541193668932,0.0
3563,-1.125241097033374,0.0
3564,-1.4518238873417373,0.0
3565,1.372056674024985,0.0
3566,-0.7732210042588639,0.0
3567,0.3310933796274894,0.0
3568,-0.0473441799520623,0.0
3569,-0.08099443495347397,0.0
3570,0.052708765210618465,0.0
3571,-0.023440958561949537,0.0
3572,-0.004997884685436242,0.0
3573,-0.12618394900053959,0.0
3574,-0.0315232361890944,0.0
3575,-0.054729958229301934,0.0
3576,0.051795879599147235,0.0
3577,-0.028464646491978586,0.0
3578,-0.00973318838766199,0.0
3579,0.08009353632981063,0.0
3580,0.4974459803600487,0.0
3581,4.194076166441157,0.0
3582,6.689059041101411,0.0
3583,-1.1507017182623132,0.0
3584,-1.3025450299596566,0.0
3585,1.5104276825279972,0.0
3586,-0.8271955986647292,0.0
3587,0.20589347911952258,0.0
3588,0.0419727381418309,0.0
3589,-0.05118752080957581,0.0
3590,0.01220453165467007,0.0
3591,-0.017391135692824702,0.0
3592,-0.08334410709191818,0.0
3593,0.10252869623299185,0.0
3594,-0.13309279488691617,0.0
3595,-0.07910736353674527,0.0
3596,0.052964867546322576,0.0
3597,-0.01901074684587318,0.0
3598,0.048424349445894785,0.0
3599,-0.049878030656,0.0
3600,0.4718842985722161,0.0
3601,4.14683061984012,0.0
3602,6.521993478520524,0.0
3603,-1.1203105456563685,0.0
3604,-1.3134520438285373,0.0
3605,1.4386607889430083,0.0
3606,-0.6921049923191261,0.0
3607,0.1946387241129127,0.0
3608,0.056942024724934634,0.0
3609,0.04265691360494545,0.0
3610,0.028380053298861646,0.0
3611,0.045031864305004686,0.0
3612,0.053533858378578075,0.0
3613,0.14405411588458497,0.0
3614,0.07227508899644362,0.0
3615,0.15021295513169158,0.0
3616,0.081491766925548,0.0
3617,0.07253672967952546,0.0
3618,0.06443987306763552,0.0
3619,-0.009034582181872398,0.0
3620,0.46142516162307656,0.0
3621,4.2091270126316855,0.0
3622,6.616596360358514,0.0
3623,-1.1947989540302053,0.0
3624,-1.29024358234681,0.0
3625,1.5721837458711223,0.0
3626,-0.6884714688146715,0.0
3627,0.24177426692157872,0.0
3628,0.07046409012711713,0.0
3629,0.06843717300267416,0.0
3630,0.038434461603458425,0.0
3631,-0.07061802012211385,0.0
3632,0.08103693118838393,0.0
3633,0.030491807439834113,0.0
3634,0.036068312170141045,0.0
3635,-0.011389422391491568,0.0
3636,0.04105790001096362,0.0
3637,-0.027546815458913698,0.0
3638,0.07469931172378426,0.0
3639,0.04903395769166774,0.0
3640,0.5229802688404186,0.0
3641,4.273383312702285,0.0
3642,6.5555371171445955,0.0
3643,-1.1746151696894533,0.0
3644,-1.3620454023524482,0.0
3645,1.470450069153183,0.0
3646,-0.7727660629411436,0.0
3647,0.20026123299212467,0.0
3648,0.050046466271658936,0.0
3649,-0.022205651233167055,0.0
3650,0.03424192742732312,0.0
3651,-0.016044067063684272,0.0
3652,0.027998806846859084,0.0
3653,0.0690682491835674,0.0
3654,0.0458415991384277,0.0
3655,0.09432108517476419,0.0
3656,0.06038158400082429,0.0
3657,-0.06464202597020882,0.0
3658,0.004805742354359602,0.0
3659,0.15203611290018113,0.0
3660,0.5132912739725791,0.0
3661,4.16325224287756,0.0
3662,6.532648998242822,0.0
3663,-1.0977105213183314,0.0
3664,-1.4223643756889466,0.0
3665,1.38153357087886,0.0
3666,-0.783358137796764,0.0
3667,0.23528537425458387,0.0
3668,0.0021570958329351943,0.0
3669,-0.056600004727388256,0.0
3670,0.026338001063009774,0.0
3671,-0.014161898752702535,0.0
3672,-0.04833114955688444,0.0
3673,-0.015218554047091656,0.0
3674,0.05018412817456855,0.0
3675,-0.0772342163055669,0.0
3676,-0.08128818432249293,0.0
3677,0.08305414346286506,0.0
3678,-0.0003221502427290645,0.0
3679,-0.033656302451976226,0.0
3680,0.3892210745463776,0.0
3681,4.124100104425436,0.0
3682,6.4977629739437,0.0
3683,-1.223718139217105,0.0
3684,-1.4689269322531076,0.0
3685,1.4109713922441756,0.0
3686,-0.8180639439376381,0.0
3687,0.3321312468733933,0.0
3688,-0.04577731134827638,0.0
3689,0.0054674324087385685,0.0
3690,-0.18131433912965433,0.0
3691,-0.033182038464216565,0.0
3692,0.043869314045463334,0.0
3693,0.06044125109454976,0.0
3694,-0.002550443643540949,0.0
3695,0.009976355003790745,0.0
3696,0.0400828760676656,0.0
3697,-0.01064828816258282,0.0
3698,-0.007076721451002067,0.0
3699,-0.004954108722751774,0.0
3700,0.46133525907269396,0.0
3701,4.1591787274129635,0.0
3702,6.576028717013552,0.0
3703,-1.2335450150808505,0.0
3704,-1.2079425002228765,0.0
3705,1.4061643309823175,0.0
3706,-0.7172854741887214,0.0
3707,0.3478549686999061,0.0
3708,0.04686874354334318,0.0
3709,0.08315163073744879,0.0
3710,0.09515988688517488,0.0
3711,0.006184000448924837,0.0
3712,-0.018538909649517064,0.0
3713,0.09838690702577976,0.0
3714,0.020141362718561463,0.0
3715,-0.07522764304541035,0.0
3716,0.0005276416476239845,0.0
3717,-0.040938351181776904,0.0
3718,-0.01364362242772286,0.0
3719,0.07352272559091892,0.0
3720,0.4163636428981592,0.0
3721,4.102600236183379,0.0
3722,6.541569197675903,0.0
3723,-1.1888091766375468,0.0
3724,-1.3765635168154025,0.0
3725,1.3882349328540382,0.0
3726,-0.8182594813301519,0.0
3727,0.22891274450231078,0.0
3728,0.02059884137988261,0.0
3729,-0.04792506482274297,0.0
3730,-0.054931289813190176,0.0
3731,0.004183632114956971,0.0
3732,0.0648609560249645,0.0
3733,-0.011115237970817572,0.0
3734,-0.02134242872071672,0.0
3735,0.08397737500423111,0.0
3736,0.006191968971441558,0.0
3737,-0.0014452598510902304,0.0
3738,-0.03972243828952752,0.0
3739,0.027375086010570954,0.0
3740,0.4669485494929608,0.0
3741,4.102442631788798,0.0
3742,6.481727614879078,0.0
3743,-1.251575670956498,0.0
3744,-1.3592737465110996,0.0
3745,1.3459267151117449,0.0
3746,-0.7529005571959126,0.0
3747,0.22142263559981346,0.0
3748,-0.04751965581887406,0.0
3749,-0.06310490628968449,0.0
3750,0.04035470756326767,0.0
3751,0.008274491496148638,0.0
3752,0.03019648175616239,0.0
3753,0.06701744774705912,0.0
3754,-0.009989788511350814,0.0
3755,-0.05465978791743787,0.0
3756,-0.005973504199348986,0.0
3757,0.03237402766228554,0.0
3758,0.03870877879757478,0.0
3759,-0.029497417930000783,0.0
3760,0.4461317514093034,0.0
3761,4.116524416693772,0.0
3762,6.643926953802086,0.0
3763,-1.2618599623028108,0.0
3764,-1.3559823502310824,0.0
3765,1.4046140893768098,0.0
3766,-0.7531773796438369,0.0
3767,0.2790881899865161,0.0
3768,0.1218188861984017,0.0
3769,0.061479578560560834,0.0
3770,0.0422076534354355,0.0
3771,0.03791518557862952,0.0
3772,0.004824945764387838,0.0
3773,0.05229004557069711,0.0
3774,0.007220582334017206,0.0
3775,0.021239376189660705,0.0
3776,0.03875109542706286,0.0
3777,-0.05185314644568956,0.0
3778,0.03492330295119977,0.0
3779,0.011637536254544997,0.0
3780,0.4379704940626674,0.0
3781,4.255745926463092,0.0
3782,6.482199920475432,0.0
3783,-1.3134258557372533,0.0
3784,-1.2915168897163352,0.0
3785,1.4280488397841733,0.0
3786,-0.8358781877652622,0.0
3787,0.30785720132214733,0.0
3788,0.021288107288515674,0.0
3789,-0.004728621765888556,0.0
3790,0.1505917673706873,0.0
3791,-0.023342245392733035,0.0
3792,0.061408959087663334,0.0
3793,0.043843332499824396,0.0
3794,0.0235866991251122,0.0
3795,-0.06057143065414981,0.0
3796,-0.02963969567376338,0.0
3797,0.07655308450051927,0.0
3798,0.007830092593603372,0.0
3799,0.011982243572733904,0.0
3800,0.4087660710965086,0.0
3801,4.217996760569952,0.0
3802,6.590363218935304,0.0
3803,-1.2772221760890543,0.0
3804,-1.3267550915386344,0.0
3805,1.4640985430515896,0.0
3806,-0.8229980171615702,0.0
3807,0.2734883682472788,0.0
3808,0.10397151333086374,0.0
3809,0.054429469494609556,0.0
3810,-0.0036692323881204747,0.0
3811,-0.006289011774344301,0.0
3812,0.16505924539063022,0.0
3813,0.046453536754853746,0.0
3814,0.05646733735429043,0.0
3815,-0.09967089260299786,0.0
3816,-0.0563593522387522,0.0
3817,-0.07367206296181616,0.0
3818,-0.0028666708200427923,0.0
3819,0.10308439872813419,0.0
3820,0.46620511240476387,0.0
3821,4.209636558875704,0.0
3822,6.591515616495136,0.0
3823,-1.1610226912899102,0.0
3824,-1.1845441567045518,0.0
3825,1.42762125295632,0.0
3826,-0.7289402689322293,0.0
3827,0.22349387444304286,0.0
3828,-0.08466100541769812,0.0
3829,0.01651910439902574,0.0
3830,0.032535516414126275,0.0
3831,0.044232541997053836,0.0
3832,0.08127809738426203,0.0
3833,-0.0976188223544081,0.0
3834,0.05167149733115367,0.0
3835,-0.05171409677190394,0.0
3836,0.06142951641826455,0.0
3837,0.09650151135463894,0.0
3838,-0.019746908212772432,0.0
3839,0.055911574462300745,0.0
3840,0.5078405267244375,0.0
3841,4.245205454227013,0.0
3842,6.4494268429527,0.0
3843,-1.2216079998128302,0.0
3844,-1.3862406380598524,0.0
3845,1.4366979868413148,0.0
3846,-0.7198809538704292,0.0
3847,0.24793518125716413,0.0
3848,-0.059559901793376044,0.0
3849,-0.015709829744920575,0.0
3850,0.03579213454587746,0.0
3851,-0.001270770101483236,0.0
3852,0.014665313475763976,0.0
3853,0.09740597317198128,0.0
3854,0.051883133750126514,0.0
3855,0.13851467237967108,0.0
3856,0.13251313371326218,0.0
3857,0.08555824378766766,0.0
3858,0.06917174865786932,0.0
3859,0.10611006530889464,0.0
3860,0.556209058475221,0.0
3861,4.374947286747696,0.0
3862,6.66109956404003,0.0
3863,-1.2305993136996183,0.0
3864,-1.3456177545941328,0.0
3865,1.4159593587726556,0.0
3866,-0.7508098358628198,0.0
3867,0.32045737392145845,0.0
3868,-0.03375976038495201,0.0
3869,0.06854094320886213,0.0
3870,0.09121740288470827,0.0
3871,0.09269982343733908,0.0
3872,-0.07162646359773471,0.0
3873,-0.05383492821054357,0.0
3874,0.12420003507330968,0.0
3875,-0.06681977193415051,0.0
3876,-0.07147518600309796,0.0
3877,-0.027519043788407273,0.0
3878,0.09842822702506805,0.0
3879,0.002459542707735577,0.0
3880,0.4572969039752146,0.0
3881,4.345330839712306,0.0
3882,6.561387611682551,0.0
3883,-1.2463452798895684,0.0
3884,-1.2203025110056862,0.0
3885,1.4847482539770576,0.0
3886,-0.7526467849158514,0.0
3887,0.23138965269337647,0.0
3888,-0.11824885143535908,0.0
3889,0.04095102697889967,0.0
3890,0.015856328973367757,0.0
3891,-0.023919787078607865,0.0
3892,0.07480436666032893,0.0
3893,0.14426655372538838,0.0
3894,-0.06000005652017206,0.0
3895,-0.011225747154341333,0.0
3896,0.04884097044655694,0.0
3897,0.023533799798295386,0.0
3898,0.15320150073545627,0.0
3899,-0.003674748446122006,0.0
3900,0.49140446796946474,0.0
3901,4.293475203777918,0.0
3902,6.62638733396983,0.0
3903,-1.1801717696838092,0.0
3904,-1.2438497404667466,0.0
3905,1.472029519284415,0.0
3906,-0.6448668412662537,0.0
3907,0.2786571207059796,0.0
3908,-0.10237372106413235,0.0
3909,0.03971669035877739,0.0
3910,0.07364018042013452,0.0
3911,0.021602557052844695,0.0
3912,-0.01990828989748037,0.0
3913,0.03950039287748522,0.0
3914,0.037560344276891915,0.0
3915,0.03708699070332442,0.0
3916,0.0194140894132137,0.0
3917,-0.09161705230207563,0.0
3918,0.017328694584928802,0.0
3919,0.05384558488953625,0.0
3920,0.4012661287424777,0.0
3921,4.163642666444893,0.0
3922,6.461106886186231,0.0
3923,-1.2249992892301405,0.0
3924,-1.2823105184185573,0.0
3925,1.2514059285213923,0.0
3926,-0.8398056899572963,0.0
3927,0.24258129727593153,0.0
3928,-0.0421822987839443,0.0
3929,-0.0618262615427709,0.0
3930,0.0864037750253102,0.0
3931,0.04279993681376,0.0
3932,-0.002873538069423103,0.0
3933,0.023806424496947948,0.0
3934,0.13514683645260178,0.0
3935,0.06828515572143214,0.0
3936,-0.053085430582394,0.0
3937,0.04798005982689005,0.0
3938,0.06373317502566596,0.0
3939,-0.041200049289677326,0.0
3940,0.3851934700533347,0.0
3941,4.240609923319296,0.0
3942,6.505297648206122,0.0
3943,-1.2708281470174823,0.0
3944,-1.2478095172156893,0.0
3945,1.355454662454736,0.0
3946,-0.7931318462434387,0.0
3947,0.24503906329360842,0.0
3948,0.010670984855143062,0.0
3949,-0.045333252808148594,0.0
3950,-0.05064554019333707,0.0
3951,-0.056032992175833796,0.0
3952,0.028465994194205684,0.0
3953,0.011584823729663777,0.0
3954,0.08174372598875707,0.0
3955,0.023983596144983098,0.0
3956,0.02563175965444167,0.0
3957,-0.06134224620877515,0.0
3958,-0.03943337611479289,0.0
3959,0.046486678138897834,0.0
3960,0.4594577827326594,0.0
3961,4.329920983961261,0.0
3962,6.577027783756056,0.0
3963,-1.3055309483358508,0.0
3964,-1.2706458431156231,0.0
3965,1.4361147866273094,0.0
3966,-0.8389743223590854,0.0
3967,0.3354849889001609,0.0
3968,0.007317914152412768,0.0
3969,0.038521484603795106,0.0
3970,0.031784255435564686,0.0
3971,0.07168258161366178,0.0
3972,-0.09078127796219718,0.0
3973,0.006626679499757739,0.0
3974,0.11074468683709654,0.0
3975,0.06912489669398073,0.0
3976,-0.07912489229898445,0.0
3977,-0.013559582543101825,0.0
3978,0.10975891220856118,0.0
3979,0.0004537094163315353,0.0
3980,0.4296459532331917,0.0
3981,4.187330753811125,0.0
3982,6.5897658844182505,0.0
3983,-1.2833322286164288,0.0
3984,-1.3623235417897337,0.0
3985,1.4393133123047788,0.0
3986,-0.7592219352238954,0.0
3987,0.29136007615177983,0.0
3988,-0.015120496141382996,0.0
3989,-0.07268066658646039,0.0
3990,0.036700867517063,0.0
3991,-0.03443878270261622,0.0
3992,0.05575801583873612,0.0
3993,0.12341863155088584,0.0
3994,0.12080594996031938,0.0
3995,0.039138699852417476,0.0
3996,0.05815266561318589,0.0
3997,0.09915574198797747,0.0
3998,0.13903970360740958,0.0
3999,0.028984559930563647,0.0
4000,0.5437787817112985,0.0
4001,4.373296121493939,0.0
4002,6.5804680483976465,0.0
4003,-1.1680011991526862,0.0
4004,-1.1924611582330933,0.0
4005,1.626172416342055,0.0
4006,-0.6655705465142914,0.0
4007,0.3845720125708495,0.0
4008,0.042728043910910285,0.0
4009,0.09317939471236356,0.0
4010,0.07711266509763053,0.0
4011,0.13811093904953223,0.0
4012,0.09896654585949147,0.0
4013,0.1096794961776649,0.0
4014,0.03439028215441903,0.0
4015,0.032271838967035754,0.0
4016,0.1105657500556308,0.0
4017,0.13244013759847792,0.0
4018,-0.02382242324060891,0.0
4019,0.00298371578506261,0.0
4020,0.5215988219165953,0.0
4021,4.308406710087997,0.0
4022,6.615949554610814,0.0
4023,-1.2386129565480877,0.0
4024,-1.2268794852875453,0.0
4025,1.5790002809186987,0.0
4026,-0.7090985475597619,0.0
4027,0.2649100453000133,0.0
4028,-0.027037895498751685,0.0
4029,0.0894506627390451,0.0
4030,0.04376905267295779,0.0
4031,0.08974497292145331,0.0
4032,0.004827126704287657,0.0
4033,0.055113369020341155,0.0
4034,0.08408186183134696,0.0
4035,0.13669049512335027,0.0
4036,0.001959956616865141,0.0
4037,0.04232961783726619,0.0
4038,0.021094602250542285,0.0
4039,0.20781392178128716,0.0
4040,0.4770124835342696,0.0
4041,4.25984742518113,0.0
4042,6.616895815116033,0.0
4043,-1.206162875323488,0.0
4044,-1.2916507183757155,0.0
4045,1.4431977260417794,0.0
4046,-0.8062144928040489,0.0
4047,0.2716317310922832,0.0
4048,-0.09067887555363532,0.0
4049,0.05458496042219643,0.0
4050,0.07834755962891743,0.0
4051,0.1000551062514566,0.0
4052,0.03719690181531636,0.0
4053,0.02920029601532941,0.0
4054,0.08774287673538125,0.0
4055,0.02995472863682775,0.0
4056,0.055913899908409656,0.0
4057,0.07284217037189976,0.0
4058,0.07062678501155967,0.0
4059,0.0168578809977053,0.0
4060,0.4493870149309488,0.0
4061,4.264713810012385,0.0
4062,6.516996154319898,0.0
4063,-1.337927176765698,0.0
4064,-1.2294327631076145,0.0
4065,1.406387794064701,0.0
4066,-0.8028996319362958,0.0
4067,0.33601200187967883,0.0
4068,-0.0038439545262388894,0.0
4069,0.01562701792455508,0.0
4070,0.097311690532111,0.0
4071,-0.08340708845269867,0.0
4072,-0.0004603874167843115,0.0
4073,0.05740495875870734,0.0
4074,-0.05384798092404398,0.0
4075,-0.0016987766180696674,0.0
4076,-0.07840712887190879,0.0
4077,-0.03882915652843211,0.0
4078,-0.039917655014733294,0.0
4079,0.06329241415252343,0.0
4080,0.4732176582776746,0.0
4081,4.227760512140563,0.0
4082,6.4632787235789,0.0
4083,-1.2776467962967093,0.0
4084,-1.2359649341575525,0.0
4085,1.3478902740701595,0.0
4086,-0.842681933188558,0.0
4087,0.3141494644156071,0.0
4088,-0.03362987996699574,0.0
4089,-0.020773958196306307,0.0
4090,0.018753921278996336,0.0
4091,0.040108901658370374,0.0
4092,0.04240839740153111,0.0
4093,0.11479909908834357,0.0
4094,0.06875906969067946,0.0
4095,0.08619645370867951,0.0
4096,0.02107047875294934,0.0
4097,-0.09058078762296257,0.0
4098,0.012642885664573889,0.0
4099,0.007672489979682565,0.0
4100,0.4185347240756156,0.0
4101,4.400752120674631,0.0
4102,6.511231003441186,0.0
4103,-1.3398417788223305,0.0
4104,-1.2268865478447586,0.0
4105,1.4523358185514323,0.0
4106,-0.7144771626082309,0.0
4107,0.21201498668406793,0.0
4108,0.06592445119207316,0.0
4109,-0.00898338802031141,0.0
4110,0.08172506770108566,0.0
4111,0.006850427162811411,0.0
4112,0.025610829668763692,0.0
4113,-0.015247111614019829,0.0
4114,-0.02847566610376363,0.0
4115,-0.015901008927644875,0.0
4116,0.06641090250813828,0.0
4117,-0.012518574751959149,0.0
4118,0.009161596862221594,0.0
4119,0.007387524568889707,0.0
4120,0.4371336813019321,0.0
4121,4.249593185793034,0.0
4122,6.460760040260933,0.0
4123,-1.3108595534659913,0.0
4124,-1.2259542156608,0.0
4125,1.3377533979300347,0.0
4126,-0.7720027349037333,0.0
4127,0.24517088695952194,0.0
4128,-0.014096008741575176,0.0
4129,0.05904150958904156,0.0
4130,0.05562348960940413,0.0
4131,-0.023259041479961877,0.0
4132,0.011927147802168383,0.0
4133,0.13966984884075878,0.0
4134,0.054798901094864474,0.0
4135,0.03877719509218204,0.0
4136,0.08267778264575981,0.0
4137,0.03997649832311266,0.0
4138,0.07351192755475464,0.0
4139,-0.0660713589474006,0.0
4140,0.3166336498430449,0.0
4141,4.218120407836454,0.0
4142,6.464605688971038,0.0
4143,-1.3374604212519046,0.0
