timestamp,value-0,is_anomaly
0,0.3610883994897732,0
1,3.644166211845916,0
2,7.079819121552838,0
3,-0.22002481818441738,0
4,-1.9623980719994223,0
5,1.7062786275448096,0
6,-0.7525126544531026,0
7,0.21937513532118114,0
8,0.03218090005060323,0
9,-0.09211101160249313,0
10,0.08294784837317096,0
11,-0.037620930499037336,0
12,-0.024242200044575432,0
13,-0.05514008262307241,0
14,0.04663283825375118,0
15,0.04190586089785099,0
16,0.018686550746769903,0
17,0.07953193639927322,0
18,-0.025175504033020584,0
19,0.005257212500585334,0
20,0.2819232341287253,0
21,3.493652481614465,0
22,6.932591157092877,0
23,-0.2271691209597187,0
24,-1.9305228225172253,0
25,1.549111314190696,0
26,-0.6053356288990698,0
27,0.15733238667816105,0
28,0.07834771358161093,0
29,-0.04228452788683918,0
30,0.012657389531307996,0
31,0.033695775950619816,0
32,0.04937007639118495,0
33,0.14074353136474482,0
34,0.052035261228785455,0
35,0.09255690783905651,0
36,0.05999893028842985,0
37,0.0784335907706509,0
38,0.013568130561433637,0
39,0.06397346662980186,0
40,0.3384872340293639,0
41,3.5117039885019006,0
42,6.939016812423539,0
43,-0.22986360533176836,0
44,-1.987197602755046,0
45,1.5684452977673757,0
46,-0.8145018593889493,0
47,0.2715385723438295,0
48,0.06430033689348479,0
49,-0.006240609275982807,0
50,0.12197229955571827,0
51,0.02081372686331845,0
52,-0.020826869340775902,0
53,-0.05002208582670491,0
54,0.01348040282189934,0
55,0.06834871164849343,0
56,0.037948598842352084,0
57,0.093767752026458,0
58,0.13070938420048311,0
59,0.056603609796732755,0
60,0.3429328632127964,0
61,3.5388829212348805,0
62,7.041241863887545,0
63,-0.13949275903273087,0
64,-1.8001439785134656,0
65,1.6524252708518208,0
66,-0.687619074836147,0
67,0.1943545192993836,0
68,0.022886802349582562,0
69,-0.12637095553649455,0
70,0.10773342093595947,0
71,0.02333710001025725,0
72,0.043233247192369526,0
73,0.008175632761494907,0
74,0.06008252515004351,0
75,-0.04038337569161608,0
76,-0.01497023711483534,0
77,-0.0039212165694994285,0
78,0.03305626677364847,0
79,0.09774060852216648,0
80,0.29418083595131106,0
81,3.5835364582083065,0
82,6.9993334182612745,0
83,-0.25800132419338945,0
84,-1.85020328291359,0
85,1.5699490824949516,0
86,-0.6930619384610208,0
87,0.15819687025597526,0
88,0.08846116890667512,0
89,-0.044593157248244246,0
90,0.1002099857424293,0
91,0.12248748065524759,0
92,0.1239381170755291,0
93,0.13705457661761283,0
94,0.08209703679186477,0
95,0.05764047595822206,0
96,0.11278585729046128,0
97,0.13383698926360857,0
98,0.014192790342351214,0
99,-0.018145728572321107,0
100,0.3696619743240853,0
101,3.6476007357288216,0
102,6.944582743598804,0
103,-0.13824857743095953,0
104,-1.8368533227028951,0
105,1.5785732197476041,0
106,-0.6272192798528745,0
107,0.19687503952978266,0
108,0.10887411490609374,0
109,-0.011237376122597183,0
110,0.09915074911554955,0
111,-0.009721969454789356,0
112,0.016020074943814654,0
113,-0.061926207171686794,0
114,0.17340507078876122,0
115,0.04351342381789676,0
116,0.03249771866947954,0
117,-0.03378043964925717,0
118,0.019576960242309212,0
119,0.00730209812385599,0
120,0.34721685538867925,0
121,3.5290232977800216,0
122,6.842882988517851,0
123,-0.16577187691776712,0
124,-1.880340659596052,0
125,1.4699178698393913,0
126,-0.65338803333027,0
127,0.1542541461276543,0
128,0.08245635358809769,0
129,0.05047813134561883,0
130,0.08337873983027912,0
131,0.08240485916234884,0
132,0.08571226316092002,0
133,0.09774760676942287,0
134,0.056359437654496726,0
135,0.10272339816916952,0
136,-0.0053107576068665355,0
137,0.11535190107034612,0
138,-0.03891465370489608,0
139,0.0428825339413518,0
140,0.2746341525083543,0
141,3.5187113997024246,0
142,6.877324530484788,0
143,-0.3087319042114889,0
144,-1.9013290169980623,0
145,1.568318177889102,0
146,-0.7352021788835752,0
147,0.13641694391118447,0
148,0.17677740493275163,0
149,0.0486866573684879,0
150,0.10723117421166106,0
151,0.0584120163290942,0
152,0.1181852585487586,0
153,0.04715980861990135,0
154,0.06114857844249868,0
155,0.11491044996637526,0
156,0.10636632979019901,0
157,0.019874690177284486,0
158,0.07997058782423333,0
159,0.058665634106930924,0
160,0.32245770450883726,0
161,3.5454842320149536,0
162,6.878624040850029,0
163,-0.21326635779226505,0
164,-1.8360546583424489,0
165,1.5309852585523402,0
166,-0.6434099524431237,0
167,0.04750385848479895,0
168,-0.015805746046670045,0
169,-0.03296738458912851,0
170,0.03930658728625088,0
171,-0.038849288817198596,0
172,0.016091470668563455,0
173,0.002635672347111917,0
174,-0.06191993231015666,0
175,-0.018446707245970702,0
176,-0.03357940474084963,0
177,0.018295990062260067,0
178,-0.05945300102950993,0
179,0.11380785564052134,0
180,0.24461335994802158,0
181,3.5640600451016864,0
182,6.915993142918747,0
183,-0.1413232960647937,0
184,-1.946472419264382,0
185,1.5993957543992507,0
186,-0.7143080464067637,0
187,0.19316135177917593,0
188,0.13969746184574794,0
189,-0.0343985013610946,0
190,0.10020236878378497,0
191,0.08287962543072125,0
192,0.014141589718291717,0
193,0.010246446985011938,0
194,0.019380989775160434,0
195,0.06734824726739033,0
196,0.03404215175455119,0
197,-0.016369699115528907,0
198,-0.039211966136981045,0
199,0.06292885514454842,0
200,0.27565623822091706,0
201,3.5912178805471426,0
202,6.968739133365262,0
203,-0.2062937308065847,0
204,-1.8885433791218338,0
205,1.5776120382399932,0
206,-0.665848112388099,0
207,0.15737395518091085,0
208,0.028669165165360493,0
209,-0.040952590951832284,0
210,0.06749290171688606,0
211,-0.030333935123032396,0
212,0.10607332049296928,0
213,0.17109770046181977,0
214,0.013182837272210368,0
215,0.04856767407490156,0
216,0.06120391146835221,0
217,0.11401358867133643,0
218,0.03192011022335831,0
219,0.09990186570626577,0
220,0.3166061941307862,0
221,3.550456237895879,0
222,6.875881851223077,0
223,-0.272107165537361,0
224,-1.9149520897924712,0
225,1.5514655798018426,0
226,-0.6881679045682977,0
227,0.18518355155400876,0
228,0.07837976376216166,0
229,-0.028532573319342787,0
230,0.0865675892280951,0
231,0.01571842023843072,0
232,0.056920087503946865,0
233,0.12138938797714817,0
234,0.010255558712109984,0
235,0.028383393057555044,0
236,0.037146828459531524,0
237,0.04066356778906547,0
238,0.0004838595195378395,0
239,-0.002127071463759707,0
240,0.35036456462673504,0
241,3.5631327728869144,0
242,6.998742056567372,0
243,-0.3066182576026382,0
244,-1.820536014831187,0
245,1.5371733180479825,0
246,-0.6228348223911878,0
247,0.06943203728444314,0
248,-0.023782834087592724,0
249,-0.10363332884379262,0
250,-0.008493108423279497,0
251,0.024501173049025597,0
252,0.0020673228791754233,0
253,-0.05206166339595177,0
254,0.038092049245330106,0
255,-0.06571587963411814,0
256,-0.07675804520010646,0
257,0.01940829946054638,0
258,0.037868969536026115,0
259,0.025823872360185088,0
260,0.25871378673757506,0
261,3.500632060194782,0
262,6.875947429849184,0
263,-0.35626577652721797,0
264,-1.8923118409140314,0
265,1.4148403301424086,0
266,-0.8487530620708856,0
267,0.010952192449015949,0
268,-0.021761140333009445,0
269,-0.02900148358473907,0
270,-0.06800873093209245,0
271,-0.028289676401638427,0
272,0.06373993147128543,0
273,-0.033563673390866,0
274,-0.0008788081989009738,0
275,-0.11636057909721004,0
276,-0.02205354302309783,0
277,-0.049305155455896414,0
278,-0.022502026474134774,0
279,0.007069307980181148,0
280,0.19404502778321478,0
281,3.492808576763908,0
282,6.912049027168325,0
283,-0.305663307069354,0
284,-1.946866108905441,0
285,1.457697319317624,0
286,-0.78144937755838,0
287,0.19414109411506808,0
288,-0.053330857718735976,0
289,-0.1484152366343756,0
290,-0.03655474263154304,0
291,0.01767999329734468,0
292,-0.07465125043957668,0
293,0.049612792082924226,0
294,-0.03401419106917421,0
295,-0.10617579834468387,0
296,-0.0110282826343431,0
297,-0.011238300887593745,0
298,-0.008184174623555276,0
299,0.009321634557117039,0
300,0.24959271691144197,0
301,3.5518562117635355,0
302,6.9128590596610415,0
303,-0.31723848608869776,0
304,-1.8450915480540167,0
305,1.4826414782434056,0
306,-0.7655791616791022,0
307,0.17039671643948343,0
308,0.07181998480352017,0
309,-0.09801720834975396,0
310,0.05216236129673606,0
311,-0.04227296844992645,0
312,0.01701829695007586,0
313,0.01562795325755073,0
314,0.07620790891394216,0
315,0.03201142818891419,0
316,0.03777430975831517,0
317,-0.0146819211113793,0
318,0.06194830519400845,0
319,0.018778484255767454,0
320,0.256629369675469,0
321,3.583156517435148,0
322,6.858548765420805,0
323,-0.3810957173630143,0
324,-1.9492257804831736,0
325,1.5362570362659933,0
326,-0.7961245684167818,0
327,0.1442082160633405,0
328,-0.08746783322937576,0
329,-0.1593338268220449,0
330,-0.11086129516737314,0
331,-0.12012491158555552,0
332,-0.04424551536262528,0
333,0.0011417005124110535,0
334,0.01991518857952488,0
335,-0.062242752526538964,0
336,0.0669376658612981,0
337,-0.07634479582608074,0
338,-0.15450608895892298,0
339,-0.05121325075937353,0
340,0.19103658468745727,0
341,3.510709908292102,0
342,6.856238588180478,0
343,-0.4014293964606923,0
344,-1.9786037498236235,0
345,1.4622441024105566,0
346,-0.709592721222663,0
347,0.07775252505178504,0
348,0.04678114324990053,0
349,-0.1433952139859257,0
350,-0.10518083846209857,0
351,0.02724920428161052,0
352,0.006490017908274987,0
353,-0.014125905510612538,0
354,-0.0025263988317455847,0
355,0.06460251446687575,0
356,-0.15094717065164745,0
357,-0.06361916243787136,0
358,-0.04575052253767843,0
359,0.01475228020172174,0
360,0.25431618120857563,0
361,3.564971409985776,0
362,6.835375451114065,0
363,-0.44814063351107125,0
364,-1.8419564804690134,0
365,1.4550420195435043,0
366,-0.7354417756847234,0
367,0.04679730240310051,0
368,-0.028806623665311937,0
369,0.050802423521124906,0
370,-0.08574138140806632,0
371,-0.07938264071450046,0
372,-0.04269301597041282,0
373,-0.07692783404043177,0
374,-0.033688204960730245,0
375,0.03447241553520344,0
376,0.08150662171329347,0
377,0.0020050102027670495,0
378,0.01163866419359912,0
379,0.020966429887384144,0
380,0.36457866544895434,0
381,3.555293831688321,0
382,6.93349517841318,0
383,-0.33019515632897695,0
384,-1.7936843777602596,0
385,1.5080590471364188,0
386,-0.693889837122456,0
387,0.034975952254861636,0
388,0.03876159532173891,0
389,-0.07947141761049727,0
390,0.09798977070510985,0
391,-0.02386581333468855,0
392,-0.012555646780279858,0
393,-0.08843637937647514,0
394,-0.08738357647892386,0
395,-0.05254360411777542,0
396,0.010297263890724787,0
397,-0.01668564980193313,0
398,0.06383404179223193,0
399,-0.0746376627315722,0
400,0.3160649497710296,0
401,3.6078122196271183,0
402,6.8882767185665426,0
403,-0.37961834843268905,0
404,-1.914595671092647,0
405,1.5626325658542792,0
406,-0.7548380783736491,0
407,0.18032683069515293,0
408,-0.006191337222115276,0
409,-0.04473434416852788,0
410,0.02665637175382808,0
411,0.05481284881855468,0
412,0.03522864336176488,0
413,0.01351015785104222,0
414,0.0021309852312539866,0
415,0.009653854216817876,0
416,0.020034700875654073,0
417,-0.03338063709082786,0
418,-0.02097463903686406,0
419,-0.00609151101883049,0
420,0.20746875162419892,0
421,3.5919301130434516,0
422,6.851155322197923,0
423,-0.3193911238593879,0
424,-1.875053351462314,0
425,1.5376578841041086,0
426,-0.7867254925026609,0
427,0.24798774127279122,0
428,0.01826891757836864,0
429,0.010936211829896748,0
430,0.20881106717320677,0
431,0.18765088013452236,0
432,0.07568770799441128,0
433,0.013693401913635432,0
434,0.08486957461077481,0
435,0.07481197788054196,0
436,0.0065019263060918375,0
437,0.054693446026418284,0
438,0.1442230488976395,0
439,0.07566526803441039,0
440,0.3056928763159843,0
441,3.584242804145967,0
442,6.945899083468658,0
443,-0.3366198391400901,0
444,-1.8732715809486162,0
445,1.5931930305864466,0
446,-0.7696027420405785,0
447,0.18027448575829116,0
448,0.06621493172177823,0
449,-0.05927043631611516,0
450,0.008551676218810082,0
451,0.013769152377863423,0
452,0.0651145535988796,0
453,0.06081890447153886,0
454,-0.031632295526021745,0
455,-0.011061709547680688,0
456,0.0016488293966128373,0
457,0.08183791208023608,0
458,0.035139810846459535,0
459,0.01819003672986276,0
460,0.36169442836472987,0
461,3.6066487710066277,0
462,6.938780393001179,0
463,-0.35891047489594824,0
464,-1.8177270759197226,0
465,1.604916621471152,0
466,-0.6918233724350623,0
467,0.1199272147307476,0
468,0.05732888185110802,0
469,0.0012021353024965313,0
470,0.1632017431759853,0
471,0.08714744248991789,0
472,0.05097928187795308,0
473,0.037990915522349095,0
474,0.08962577067836959,0
475,0.05893110086500504,0
476,0.051304174264552166,0
477,0.04027283212788138,0
478,0.14793484706156346,0
479,0.21978610214052946,0
480,0.3812058465389798,0
481,3.569303078265985,0
482,6.822710540421712,0
483,-0.32443584654425256,0
484,-1.810360702215935,0
485,1.6390710805443025,0
486,-0.5753725939055564,0
487,0.30656412661645116,0
488,0.07685759898550068,0
489,0.012960362824715358,0
490,0.11860878401712865,0
491,0.1308985275568289,0
492,0.13965767619955358,0
493,0.12254635762765712,0
494,0.06279210412007252,0
495,0.08248720756080444,0
496,0.16466667448895836,0
497,0.18482069859821224,0
498,0.021539941508639457,0
499,0.08360722350056213,0
500,0.4020813281055391,0
501,3.6671229345991843,0
502,6.937740490415815,0
503,-0.22598237108136093,0
504,-1.7701491535738174,0
505,1.5762264833261377,0
506,-0.5512978793673285,0
507,0.28165652662910495,0
508,0.11796880113164832,0
509,0.10169489277798917,0
510,0.24233965197702784,0
511,0.011827512717964311,0
512,0.16493231811563716,0
513,0.14579183093619888,0
514,0.27218011311656265,0
515,0.0828834549027451,0
516,0.07220430203519976,0
517,0.13107611484202605,0
518,0.0601058305653876,0
519,0.0936526617051464,0
520,0.3720817554369791,0
521,3.5738804723349222,0
522,6.916441089120604,0
523,-0.2747490081360729,0
524,-1.836612508743273,0
525,1.5733290989869313,0
526,-0.7290304493514149,0
527,0.23667849022058154,0
528,0.09968941665690016,0
529,0.009302358700704744,0
530,0.16417509474359177,0
531,0.023048685195236285,0
532,0.03489250004146964,0
533,0.10366429375098782,0
534,0.09764769635688218,0
535,0.020728777493094014,0
536,-0.008559019490467668,0
537,0.10825185915273762,0
538,0.007894611499186632,0
539,0.12554647895994123,0
540,0.441286212720006,0
541,3.7943807783448777,0
542,7.050174549361601,0
543,-0.21650532397987546,0
544,-1.7110893230890152,0
545,1.645743599889914,0
546,-0.6516829067096854,0
547,0.33009375589035805,0
548,0.2147693715155921,0
549,0.15325941305995178,0
550,0.06788124027476965,0
551,0.12111773599518832,0
552,0.06728510830180354,0
553,-0.033765335434300436,0
554,0.022408146609316122,0
555,0.0609643654237169,0
556,0.09197167293850496,0
557,0.01954180445161427,0
558,0.028220876753806728,0
559,-0.08398565034443002,0
560,0.2981870133634058,0
561,3.6288299667040143,0
562,6.848978478735607,0
563,-0.3714079597350197,0
564,-1.8844356171361756,0
565,1.5341255721407336,0
566,-0.686324599104344,0
567,0.22625394859310624,0
568,0.03477212900333364,0
569,-0.03802434765175138,0
570,0.1393717452139062,0
571,0.0217389298478783,0
572,0.09272010558760349,0
573,0.1020538485245239,0
574,0.052351508984089225,0
575,0.1359769361104858,0
576,0.0817836349026793,0
577,0.19712158013534084,0
578,0.0496592178129754,0
579,0.15954812912781433,0
580,0.38431151288877735,0
581,3.7511817328983565,0
582,6.967632371599178,0
583,-0.26681698530730547,0
584,-1.7620575967222254,0
585,1.6051175525870998,0
586,-0.6689261126401728,0
587,0.09064043051861422,0
588,0.011540460002985475,0
589,0.09007992808628743,0
590,0.059802622079410096,0
591,0.04312125475011862,0
592,0.017792772821607444,0
593,0.029571339149582408,0
594,-0.0017822804962549788,0
595,0.09560856240020171,0
596,0.03077854725935899,0
597,0.005579589772659342,0
598,0.04417799928086437,0
599,0.027776912603520193,0
600,0.28559518774536324,0
601,3.7059856397911544,0
602,6.9502085778089775,0
603,-0.37546192219481844,0
604,-1.7121224557811328,0
605,1.58936837181055,0
606,-0.6372409623737718,0
607,0.20673116403178138,0
608,0.12012941606626311,0
609,-0.029112306173128606,0
610,0.05962136766408584,0
611,-0.013853169241773121,0
612,0.029314200543264758,0
613,0.026557252986257402,0
614,-0.05458646233991457,0
615,-0.007150982846877516,0
616,0.05604782466952918,0
617,0.12677630596657313,0
618,0.11638421352388995,0
619,-0.05780195314611526,0
620,0.4008110738121813,0
621,3.7018601812816674,0
622,6.86606613253324,0
623,-0.4433796436033036,0
624,-1.711661347216238,0
625,1.4282929224065994,0
626,-0.6594710683292102,0
627,0.12954909664283965,0
628,0.020814368698404424,0
629,0.007334782992332691,0
630,0.05653501451438456,0
631,0.07260153204442901,0
632,0.03358396393002219,0
633,0.15277558260412316,0
634,-0.023065463881087163,0
635,0.05334368933101468,0
636,0.046690882212675866,0
637,0.02225918312284907,0
638,0.08131157802420014,0
639,0.044125880570616394,0
640,0.35816475654282487,0
641,3.6635967692578855,0
642,6.958756895239931,0
643,-0.3503507361545018,0
644,-1.7466946872647204,0
645,1.686605538804406,0
646,-0.6950489550439181,0
647,0.2579161411644928,0
648,-0.033826491006786336,0
649,0.04615105503177108,0
650,0.09405398707493108,0
651,0.016561776775022373,0
652,0.08088860323111154,0
653,0.05808166717750814,0
654,0.09147844184057859,0
655,0.06831265340257231,0
656,0.035199036087752315,0
657,-0.0030163037986369184,0
658,0.03363580115424202,0
659,0.08507127007811457,0
660,0.31145132900270717,0
661,3.7057526534103102,0
662,6.922580053753546,0
663,-0.3409727662556495,0
664,-1.8070835658942739,0
665,1.578621968642314,0
666,-0.5979987781984287,0
667,0.2010248597949862,0
668,0.14480124664843194,0
669,-0.02713193598371858,0
670,0.13356027815914218,0
671,0.041796565518568765,0
672,0.08395783462527162,0
673,0.07324492732254952,0
674,0.10000028531980439,0
675,0.06744707286822173,0
676,0.07580467887526142,0
677,0.05759600987994397,0
678,-0.004842495153355594,0
679,0.06830831512542157,0
680,0.33248124634756976,0
681,3.701028679997765,0
682,6.9024532411190505,0
683,-0.47066425024549946,0
684,-1.8068977499745458,0
685,1.5779729762875818,0
686,-0.6963960274583629,0
687,0.15065848040864155,0
688,0.13666310054868436,0
689,0.03482561187955116,0
690,0.15491555416648517,0
691,0.0667691043118726,0
692,0.03963849986693024,0
693,0.07270634850758673,0
694,0.08837169616990105,0
695,0.11003088702182073,0
696,0.21028609635545709,0
697,0.1375025054570065,0
698,0.045730063614544944,0
699,0.11647594879472854,0
700,0.37321853539535843,0
701,3.7365142684031487,0
702,6.8669899166888,0
703,-0.37319462927443753,0
704,-1.7374593294487972,0
705,1.6171365297973774,0
706,-0.5489711525331553,0
707,0.21364646800797998,0
708,0.13277894855700775,0
709,0.04105683469532549,0
710,0.07021819241408657,0
711,0.028404372772754836,0
712,0.05084712935866734,0
713,0.07476537353755432,0
714,0.09786242202804062,0
715,0.04730669351715805,0
716,0.06380074365855927,0
717,0.022636216578165447,0
718,0.008518987567218132,0
719,-0.00037966739725127374,0
720,0.3829397278955961,0
721,3.5911486077753594,0
722,6.936753244359038,0
723,-0.4219613222771667,0
724,-1.8456856051739103,0
725,1.570798767742569,0
726,-0.6323201226739887,0
727,0.2058601424211524,0
728,0.006294410259349792,0
729,0.07978420723293991,0
730,0.07712964102880444,0
731,0.050718850101147676,0
732,-0.025598176454990296,0
733,0.06345380997526714,0
734,0.12110631063222449,0
735,0.07561349772825471,0
736,0.030471357445737708,0
737,0.007802481791050558,0
738,0.16138881162217222,0
739,0.09474010025372095,0
740,0.33242536081891055,0
741,3.7711282319873476,0
742,6.9021135624005705,0
743,-0.3532191106355499,0
744,-1.767905192038993,0
745,1.5575036612990132,0
746,-0.5772941348105399,0
747,0.34781336247110367,0
748,0.1986556167991967,0
749,0.027478035222387218,0
750,0.06939080479602275,0
751,0.025152005522623963,0
752,0.0687318897375667,0
753,0.03289517389737759,0
754,0.1206098417636679,0
755,0.0017828791529208576,0
756,0.07725906903525646,0
757,0.008775611451054002,0
758,0.058418950341412285,0
759,0.13725617921385427,0
760,0.26007142817800843,0
761,3.606327362175739,0
762,6.8374205424586725,0
763,-0.3972125787731136,0
764,-1.7708789450887248,0
765,1.6193805816158082,0
766,-0.6517190134908413,0
767,0.2639307562470849,0
768,0.06142033623800256,0
769,-0.10959952884663035,0
770,0.09101797529612922,0
771,-0.04579352576357218,0
772,0.19546247385672677,0
773,0.13126077566159638,0
774,0.0507490667230371,0
775,0.115290845820302,0
776,0.05767661442856262,0
777,0.0628727617127289,0
778,0.03724594180580729,0
779,0.006105648485162568,0
780,0.3163628666181096,0
781,3.768254378674254,0
782,6.917343992312853,0
783,-0.38864298287262977,0
784,-1.7577247941485687,0
785,1.6647755816037493,0
786,-0.6477945133976529,0
787,0.1703545186695713,0
788,0.18933346303137288,0
789,-0.05397194918846389,0
790,0.14236333247196092,0
791,0.11609861720873486,0
792,0.04485780312741066,0
793,0.08123916314938173,0
794,-0.033612875985457175,0
795,0.15116862942701012,0
796,0.07092792603903908,0
797,0.020699470681365767,0
798,0.029496398411636877,0
799,0.039043704398234874,0
800,0.3287696314186377,0
801,3.6585598366924144,0
802,6.931926751344949,0
803,-0.4343395393060129,0
804,-1.8164260140709496,0
805,1.5865298600097193,0
806,-0.6884784037237228,0
807,0.24058175359954204,0
808,0.055369019027714114,0
809,-0.03977911557490177,0
810,0.1275521580462967,0
811,0.033263647928895024,0
812,0.0801592153838495,0
813,0.1729236688186563,0
814,0.09487595137320694,0
815,0.09776612405380385,0
816,0.05319338704658064,0
817,0.024702126028530128,0
818,0.0744692991014379,0
819,0.14058719217055732,0
820,0.34209930975670866,0
821,3.779301239697557,0
822,6.8915410305361675,0
823,-0.3489364535746348,0
824,-1.8274138481249234,0
825,1.6174200608985319,0
826,-0.6840358969971739,0
827,0.20286249938689085,0
828,0.028242707076144416,0
829,0.06279549760064489,0
830,0.06738569971328369,0
831,-0.032351561115039236,0
832,0.08236967477184512,0
833,-0.0023381182894346604,0
834,-0.04865770307762461,0
835,0.05421222178457427,0
836,0.10882470613258943,0
837,-0.015739325878080197,0
838,0.009151270067383713,0
839,0.10564487587214848,0
840,0.32440752494872166,0
841,3.7064080370802794,0
842,6.758251843848012,0
843,-0.3795607436446701,0
844,-1.8178326571352634,0
845,1.5993510239168613,0
846,-0.7231261170589669,0
847,0.11691638577423014,0
848,-0.0415581882325514,0
849,0.01983359303901605,0
850,-0.05369185743809836,0
851,0.02943784985397288,0
852,-0.06466351581287791,0
853,-0.08373795387558566,0
854,-0.010561653539516162,0
855,-0.08864906727755664,0
856,-0.03451425192526587,0
857,0.038426786031466764,0
858,0.051420922329969046,0
859,0.12480945849669194,0
860,0.36676700434374504,0
861,3.7073252026707233,0
862,6.8708201306919765,0
863,-0.3581700192148069,0
864,-1.7803618702424584,0
865,1.6124976272489837,0
866,-0.6957585584301171,0
867,0.20463091241809245,0
868,0.15404242715049932,0
869,0.04049217307047517,0
870,0.06915991263784863,0
871,0.016817985713807992,0
872,0.16367130159422605,0
873,0.18333484123733024,0
874,0.028635052506022593,0
875,0.04581860415217451,0
876,0.04897885646869841,0
877,-0.0037569992306995467,0
878,-0.03201688244898747,0
879,0.057692407763173734,0
880,0.31825942640583493,0
881,3.6626794981626936,0
882,6.910777659737665,0
883,-0.482692566872521,0
884,-1.7245585827864802,0
885,1.552142033508901,0
886,-0.6918216509905248,0
887,0.2716061685689043,0
888,0.09821331227769134,0
889,0.02458902806513588,0
890,0.16907571072943695,0
891,0.09013436906641052,0
892,-0.0036864457731088512,0
893,0.04526615369723612,0
894,0.007641280832968698,0
895,0.0030132601832818327,0
896,0.0787276416656947,0
897,-0.027791240784827306,0
898,-0.0648148692807829,0
899,-0.104680984748913,0
900,0.22583633780835294,0
901,3.627461642658247,0
902,6.739623366486889,0
903,-0.5846579213828467,0
904,-1.9051145013713595,0
905,1.4753123248631097,0
906,-0.8273356221854193,0
907,0.14400800329780628,0
908,0.014918741517603758,0
909,-0.02087694085233728,0
910,0.10606725749736781,0
911,-0.03157990643127626,0
912,-0.049269763506629705,0
913,-0.02252772154584413,0
914,0.031067844515053712,0
915,-0.042629321815152374,0
916,0.04586043728051161,0
917,-0.036785319690574414,0
918,0.04665094497848667,0
919,0.010650365352686673,0
920,0.3092725741701356,0
921,3.6399604722324685,0
922,6.8273788287361645,0
923,-0.5174595979658103,0
924,-1.784100298855683,0
925,1.5083089249252268,0
926,-0.727678912837813,0
927,0.1105340547278825,0
928,0.035148601005040164,0
929,-0.08525333745200937,0
930,-0.054631954800154835,0
931,-0.08399017500831381,0
932,-0.08278607397225209,0
933,0.06531778636546987,0
934,-0.07010222957276402,0
935,-0.0760471836658177,0
936,0.04544473282174484,0
937,0.018358640202139724,0
938,-0.08396808606596401,0
939,-0.03802201036550833,0
940,0.2902435045957995,0
941,3.6551247540043517,0
942,6.895129332424649,0
943,-0.46250264366547816,0
944,-1.7918819055256194,0
945,1.395458558733429,0
946,-0.7929164231122572,0
947,0.09774675162337748,0
948,-0.014163879310257626,0
949,0.026945666604994374,0
950,0.04446486178210805,0
951,0.020925960219586724,0
952,0.018431599190443834,0
953,0.03256122225820191,0
954,-0.07894805000152921,0
955,-0.03383551721578019,0
956,0.07242225451241167,0
957,0.030587530408963427,0
958,0.07775329058978282,0
959,0.11815413634227286,0
960,0.23245840742369422,0
961,3.610658696824207,0
962,6.800258325561492,0
963,-0.5989178752162507,0
964,-1.932961213539203,0
965,1.3671000675248388,0
966,-0.8067343299079907,0
967,0.020601099748392235,0
968,-0.044485108821421926,0
969,-0.11112748797028395,0
970,-0.10816653316945649,0
971,-0.10902566268561625,0
972,-0.16553114459184035,0
973,-0.033144558304152874,0
974,-0.024762902736040336,0
975,-0.09385899598258121,0
976,0.016457175097216233,0
977,-0.050318637977559956,0
978,-0.04875848400635581,0
979,-0.07904301998794674,0
980,0.2661188075578789,0
981,3.6265719671104053,0
982,6.802780463902883,0
983,-0.4949189585791939,0
984,-1.824292647760981,0
985,1.4343806477686583,0
986,-0.8695987656450656,0
987,0.20249466810972994,0
988,0.06956737468111866,0
989,-0.06153098179985186,0
990,0.05416537128279526,0
991,-0.04820289890043763,0
992,-0.03407948178942952,0
993,0.05795419904637062,0
994,-0.0040694289564210395,0
995,-0.004998747177975035,0
996,0.0939000954171786,0
997,0.0028624311911654016,0
998,-0.04303533692734473,0
999,-0.03865381032462304,0
1000,0.3539048988201212,0
1001,3.678145004602831,0
1002,6.753577914539915,0
1003,-0.5366900320823713,0
1004,-1.8635271092993033,0
1005,1.5121063512867126,0
1006,-0.8125750950830177,0
1007,0.10147474297880912,0
1008,-0.008759442965016033,0
1009,-0.05839901824691094,0
1010,-0.0693397355585299,0
1011,0.00643380126494736,0
1012,-0.10037031708854016,0
1013,-0.08453065893423085,0
1014,-0.011551637097789193,0
1015,-0.11131441405203335,0
1016,-0.0749813038119105,0
1017,-0.013964669142285807,0
1018,-0.026710348751454126,0
1019,-0.06468995045697698,0
1020,0.2441650226320862,0
1021,3.627243443671003,0
1022,6.837843937532826,0
1023,-0.5246418680900838,0
1024,-1.8171850162958034,0
1025,1.5111837929981746,0
1026,-0.6951607314505417,0
1027,0.09451843657807105,0
1028,-0.057816375413715954,0
1029,-0.11716784224068737,0
1030,0.05451250068160864,0
1031,-0.12208254857919486,0
1032,-0.06465427292490537,0
1033,-0.06176330144555101,0
1034,-0.1462896390934657,0
1035,-0.07081262693226793,0
1036,-0.03222400039850318,0
1037,-0.029644154491384318,0
1038,-0.037398619825173486,0
1039,-0.019945260497103864,0
1040,0.22344036786419327,0
1041,3.6146790603444585,0
1042,6.759937385350187,0
1043,-0.5805513139426801,0
1044,-1.8767849768028613,0
1045,1.5318187454067291,0
1046,-0.7404862097765132,0
1047,0.113366892457534,0
1048,0.025947377028693812,0
1049,-0.017243293324199764,0
1050,-0.11754860876877432,0
1051,0.0023071254997823545,0
1052,-0.02872351558019179,0
1053,-0.05585261714215723,0
1054,0.02034307499547755,0
1055,-0.087698420766668,0
1056,-0.0758670263237956,0
1057,-0.02696002313021966,0
1058,-0.06299580318895553,0
1059,-0.12611797272405648,0
1060,0.1855269356801166,0
1061,3.553568994149818,0
1062,6.66383220725996,0
1063,-0.6050533441428109,0
1064,-1.8922447220987093,0
1065,1.4756221420977573,0
1066,-0.7884549563728699,0
1067,0.06540518544386931,0
1068,-0.01733207123506295,0
1069,-0.14929833557679778,0
1070,0.04340410236292351,0
1071,-0.016901910505905435,0
1072,-0.024166410337863844,0
1073,0.06202353228460765,0
1074,-0.0038594934514118934,0
1075,-0.0012308395161106924,0
1076,-0.06618361598716821,0
1077,0.019745828676214987,0
1078,-0.08240145280079611,0
1079,-0.0186990061773927,0
1080,0.2530635642752412,0
1081,3.6047647874762334,0
1082,6.7548523687622,0
1083,-0.6591654333581166,0
1084,-1.90236663570172,0
1085,1.3632781968413499,0
1086,-0.8334423350394895,0
1087,0.14158930035130654,0
1088,0.012871925049261781,0
1089,-0.2152968985652698,0
1090,-0.10031779769678538,0
1091,-0.08637983963427472,0
1092,-0.13197551806804844,0
1093,-0.062361416807846036,0
1094,-0.07530382294808294,0
1095,-0.118888775185161,0
1096,-0.1294549281839905,0
1097,-0.07128063856765163,0
1098,-0.10083036666745301,0
1099,-0.01331490784285451,0
1100,0.33455291364094225,0
1101,3.5591126247115548,0
1102,6.772254254020379,0
1103,-0.6338750532977143,0
1104,-1.912045069974933,0
1105,1.47985034513748,0
1106,-0.7104503451340317,0
1107,0.0412953430890966,0
1108,0.03444890717913616,0
1109,-0.07546127775759069,0
1110,0.03887616731939134,0
1111,-0.011480156631362148,0
1112,-0.09205965071962077,0
1113,-0.07335246926943555,0
1114,-0.07492099227022464,0
1115,0.03329374268825195,0
1116,0.02129331713787718,0
1117,-0.004421813686835769,0
1118,-0.01782264129129911,0
1119,-0.021348688081436733,0
1120,0.3141617497685594,0
1121,3.7326077063809207,0
1122,6.765775830691065,0
1123,-0.5757625879781061,0
1124,-1.866875381147639,0
1125,1.4593579723454346,0
1126,-0.7012835172214384,0
1127,0.06587513514372965,0
1128,-0.03824979976357962,0
1129,-0.06682081164897083,0
1130,-0.0004776599431586554,0
1131,-0.11079543267109307,0
1132,-0.013178883560269623,0
1133,-0.08825274983774248,0
1134,0.024511985521386163,0
1135,-0.0787713543291623,0
1136,-0.09173896705333895,0
1137,-0.0653398606713298,0
1138,-0.15669270493647341,0
1139,-0.06341414674660795,0
1140,0.3442925712467063,0
1141,3.5354524759502386,0
1142,6.748467041614389,0
1143,-0.5463363222166611,0
1144,-1.8267723068777144,0
1145,1.5720354343409215,0
1146,-0.8344442473822467,0
1147,0.13992609231352673,0
1148,-0.04019470660367943,0
1149,-0.08105873749950711,0
1150,0.02131415844092132,0
1151,-0.06202364728936449,0
1152,-0.04290964159611994,0
1153,0.011035976627077178,0
1154,0.019643192174318386,0
1155,0.02483625902686675,0
1156,0.004146731849146476,0
1157,0.038303533638289394,0
1158,-0.0245654473415067,0
1159,0.016432983519600465,0
1160,0.3344270061840177,0
1161,3.8053068775435155,0
1162,6.830208879001382,0
1163,-0.49571743252462164,0
1164,-1.8594417045287333,0
1165,1.6817237364284368,0
1166,-0.7456039682615175,0
1167,0.2504492343578794,0
1168,0.014731037594305402,0
1169,-0.141641512801903,0
1170,-0.09550803870774169,0
1171,-0.08997564863935913,0
1172,-0.14009504713347187,0
1173,-0.0476723321165055,0
1174,0.02894793002072463,0
1175,0.060853238026910554,0
1176,-0.04884722517452306,0
1177,0.0038038441681423844,0
1178,-0.013923371526816932,0
1179,-0.08931638237206076,0
1180,0.3138108693746247,0
1181,3.758911801598931,0
1182,6.878524362545091,0
1183,-0.6279922808236865,0
1184,-1.81128545240045,0
1185,1.4752786260455515,0
1186,-0.7713069127763602,0
1187,0.22419671493807333,0
1188,-0.0865978647779914,0
1189,-0.004532097436323185,0
1190,0.016413817077416744,0
1191,-0.008190759136166754,0
1192,0.06386654336231044,0
1193,-0.045883194729124596,0
1194,0.03313348210969659,0
1195,-0.002161242355531074,0
1196,-0.021659584521134263,0
1197,0.038831902795263724,0
1198,0.014747897409548773,0
1199,-0.0035132502441506674,0
1200,0.30292250073991545,0
1201,3.7246765825942756,0
1202,6.787668709060463,0
1203,-0.4950291563813762,0
1204,-1.6718201890018098,0
1205,1.5331979139865084,0
1206,-0.6972173044877712,0
1207,0.21878298088736253,0
1208,0.01004729554395422,0
1209,-0.06987762886851256,0
1210,0.09118525398285199,0
1211,-0.0354520414104532,0
1212,-0.004719562939806841,0
1213,0.03250769542881601,0
1214,-0.03268793815912406,0
1215,0.054380985092722774,0
1216,0.021698758050490614,0
1217,0.034283431822953056,0
1218,-0.018634656665973928,0
1219,0.018211278432871052,0
1220,0.31128572355064843,0
1221,3.6859121064543157,0
1222,6.827680074805637,0
1223,-0.4408528229286135,0
1224,-1.6415846399277216,0
1225,1.5959890199484725,0
1226,-0.7082957512409792,0
1227,0.22021146094094393,0
1228,0.1588822608375593,0
1229,-0.039204635510733825,0
1230,0.10571606647648644,0
1231,0.11663332320268782,0
1232,0.03988448015031149,0
1233,0.06802807895315514,0
1234,0.0875854139221988,0
1235,-0.028151579061102328,0
1236,0.0034156383471377824,0
1237,0.09907108073509213,0
1238,0.10242711891117107,0
1239,0.049128351417311145,0
1240,0.36879674727451667,0
1241,3.7790740158895146,0
1242,6.820916813181779,0
1243,-0.5855771662264263,0
1244,-1.8647950532454483,0
1245,1.5073673709877986,0
1246,-0.736889314106677,0
1247,0.15541542080034865,0
1248,-0.015140417234971039,0
1249,0.05537228173774064,0
1250,0.07345588369490852,0
1251,0.026586885653250826,0
1252,-0.012324982523685267,0
1253,0.034969758038230304,0
1254,-0.05458850823837631,0
1255,0.03917577183249896,0
1256,0.02845382811726079,0
1257,-0.01076463554517965,0
1258,0.0029809552662851853,0
1259,-0.029853638310214828,0
1260,0.30417253117392684,0
1261,3.670025346275616,0
1262,6.7797002263497586,0
1263,-0.6479135823350382,0
1264,-1.78216279891355,0
1265,1.4554666401723673,0
1266,-0.6666351919744085,0
1267,0.16021598396867637,0
1268,-0.013847357181158405,0
1269,-0.02587957943400574,0
1270,0.04084695728542622,0
1271,-0.0522001151191325,0
1272,0.09139506747219547,0
1273,0.029162687500136588,0
1274,0.07332207265908791,0
1275,0.11638053903830652,0
1276,0.1255905259450347,0
1277,-0.030271699519675618,0
1278,0.012002323333776552,0
1279,-0.028337435064257815,0
1280,0.279708597454401,0
1281,3.8038494946341976,0
1282,6.7736225012711015,0
1283,-0.608944146676662,0
1284,-1.7963421536221862,0
1285,1.5756749718222918,0
1286,-0.8416304364838162,0
1287,0.12373176599982103,0
1288,0.013340265346140905,0
1289,-0.036441240388254574,0
1290,0.08692551560411302,0
1291,-0.036526495703006465,0
1292,0.06676466389094128,0
1293,-0.03574123911257565,0
1294,0.005589559261931401,0
1295,0.006454107936429164,0
1296,0.04224080392297418,0
1297,0.036610310312871486,0
1298,-0.009935519493748117,0
1299,-0.000465630994607369,0
1300,0.3127981615369286,0
1301,3.7785309087669465,0
1302,6.751864133294054,0
1303,-0.5863165794687754,0
1304,-1.8352902563441371,0
1305,1.5288099884625548,0
1306,-0.7347838645015436,0
1307,0.23228931745659892,0
1308,-0.011811149924703874,0
1309,-0.0014377615496421678,0
1310,-0.049996741005313275,0
1311,-0.002151009432377834,0
1312,-0.043207316237917445,0
1313,0.016092924946535504,0
1314,-0.04364782640658125,0
1315,-0.08195214557251272,0
1316,0.023733582600246814,0
1317,0.03431343243485238,0
1318,-0.005012673020989326,0
1319,-0.0012665034736762722,0
1320,0.20242236979382394,0
1321,3.6963822663969146,0
1322,6.75166775463437,0
1323,-0.6673616711997087,0
1324,-1.7956619676127579,0
1325,1.4682683703434753,0
1326,-0.7612593601055015,0
1327,0.15302737539485559,0
1328,-0.008996294812847031,0
1329,-0.056219414212946066,0
1330,0.013834949481702686,0
1331,-0.04115041022182752,0
1332,0.10040224976760027,0
1333,0.10691741341916851,0
1334,0.0273694686149517,0
1335,0.014011629709451842,0
1336,-0.03240723833131817,0
1337,-0.029629565229322818,0
1338,-0.0362170965077583,0
1339,-0.058460697974892534,0
1340,0.31944308775740565,0
1341,3.7027187735966294,0
1342,6.792347235496255,0
1343,-0.7177571333238689,0
1344,-1.7579058616904524,0
1345,1.503706952400589,0
1346,-0.8383961130920475,0
1347,0.19813533317732007,0
1348,-0.012957927337173814,0
1349,-0.1098291509843524,0
1350,0.03274723901796111,0
1351,0.09195655267585245,0
1352,0.053561740467454017,0
1353,0.05258847501668326,0
1354,-0.04213982867486294,0
1355,0.07428578557684068,0
1356,-0.06275227530219953,0
1357,-0.07469182327464412,0
1358,-0.05879168395721529,0
1359,-0.0124551664253848,0
1360,0.385573250945143,0
1361,3.8123070022016936,0
1362,6.785437705040332,0
1363,-0.6986165960029787,0
1364,-1.7284538626141268,0
1365,1.5944837494354331,0
1366,-0.8144658595553105,0
1367,0.1643290957273141,0
1368,-0.01957330048732809,0
1369,-0.057918893054019614,0
1370,-0.00010621219510474709,0
1371,-0.04566891147900759,0
1372,-0.07196097696019624,0
1373,-0.016318306137065967,0
1374,-0.010873464061605052,0
1375,-0.014543348486454175,0
1376,-0.022524075467199825,0
1377,-0.035492046117221614,0
1378,0.010035226654439143,0
1379,0.04419691013669466,0
1380,0.354870653729256,0
1381,3.680815684850285,0
1382,6.713857144667077,0
1383,-0.7192662406181359,0
1384,-1.8076658070728564,0
1385,1.5204246071313021,0
1386,-0.8640698709569569,0
1387,0.06629569026117058,0
1388,-0.02963917857022913,0
1389,-0.11602307564240973,0
1390,0.11199927821211203,0
1391,-0.009733221118355449,0
1392,0.0723571131369322,0
1393,-0.03375964603843898,0
1394,-0.02483396051120536,0
1395,0.036016484782172016,0
1396,-0.009194092727082563,0
1397,0.09660598672874374,0
1398,-0.008577678716795711,0
1399,-0.07459078844461614,0
1400,0.33733943352390994,0
1401,3.8357541959008215,0
1402,6.705548316531222,0
1403,-0.6215080031574974,0
1404,-1.8321219575208822,0
1405,1.4455842284807947,0
1406,-0.7670372086251283,0
1407,0.22580780382613502,0
1408,-0.11277215894311947,0
1409,-0.10627875673307054,0
1410,-0.0003619505384924132,0
1411,-0.08467766372193267,0
1412,0.10825008627895114,0
1413,0.039282138933459346,0
1414,0.0070790015849287406,0
1415,0.01647996751999401,0
1416,-0.11765753788783402,0
1417,-0.041627645234741675,0
1418,0.03028473384820571,0
1419,-0.007999031135789,0
1420,0.24653265745276923,0
1421,3.7077187505179725,0
1422,6.798435138923488,0
1423,-0.7264456036064257,0
1424,-1.719541840823141,0
1425,1.5521804215637245,0
1426,-0.7914969148292692,0
1427,0.14754513021411667,0
1428,-0.01641464197717473,0
1429,-0.02816576375865009,0
1430,-0.03474692038543098,0
1431,0.07990950161521146,0
1432,-0.015188928252117252,0
1433,-0.03707201903192463,0
1434,0.017885539954384914,0
1435,-0.04858934831382356,0
1436,0.08920333921289385,0
1437,0.035807976534922986,0
1438,-0.022651715158239417,0
1439,-0.00929439334089717,0
1440,0.2887543618566634,0
1441,3.6958801286099234,0
1442,6.771480041056014,0
1443,-0.716489322239834,0
1444,-1.806032617286067,0
1445,1.5472282000638096,0
1446,-0.7709796894470583,0
1447,0.19500972397366273,0
1448,0.024478089038586608,0
1449,-0.005147637578304082,0
1450,0.08295279796846702,0
1451,0.09096356223394447,0
1452,-0.030505745736153025,0
1453,0.10604289096948744,0
1454,-0.08811423423486127,0
1455,-0.034667433672969455,0
1456,-0.0962177614831988,0
1457,-0.055284195184198096,0
1458,-0.013833082779158182,0
1459,-9.874817190755076e-05,0
1460,0.386525457216465,0
1461,3.8043421055164006,0
1462,6.7611118802234795,0
1463,-0.6845718414944905,0
1464,-1.6991252615523473,0
1465,1.4772414108783651,0
1466,-0.6540104393306568,0
1467,0.2583577675874106,0
1468,0.044443626487773884,0
1469,0.09990805271703321,0
1470,0.17229843576045004,0
1471,-0.012969462351508726,0
1472,0.12878554255166866,0
1473,0.042464065674380325,0
1474,0.0781511294330714,0
1475,0.02285750834056174,0
1476,0.09179811207363027,0
1477,-0.05785179491949562,0
1478,0.04398328836454581,0
1479,0.017317112847779977,0
1480,0.27401272764775114,0
1481,3.7688251702353335,0
1482,6.721384330538352,0
1483,-0.6818138215874812,0
1484,-1.7125137158826138,0
1485,1.5282559030764904,0
1486,-0.755172476653708,0
1487,0.16850601414508737,0
1488,0.12804716717641215,0
1489,0.04228605410776114,0
1490,0.05182906773704205,0
1491,0.11694718250311359,0
1492,0.08885355026245362,0
1493,0.06879051452384537,0
1494,0.12434769120433767,0
1495,0.10096267324090388,0
1496,0.03074829493924289,0
1497,0.022098175526434154,0
1498,0.01683872712796107,0
1499,0.1380074842458516,0
1500,0.3145690137055616,0
1501,3.715415720449815,0
1502,6.7278919286003855,0
1503,-0.6529932224167234,0
1504,-1.6480108798125543,0
1505,1.5083268252921012,0
1506,-0.733959462487082,0
1507,0.25329139788536625,0
1508,0.008248019956548523,0
1509,-0.11473786207526507,0
1510,0.1129778262132635,0
1511,-0.020076452659667003,0
1512,-0.07885855264997359,0
1513,-0.05633108477928836,0
1514,-0.04262767081828847,0
1515,0.09217856601229521,0
1516,0.030989349044388236,0
1517,-0.039603649664418,0
1518,-0.05694934904636163,0
1519,-0.027748689661400858,0
1520,0.28293039756329497,0
1521,3.8415792244750784,0
1522,6.739232595895999,0
1523,-0.7240667860250747,0
1524,-1.6856590787413148,0
1525,1.5363766908612204,0
1526,-0.6999989629103326,0
1527,0.10048775123256572,0
1528,-0.02286201654496503,0
1529,-0.026051274870258892,0
1530,0.0054162035237627845,0
1531,0.012800604252754179,0
1532,-0.03402974522268633,0
1533,-0.030983139203843643,0
1534,0.08416694910801023,0
1535,-0.04057607388353865,0
1536,-0.0005987945481336753,0
1537,-0.01935715750682914,0
1538,0.08823552998077934,0
1539,-0.023795802950801068,0
1540,0.2995539225677222,0
1541,3.8269366159930223,0
1542,6.735073401793141,0
1543,-0.6881287570120166,0
1544,-1.696467654040939,0
1545,1.4281900511295893,0
1546,-0.8434517022648365,0
1547,0.2316101436245077,0
1548,-0.03616270158860217,0
1549,0.027399236303566443,0
1550,0.024614701131284313,0
1551,-0.039937934190755656,0
1552,0.03984735451286019,0
1553,0.08541506985434252,0
1554,0.09224815434494088,0
1555,0.04073845631921289,0
1556,0.0633420320285852,0
1557,0.02386239642239024,0
1558,-0.011123535205391482,0
1559,0.026024824449891633,0
1560,0.28811249608591327,0
1561,3.733233557403306,0
1562,6.798678399957443,0
1563,-0.6379099915351549,0
1564,-1.7412255728384036,0
1565,1.4694593220267818,0
1566,-0.6941615263934109,0
1567,0.168268904724697,0
1568,-0.035277618529725656,0
1569,-0.08997325000125042,0
1570,0.07440560395711507,0
1571,-0.06812610624044718,0
1572,-0.006461870327905834,0
1573,-0.04850086822585907,0
1574,-0.04949983488469213,0
1575,-0.021784069259061546,0
1576,0.0098870439469896,0
1577,-0.02896497960472337,0
1578,-0.0032123848708000956,0
1579,-0.042789795912464026,0
1580,0.3216493363368342,0
1581,3.7803861010474153,0
1582,6.817355875838091,0
1583,-0.6448436466678243,0
1584,-1.6797039494685226,0
1585,1.4701223661150598,0
1586,-0.7274172181063121,0
1587,0.1626488335188638,0
1588,0.05852366985296467,0
1589,0.013866388999818513,0
1590,0.02343717926944015,0
1591,-0.08187491066666491,0
1592,0.04313725134922075,0
1593,-0.05513125517730195,0
1594,-0.047943031545051154,0
1595,0.00969602479852294,0
1596,-0.002659386469770566,0
1597,-0.032523049510618185,0
1598,-0.10024484269796181,0
1599,0.04138731593829398,0
1600,0.2659920227897351,0
1601,3.7462133588224447,0
1602,6.7723486657490355,0
1603,-0.7779058431480794,0
1604,-1.7432774906964044,0
1605,1.489956770386343,0
1606,-0.8003946577233675,0
1607,0.10395868528079945,0
1608,0.05166379882730571,0
1609,0.00494572566980974,0
1610,-0.06469886824100188,0
1611,-0.10453720734296007,0
1612,0.032991727668375055,0
1613,0.036301746328981255,0
1614,-0.01612693273781439,0
1615,-0.026367967753367957,0
1616,0.060584053507032776,0
1617,-0.04757451081621979,0
1618,-0.017480434371841824,0
1619,0.06036080959573675,0
1620,0.2863222430887995,0
1621,3.764416599618051,0
1622,6.703729164959091,0
1623,-0.6972168751557606,0
1624,-1.7688988340771223,0
1625,1.5099478300623397,0
1626,-0.7971209621992341,0
1627,0.1136932564498306,0
1628,0.02063355023754102,0
1629,-0.1130923733985697,0
1630,-0.010746841543501567,0
1631,0.005715778468625303,0
1632,-0.1081844599123873,0
1633,-0.05642006557492919,0
1634,-0.07807601578026407,0
1635,0.047565423573148566,0
1636,-0.078097127490995,0
1637,0.011555598416451287,0
1638,0.01989620869337411,0
1639,-0.027111865163911605,0
1640,0.26697225173948363,0
1641,3.77466925364487,0
1642,6.869416160915754,0
1643,-0.7432144635008068,0
1644,-1.7043403836936124,0
1645,1.4880938723065924,0
1646,-0.7618524658057338,0
1647,0.13387369627892792,0
1648,-0.05333588929557487,0
1649,-0.0658869472732761,0
1650,0.013472259884805778,0
1651,-0.049263030832244425,0
1652,-0.009551829753328533,0
1653,-0.0038260383278197266,0
1654,0.010218567915053677,0
1655,-0.014918178143256456,0
1656,-0.08652647864531017,0
1657,-0.05181980008753041,0
1658,-0.07498431631411305,0
1659,-0.05607562320724042,0
1660,0.2380357125003501,0
1661,3.672109925935811,0
1662,6.747092306417463,0
1663,-0.7741846748826708,0
1664,-1.716720164823726,0
1665,1.4848870495881332,0
1666,-0.7633469557011051,0
1667,0.09677301534014826,0
1668,0.020100438500367905,0
1669,-0.06621532996037342,0
1670,0.08144272273484038,0
1671,0.011799520863325037,0
1672,-0.04143215722021742,0
1673,0.01572093928911815,0
1674,-0.05426094588865367,0
1675,-0.012718587965894382,0
1676,-0.1796256851637104,0
1677,-0.06553430712167045,0
1678,0.008525971096249703,0
1679,-0.012756429959429633,0
1680,0.2619445668400838,0
1681,3.7462052974851736,0
1682,6.729400638900175,0
1683,-0.7815384533574307,0
1684,-1.704141555064625,0
1685,1.4484579137012372,0
1686,-0.8434091520453241,0
1687,0.2269218492180332,0
1688,-0.1027471647910421,0
1689,-0.01094646020463022,0
1690,0.0007346482465760609,0
1691,-0.11326337645796833,0
1692,-0.026200712422014376,0
1693,0.0521152583892664,0
1694,-0.031963255136982865,0
1695,0.039898195880360886,0
1696,-0.04857161591999958,0
1697,-0.07000369537345028,0
1698,-0.07452201481077178,0
1699,-0.08090816601698939,0
1700,0.32330669650852917,0
1701,3.745350718905598,0
1702,6.622536598203675,0
1703,-0.8573788015488962,0
1704,-1.821678448670187,0
1705,1.3445135421672485,0
1706,-0.8940691906325327,0
1707,0.09154254097730215,0
1708,-0.1435094847360099,0
1709,-0.1845386493044749,0
1710,-0.0915328162240187,0
1711,-0.1998488381638171,0
1712,-0.1515159362672847,0
1713,-0.2152452933244634,0
1714,-0.1034994877616119,0
1715,-0.1149649418123637,0
1716,-0.15908754036289174,0
1717,-0.09635318305684247,0
1718,-0.036437213480005365,0
1719,-0.09124447609350528,0
1720,0.26519864446353875,0
1721,3.7522226503929974,0
1722,6.75366126587977,0
1723,-0.7707228612057127,0
1724,-1.7293141349136236,0
1725,1.4319529519659246,0
1726,-0.902329473317716,0
1727,0.08700584185585666,0
1728,-0.0919977778734121,0
1729,-0.18952510816220094,0
1730,-0.03929782954664503,0
1731,-0.15307117753882737,0
1732,-0.10531094701881874,0
1733,-0.1069061505625267,0
1734,-0.0032958899877270076,0
1735,-0.11052662864514966,0
1736,-0.08824421518257511,0
1737,-0.1580579577143656,0
1738,-0.1287157455423717,0
1739,-0.05964052589133421,0
1740,0.2725409715868016,0
1741,3.749987363729834,0
1742,6.719052254039901,0
1743,-0.8922794278192807,0
1744,-1.7340411122275359,0
1745,1.3781311582979732,0
1746,-0.8947255166585275,0
1747,0.08977857061085588,0
1748,-0.10688087078077918,0
1749,-0.14506661161296577,0
1750,-0.06271369541760048,0
1751,-0.2075267455321499,0
1752,-0.08781477344221829,0
1753,-0.17581908770358534,0
1754,-0.07835288196238277,0
1755,-0.01999707899073974,0
1756,-0.23370254908100135,0
1757,-0.12070092846678233,0
1758,-0.03707229394085419,0
1759,-0.14790451579866848,0
1760,0.25026020939821353,0
1761,3.7112335517937027,0
1762,6.648778828388198,0
1763,-0.8721940567992786,0
1764,-1.9260856573887013,0
1765,1.3288941896151825,0
1766,-0.9568132462162398,0
1767,0.03207095159095755,0
1768,-0.22793796041748865,0
1769,-0.22309374305918359,0
1770,-0.15504615463788343,0
1771,-0.22696821789806337,0
1772,-0.09359756710914514,0
1773,-0.16325527247076455,0
1774,-0.1850237586784151,0
1775,-0.22290539440742113,0
1776,-0.18503850607580458,0
1777,-0.1647141271432369,0
1778,-0.1303508802289925,0
1779,-0.14252902614517324,0
1780,0.26321515908919413,0
1781,3.642773550207921,0
1782,6.643129014032052,0
1783,-0.9068092678011158,0
1784,-1.8327770677944402,0
1785,1.3836008416314938,0
1786,-0.8666822527621254,0
1787,0.04452877110151329,0
1788,-0.13163413806073937,0
1789,-0.14350340462761732,0
1790,-0.04521330571742241,0
1791,-0.08310498767831345,0
1792,-0.09756492810002648,0
1793,-0.06324545058493555,0
1794,-0.01524471444314536,0
1795,-0.05268580981672242,0
1796,-0.15241498528191866,0
1797,-0.01654115292429688,0
1798,-0.046391255474032826,0
1799,-0.09621031991910282,0
1800,0.2756902450434171,0
1801,3.7262706623027024,0
1802,6.6358022423028356,0
1803,-0.7869723862573935,0
1804,-1.7866240755233227,0
1805,1.3034032123135368,0
1806,-0.8361041407541643,0
1807,0.04447918991283849,0
1808,-0.08674301752883772,0
1809,-0.1731652337913688,0
1810,-0.14590871974099864,0
1811,-0.1577288494853697,0
1812,-0.09916359557271799,0
1813,-0.08889785399360713,0
1814,-0.06676298464934274,0
1815,-0.055976068467803425,0
1816,-0.23833179783747263,0
1817,-0.21257707831427944,0
1818,-0.05390153646328405,0
1819,-0.09051452022988613,0
1820,0.17750563336061098,0
1821,3.7510331924878217,0
1822,6.656330620235736,0
1823,-0.8358967534304104,0
1824,-1.8837549302696424,0
1825,1.3212324932065342,0
1826,-0.8992628855808795,0
1827,-0.005733637114823956,0
1828,-0.06919647060260127,0
1829,-0.13984844738049362,0
1830,-0.13560513065270438,0
1831,-0.21318929085046343,0
1832,-0.16782104701806064,0
1833,-0.0926512064913245,0
1834,-0.07220065016934288,0
1835,-0.12792203236510374,0
1836,-0.19036739553628013,0
1837,-0.1439188993151292,0
1838,-0.03727405329476147,0
1839,-0.13344898670303088,0
1840,0.13905938355533343,0
1841,3.7278490409803866,0
1842,6.657649296035779,0
1843,-0.9887820805157801,0
1844,-1.8857398192759545,0
1845,1.3327529899277373,0
1846,-0.8835009598105182,0
1847,-0.0034626889490551108,0
1848,-0.17966834590862224,0
1849,-0.22779903812818555,0
1850,-0.14092733749624073,0
1851,-0.16824086003775995,0
1852,-0.032635360856522855,0
1853,-0.18954621652400483,0
1854,-0.1672522923106668,0
1855,-0.11672646054112153,0
1856,-0.16001112948732887,0
1857,-0.1250288227556345,0
1858,-0.14727906709223237,0
1859,-0.13756847052352225,0
1860,0.2764180985574167,0
1861,3.6710012170384183,0
1862,6.665264832258197,0
1863,-0.8494753331922009,0
1864,-1.7998792473929692,0
1865,1.34144958488598,0
1866,-0.9500725533375197,0
1867,0.04127422710743701,0
1868,-0.056264557997797934,0
1869,-0.19779859111077325,0
1870,-0.12856255113570117,0
1871,-0.07168969485436459,0
1872,-0.10267104288292415,0
1873,-0.14438700179941955,0
1874,-0.19070757184125245,0
1875,-0.026841515770180763,0
1876,-0.07769125115003164,0
1877,-0.1543285620846131,0
1878,-0.17813768585768863,0
1879,-0.2522084711398852,0
1880,0.12771902455511255,0
1881,3.6884229375409774,0
1882,6.61726841356625,0
1883,-0.889525743140525,0
1884,-1.7488008687790422,0
1885,1.370792399703097,0
1886,-0.8255633834180833,0
1887,0.14207102330837362,0
1888,0.043236063348583584,0
1889,-0.18906382612286673,0
1890,-0.1066546981664183,0
1891,-0.1175198883638341,0
1892,-0.08164493291874365,0
1893,-0.04293172251875594,0
1894,-0.02808485169548948,0
1895,-0.06168403552640409,0
1896,-0.016636164827759745,0
1897,-0.12849072015433638,0
1898,-0.1318076933699092,0
1899,-0.07003545883403603,0
1900,0.1580100807304483,0
1901,3.6754692751589895,0
1902,6.656294634726565,0
1903,-0.868839414354346,0
1904,-1.7318525527566466,0
1905,1.3561709141447178,0
1906,-0.8786472752876102,0
1907,0.14892990271116063,0
1908,-0.12008671533464632,0
1909,-0.06778189499095671,0
1910,-0.09026293324992798,0
1911,-0.0825066432468998,0
1912,-0.0860345421290367,0
1913,-0.058733002852567495,0
1914,-0.010344499909925961,0
1915,-0.09274165205523002,0
1916,-0.012382055486472796,0
1917,-0.1549249101067557,0
1918,-0.030937155812393036,0
1919,-0.014186349815059424,0
1920,0.2826763994328661,0
1921,3.8264599110602586,0
1922,6.704248954531861,0
1923,-0.8165306869236296,0
1924,-1.7685569665231065,0
1925,1.4442656944132097,0
1926,-0.8407891025164053,0
1927,0.013899248712506168,0
1928,-0.06543846397189129,0
1929,-0.17347867367744302,0
1930,-0.092310015098721,0
1931,-0.026749639950801686,0
1932,-0.008437031041209131,0
1933,-0.14376858318447744,0
1934,-0.07156793767920742,0
1935,-0.13076671195398037,0
1936,-0.02571286088668362,0
1937,-0.03967029643897718,0
1938,-0.045586584300079155,0
1939,-0.11336966954941409,0
1940,0.28481786457389324,0
1941,3.820237259238501,0
1942,6.553059983193051,0
1943,-0.8587058080166996,0
1944,-1.7126932703017281,0
1945,1.4518387906840369,0
1946,-0.7638680270334919,0
1947,0.18152078933400145,0
1948,-0.0770791956723326,0
1949,-0.06403048365170425,0
1950,-0.11415782649271151,0
1951,-0.08707332766002128,0
1952,-0.05945868515128225,0
1953,0.0746680999637965,0
1954,-0.0637998068968402,0
1955,0.018908640855551516,0
1956,0.01607509735586695,0
1957,-0.10522870064478987,0
1958,-0.04482461789198716,0
1959,-0.10556061380699518,0
1960,0.34081135707721744,0
1961,3.8386541815892166,0
1962,6.6738946145537295,0
1963,-0.8470283858298077,0
1964,-1.7242388254132708,0
1965,1.3830868025033711,0
1966,-0.7906506700774034,0
1967,0.05517760317494805,0
1968,-0.062001236035379804,0
1969,-0.06315449476923761,0
1970,-0.061247908912518925,0
1971,-0.10871823445895482,0
1972,-0.03521922866563769,0
1973,-0.1020266288653977,0
1974,-0.07874015041008132,0
1975,-0.12914599645075775,0
1976,-0.08951127882607225,0
1977,0.016682573941777037,0
1978,-0.053836270931834726,0
1979,-0.087928103536096,0
1980,0.22472967738940194,0
1981,3.6791933504114334,0
1982,6.605911891789503,0
1983,-1.0009921931474532,0
1984,-1.7001498837590483,0
1985,1.4122732521628971,0
1986,-0.819431056664067,0
1987,0.10182927755162216,0
1988,-0.06129802830733322,0
1989,-0.16522607251675392,0
1990,-0.013731326167488442,0
1991,-0.10883319157078558,0
1992,-0.06070834858266462,0
1993,-0.021266779075383574,0
1994,-0.11576028981024411,0
1995,-0.05334588159124706,0
1996,-0.020975903385540833,0
1997,0.014715390725881405,0
1998,-0.058261734595077795,0
1999,-0.14786478515352192,0
2000,0.22794826462775472,0
2001,3.7964666308232204,0
2002,6.73022111958558,0
2003,-0.9414341736926762,0
2004,-1.6733310692932217,0
2005,1.4367914638127315,0
2006,-0.8351667803577799,0
2007,0.13580706372643075,0
2008,-0.06950841821853365,0
2009,-0.02120394373815468,0
2010,-0.05120525449013403,0
2011,0.016978679758329118,0
2012,-0.041721863227610144,0
2013,-0.06533802290160012,0
2014,-0.12185852507732803,0
2015,0.0141958481658363,0
2016,-0.045810288862537296,0
2017,-0.02250827380547918,0
2018,0.015736245479015212,0
2019,-0.03364083082128708,0
2020,0.32721419907820176,0
2021,3.797509367399506,0
2022,6.623331600398993,0
2023,-0.9160093720466568,0
2024,-1.7097348568792505,0
2025,1.3434261404568273,0
2026,-0.8096666775483466,0
2027,0.09037206947779783,0
2028,-0.1299031842710328,0
2029,-0.14898113746261926,0
2030,0.05485883475475014,0
2031,-0.06530710280063359,0
2032,-0.06439748690809427,0
2033,-0.002489481373080263,0
2034,-0.054441142131165535,0
2035,0.05094415124257229,0
2036,-0.09362148980978387,0
2037,-0.048644368899528403,0
2038,-0.06882715778747156,0
2039,-0.19897142719348992,0
2040,0.21763653701063662,0
2041,3.7707140623038944,0
2042,6.637796385215423,0
2043,-0.8558363509075864,0
2044,-1.7320879000895955,0
2045,1.31067088344311,0
2046,-0.7842079086162159,0
2047,0.15754427681809788,0
2048,-0.12972934026506883,0
2049,-0.04362174503937247,0
2050,-0.05454739471640779,0
2051,-0.05944998190314195,0
2052,-0.048126963695034095,0
2053,-0.028819767147851897,0
2054,-0.058856262446627956,0
2055,-0.09010946494929074,0
2056,-0.0803880811288997,0
2057,0.00647691558755302,0
2058,-0.1570463300697539,0
2059,-0.0494367608714584,0
2060,0.39442439547173325,0
2061,3.894073694102842,0
2062,6.581403683351688,0
2063,-0.8794541376622178,0
2064,-1.5684287499944056,0
2065,1.4354970663473718,0
2066,-0.7489333619663207,0
2067,0.0577002048147362,0
2068,-0.051729257464303374,0
2069,-0.10950040904332495,0
2070,-0.027062825885630883,0
2071,-0.013789930280556757,0
2072,-0.10326637631163385,0
2073,-0.039007405928362875,0
2074,0.041425991482406804,0
2075,0.03747923923881721,0
2076,0.012142148050879075,0
2077,0.03412702119385901,0
2078,0.0023211335173449962,0
2079,0.08969839813401764,0
2080,0.390163566039626,0
2081,3.900897536366967,0
2082,6.6968606170838925,0
2083,-0.756003741125073,0
2084,-1.6276791643266997,0
2085,1.4461146445487212,0
2086,-0.7829313344625377,0
2087,0.21047827600445915,0
2088,-0.06159378956124395,0
2089,-0.03273639903916625,0
2090,-0.05355826698237616,0
2091,-0.10727914273683817,0
2092,-0.1268172309510373,0
2093,-0.15461179190446878,0
2094,-0.04193956854037181,0
2095,0.012370983618692204,0
2096,-0.0032657412336727296,0
2097,0.017503872525959863,0
2098,-0.04216718693824894,0
2099,0.05750441890989952,0
2100,0.3954034435636664,0
2101,3.8908669915160092,0
2102,6.6850354552571,0
2103,-0.8038931489140579,0
2104,-1.6074181546326867,0
2105,1.480826022150409,0
2106,-0.7589686378717695,0
2107,0.21540411488860978,0
2108,-0.02868944563696496,0
2109,-0.06738403740020545,0
2110,0.04040797996691967,0
2111,-0.06272035950126911,0
2112,0.04782081993077978,0
2113,-0.04290470237207561,0
2114,-0.10431539567263687,0
2115,-0.06317746987770012,0
2116,0.06907248458921912,0
2117,-0.04968690442238168,0
2118,-0.030068187621309743,0
2119,-0.06089699111637188,0
2120,0.3722471852796466,0
2121,3.893308737090223,0
2122,6.667354795704402,0
2123,-0.8273259775774646,0
2124,-1.477875700706952,0
2125,1.4868809581382827,0
2126,-0.7635449693136603,0
2127,0.16344303990561806,0
2128,-0.0010316640594523643,0
2129,-0.08491552421813793,0
2130,0.05554993248739751,0
2131,-0.07280910870190319,0
2132,-0.05100879941074423,0
2133,0.012586065216566975,0
2134,-0.04818371994646118,0
2135,0.0605972989889906,0
2136,0.04055350642147236,0
2137,-0.023397105241897455,0
2138,-0.08834775785171767,0
2139,-0.04010456255774782,0
2140,0.42604918838714584,0
2141,3.9503674448227697,0
2142,6.704760957349521,0
2143,-0.9377389628647721,0
2144,-1.6214344960802816,0
2145,1.4462573559261949,0
2146,-0.8452639149782913,0
2147,0.06379111752441535,0
2148,0.04732009579872754,0
2149,-0.07169997717570982,0
2150,-0.02062738160899882,0
2151,-0.018913252608994693,0
2152,-0.023978545715402373,0
2153,-0.05705545925894084,0
2154,0.04938355459984273,0
2155,-0.1063233218018487,0
2156,0.02157060227930774,0
2157,-0.08079045654062596,0
2158,0.11689653819282804,0
2159,0.025689405943150088,0
2160,0.3437364649453933,0
2161,3.92109163076761,0
2162,6.708393784188423,0
2163,-0.7030355515316429,0
2164,-1.6096680131250074,0
2165,1.4758292975357397,0
2166,-0.7746432575755008,0
2167,0.2838811073050715,0
2168,-0.05235620011370051,0
2169,-0.06334612788566629,0
2170,0.045140675630737925,0
2171,0.03563584832308383,0
2172,-0.015615036122884741,0
2173,-0.06287233660898499,0
2174,0.13598862829779795,0
2175,0.06835091766959868,0
2176,0.16931633484673336,0
2177,-0.05021002339693351,0
2178,0.054613524309944796,0
2179,-0.05356375237294626,0
2180,0.45440414402611035,0
2181,3.8663870372390305,0
2182,6.7392644046894805,0
2183,-0.8667977351773999,0
2184,-1.6009672644338395,0
2185,1.4078808559770364,0
2186,-0.7566316592376389,0
2187,0.23364425509742914,0
2188,0.047209541163785805,0
2189,-0.049970883288380695,0
2190,0.0004329632661485873,0
2191,0.002363396011712489,0
2192,-0.08184363250613678,0
2193,0.045727951434517626,0
2194,0.021847770848897802,0
2195,0.009518087144256391,0
2196,0.13308034543031047,0
2197,0.06409671845181344,0
2198,-0.025047309825044994,0
2199,0.115511804123481,0
2200,0.45286338517583025,0
2201,3.9446636507551767,0
2202,6.758590526984059,0
2203,-0.7029821846895485,0
2204,-1.5409098996497674,0
2205,1.5181751015355887,0
2206,-0.7470099687614643,0
2207,0.22959593036909545,0
2208,0.06127905846537271,0
2209,0.010881593674926164,0
2210,0.13088475447016967,0
2211,-0.01727564709841821,0
2212,0.0028670354288239837,0
2213,0.019219886188203188,0
2214,0.12131315592446396,0
2215,0.06653135051341325,0
2216,0.062120372250613,0
2217,0.06507623429861606,0
2218,0.17037234958170594,0
2219,0.08713656026522716,0
2220,0.5302385206201499,0
2221,4.021614299846145,0
2222,6.786968459348017,0
2223,-0.7575638577965934,0
2224,-1.509567558103308,0
2225,1.5607554191077677,0
2226,-0.7120175844930705,0
2227,0.25398509700033295,0
2228,-0.030025436311119886,0
2229,0.012754058489619618,0
2230,-0.10985465107688736,0
2231,0.04976308770989464,0
2232,-0.04306839817085135,0
2233,-0.034302606624370846,0
2234,-0.011482142341396842,0
2235,0.07067672363342575,0
2236,0.08511901800250928,0
2237,0.07609438629121819,0
2238,-0.11236393369775044,0
2239,0.0616567322194931,0
2240,0.48872639395645207,0
2241,3.9255494661841484,0
2242,6.706517220350273,0
2243,-0.7661090529739236,0
2244,-1.5234563025169314,0
2245,1.616290411019925,0
2246,-0.7763025696354998,0
2247,0.2730345169668013,0
2248,0.1853796540040727,0
2249,0.03914975844965873,0
2250,0.08625157309747311,0
2251,0.0696118881753375,0
2252,0.007002167289419568,0
2253,-0.014370144270209669,0
2254,0.05941560668742295,0
2255,0.1198238572340366,0
2256,0.05864332086280741,0
2257,0.0025137075196269704,0
2258,-0.06574724529945795,0
2259,0.06664696063215814,0
2260,0.3448727565611971,0
2261,3.834865608518009,0
2262,6.8161767087968075,0
2263,-0.870567774448531,0
2264,-1.5777337666416291,0
2265,1.5743773420936633,0
2266,-0.6215639287383665,0
2267,0.28892850713494267,0
2268,-0.006711476993817078,0
2269,-0.016877476112442686,0
2270,0.04112792129095976,0
2271,0.05341647816242353,0
2272,0.042735255733212595,0
2273,0.02322037725328282,0
2274,0.05926338398648017,0
2275,0.09437861044745041,0
2276,0.04831561726477362,0
2277,0.05892450277606427,0
2278,0.007104803328710073,0
2279,0.1548538810273941,0
2280,0.36980432163310106,0
2281,3.9768118600171385,0
2282,6.714868048705199,0
2283,-0.8616712414869416,0
2284,-1.5535652904453452,0
2285,1.47136653768286,0
2286,-0.7135011800815185,0
2287,0.23718814040215533,0
2288,0.07280092806195879,0
2289,-0.026051442396187098,0
2290,0.08783371476203403,0
2291,0.036765590683716515,0
2292,0.06859302840412129,0
2293,0.10195088568096422,0
2294,0.013370164031579874,0
2295,0.05793269156771241,0
2296,0.11457739043511411,0
2297,0.051915049560950305,0
2298,0.026220205587180388,0
2299,0.0633733457681404,0
2300,0.39495872320267333,0
2301,3.9388573093545585,0
2302,6.785087819041607,0
2303,-0.806683311269192,0
2304,-1.5681255978858981,0
2305,1.4265111018253438,0
2306,-0.7740734603469244,0
2307,0.2836872327388744,0
2308,0.07652025680745356,0
2309,0.07461073674301201,0
2310,0.047280446083600894,0
2311,0.13949584798463216,0
2312,0.13997123353448948,0
2313,0.0897592110463865,0
2314,0.06877610152276228,0
2315,0.035468515090238364,0
2316,0.06576177051018145,0
2317,-0.03730536042210985,0
2318,0.05951564532962128,0
2319,0.02234899735473067,0
2320,0.40013836371993716,0
2321,4.025805652675672,0
2322,6.716392256372136,0
2323,-0.7847411607351004,0
2324,-1.4719260075262106,0
2325,1.5690079407891804,0
2326,-0.7607858140875412,0
2327,0.19941306405388662,0
2328,0.02427797953908405,0
2329,0.05747424115304735,0
2330,0.1091195163341666,0
2331,0.0755524037062996,0
2332,0.07372121924822561,0
2333,-0.03752883398083312,0
2334,-0.0226455775797616,0
2335,-0.04476769609541873,0
2336,-0.11465703884219168,0
2337,-0.11113026047095279,0
2338,-0.003908128855762021,0
2339,-0.04167991050275042,0
2340,0.31844622875933376,0
2341,3.819427980348613,0
2342,6.5912610682283574,0
2343,-0.9270324869453371,0
2344,-1.6031928861321867,0
2345,1.3341972786744911,0
2346,-0.8691029624279433,0
2347,0.16779541831950814,0
2348,-0.07771252237402887,0
2349,-0.12931396760876784,0
2350,0.026845979600838735,0
2351,-0.07470031694488392,0
2352,0.03483435123443599,0
2353,0.012058986042553559,0
2354,0.0759920383760979,0
2355,0.016471380826423014,0
2356,-0.048564912745574305,0
2357,-0.017060912361363135,0
2358,0.02155192861890976,0
2359,0.00904043350527103,0
2360,0.3905890466101759,0
2361,3.934735582518329,0
2362,6.673543459932982,0
2363,-0.9872434048760103,0
2364,-1.6011469884664904,0
2365,1.4411837163608028,0
2366,-0.7188215332904033,0
2367,0.1926075888387415,0
2368,-0.015797221673092315,0
2369,-0.06671364697726667,0
2370,0.07630817680730097,0
2371,0.032743471021714834,0
2372,-0.10659788084345721,0
2373,0.025349135923043085,0
2374,-0.10005375751515833,0
2375,0.047384371738872624,0
2376,0.012126959535567538,0
2377,-0.04197265589447301,0
2378,-0.044666415151905794,0
2379,0.05104791281830838,0
2380,0.36897840270315113,0
2381,4.006646404192338,0
2382,6.692444942418132,0
2383,-0.8383972729657745,0
2384,-1.5893074314382731,0
2385,1.468107309656213,0
2386,-0.7409709745233481,0
2387,0.1637581524390134,0
2388,0.05574095244267318,0
2389,-0.17039234030206282,0
2390,0.08021735459339173,0
2391,0.025053519527003673,0
2392,-0.06251056909548812,0
2393,0.07842162496760892,0
2394,0.0010766867051939062,0
2395,0.041077406661002444,0
2396,0.007567895552752828,0
2397,-0.04595765555960032,0
2398,-0.05124321869699265,0
2399,-0.05110053116093579,0
2400,0.34464572552650474,0
2401,3.9354013802009296,0
2402,6.667203329611215,0
2403,-1.0174549012361946,0
2404,-1.621451523329878,0
2405,1.3911747400082604,0
2406,-0.8291119225103951,0
2407,0.18547978574489293,0
2408,-0.012347324632849167,0
2409,-0.10916498520867486,0
2410,0.04270967587600649,0
2411,0.051051115706177236,0
2412,0.02251500784339701,0
2413,-0.02601335106767369,0
2414,-0.019436301896082173,0
2415,0.0011601214294179691,0
2416,-0.041878042935267416,0
2417,-0.06591403679078815,0
2418,0.16619404374939123,0
2419,0.13608227085237873,0
2420,0.36885421106304667,0
2421,3.8851924421031687,0
2422,6.7119558131471715,0
2423,-0.9809714086366766,0
2424,-1.6174888058238275,0
2425,1.3303639338724045,0
2426,-0.8450378395805684,0
2427,0.14544849232643015,0
2428,-0.03900671178771219,0
2429,-0.140333565670301,0
2430,0.12486311776860888,0
2431,-0.0374383877077505,0
2432,-0.01745658430808961,0
2433,-0.014690750565263092,0
2434,-0.0055381566245352315,0
2435,0.08872319966953467,0
2436,0.03207397339983741,0
2437,0.06489090205379817,0
2438,0.0580375106768726,0
2439,0.002758685575260645,0
2440,0.3831834853903469,0
2441,3.986429608130675,0
2442,6.797788892149334,0
2443,-0.8860760882091928,0
2444,-1.5549552936258335,0
2445,1.5399436836705263,0
2446,-0.8602878536743067,0
2447,0.21897989133140153,0
2448,0.06759892165966691,0
2449,-0.08807200892053792,0
2450,0.026282336074757617,0
2451,-0.02309065787188379,0
2452,-0.016110687732234466,0
2453,-0.02342071975443723,0
2454,-0.10124493615818332,0
2455,0.0008896306722114937,0
2456,-0.03990569547847115,0
2457,-0.08825541526604408,0
2458,0.028497362007726797,0
2459,0.013475330615322918,0
2460,0.25721123502575943,0
2461,3.9318257872072864,0
2462,6.620598302419502,0
2463,-0.9352737885568518,0
2464,-1.5756653395332587,0
2465,1.4368640488490856,0
2466,-0.7321568323913624,0
2467,0.20795828378285003,0
2468,0.06165228952692488,0
2469,-0.07244573433997233,0
2470,0.038127983226816375,0
2471,-0.0908438481706959,0
2472,0.021948361442150253,0
2473,0.011946276060051386,0
2474,0.03616552631595181,0
2475,0.028853673468814976,0
2476,0.06286928974435252,0
2477,0.02548596131116009,0
2478,0.023073158293254875,0
2479,-0.007494282430639872,0
2480,0.34745141608800467,0
2481,3.91905922455292,0
2482,6.727658619624647,0
2483,-1.0055672321747033,0
2484,-1.5897385313408323,0
2485,1.447107246655259,0
2486,-0.7111919761291687,0
2487,0.28949015309273834,0
2488,0.06826211492547746,0
2489,-0.05108649259964818,0
2490,0.11186304833621252,0
2491,0.11664382743849608,0
2492,0.03128140950240339,0
2493,0.07182301572516522,0
2494,0.08507489867264509,0
2495,0.014221707580854365,0
2496,0.011465468691563799,0
2497,0.0005215659258042127,0
2498,0.14204456683694316,0
2499,-0.037364857316651484,0
2500,0.41916219199969096,0
2501,3.96332351417076,0
2502,6.7274704331316935,0
2503,-0.8695426175589783,0
2504,-1.4278911527907805,0
2505,1.518912248637883,0
2506,-0.702952099408765,0
2507,0.19970131562213247,0
2508,-0.04354785482716365,0
2509,-0.031086767711069455,0
2510,-0.0011035079443772466,0
2511,-0.04673881876692173,0
2512,0.03329084261506921,0
2513,0.02900106400986115,0
2514,0.08329762649684325,0
2515,0.12417705053551112,0
2516,0.013122521067924737,0
2517,0.1749857378016646,0
2518,0.1003675423362658,0
2519,0.05645163714550415,0
2520,0.3810571557783409,0
2521,4.015652467144264,0
2522,6.710858308319053,0
2523,-0.9384013041176176,0
2524,-1.5643403316782796,0
2525,1.4494599602225418,0
2526,-0.7253529341515538,0
2527,0.33322103157335864,0
2528,-0.02825522301770511,0
2529,-0.05831841532737751,0
2530,0.024840245228737033,0
2531,-0.002669317877128728,0
2532,-0.016957265876064304,0
2533,0.091972482302966,0
2534,0.06681739939785719,0
2535,0.0054085876443963135,0
2536,-0.09523655907260647,0
2537,-0.0477549568485901,0
2538,0.024086861261205024,0
2539,-0.0015482926614394767,0
2540,0.4112617398328338,0
2541,3.944724880434076,0
2542,6.680704729189777,0
2543,-0.9676514294303238,0
2544,-1.524094577694522,0
2545,1.4668166236352984,0
2546,-0.7306743524185653,0
2547,0.24744035086117722,0
2548,0.010297333335989693,0
2549,-0.03127506004858186,0
2550,0.002788778193545005,0
2551,0.15216836495911737,0
2552,0.09151319986089818,0
2553,0.0193686159400039,0
2554,0.13478168557158746,0
2555,-0.06854912200423621,0
2556,0.14796002029739425,0
2557,0.020684490816623095,0
2558,0.12947254306526268,0
2559,0.0589125662706087,0
2560,0.4326665993931874,0
2561,4.042362301547719,0
2562,6.771000850388571,0
2563,-0.8235806259815404,0
2564,-1.4665025172462964,0
2565,1.4624671039355228,0
2566,-0.6859071605220711,0
2567,0.29024534253749956,0
2568,0.06023673195038054,0
2569,-0.00590569957082672,0
2570,0.08766928146928823,0
2571,0.06380500664375341,0
2572,0.07341576962827585,0
2573,0.10653932692392082,0
2574,0.07531372859134118,0
2575,0.09796658003645095,0
2576,0.052552962070437026,0
2577,0.03791505246102053,0
2578,0.10549966198518551,0
2579,-0.002419429880899285,0
2580,0.38218241452413604,0
2581,4.050133547849075,0
2582,6.7262757299906735,0
2583,-0.9426844552509029,0
2584,-1.527557216514458,0
2585,1.4882020489760355,0
2586,-0.7342137508824997,0
2587,0.27900319058749296,0
2588,-0.035073675633506565,0
2589,-0.0804988559782093,0
2590,0.0017718250034305452,0
2591,0.010316541770148333,0
2592,0.043883087889605286,0
2593,0.05472868281166733,0
2594,-0.062178671214691825,0
2595,0.07150627371242584,0
2596,-0.05694146877814163,0
2597,0.06818638267762182,0
2598,0.13297858213267497,0
2599,-0.010113513463450505,0
2600,0.3782012234802634,0
2601,4.091135939809489,0
2602,6.702587329394239,0
2603,-0.8876077751631574,0
2604,-1.4495173284095673,0
2605,1.5532249503176654,0
2606,-0.7304588188793231,0
2607,0.2557216435103848,0
2608,0.1736528154981933,0
2609,0.03322136181457761,0
2610,-0.041762045739062864,0
2611,0.08320210617109841,0
2612,0.005372763800521291,0
2613,0.11104219959107905,0
2614,0.1643441517970406,0
2615,0.10739210909792139,0
2616,0.16677705434741968,0
2617,-0.0028364806839176054,0
2618,0.05574236261888124,0
2619,0.030215457839441618,0
2620,0.4863574083409126,0
2621,4.046555212487015,0
2622,6.8726001730399515,0
2623,-0.9052004061561575,0
2624,-1.4410830611926593,0
2625,1.5329946392534883,0
2626,-0.7258607011208292,0
2627,0.3404852228447533,0
2628,0.0960471188223612,0
2629,-0.009429088958224807,0
2630,0.18032273733126075,0
2631,0.0939992672906069,0
2632,0.015694938011352487,0
2633,0.07995104554051886,0
2634,0.09136611741611451,0
2635,0.1184883075524685,0
2636,0.05825742064589226,0
2637,0.10257148474573187,0
2638,0.007893798130969201,0
2639,-0.01191534996879652,0
2640,0.3459684405099302,0
2641,3.9718509558937707,0
2642,6.769525641012678,0
2643,-0.8997496614386726,0
2644,-1.3988952720322179,0
2645,1.3974872105248823,0
2646,-0.6249049308137975,0
2647,0.21967541920052314,0
2648,0.00043874055771460363,0
2649,-0.015319891625681571,0
2650,-0.022355329872165278,0
2651,0.05414654533379777,0
2652,0.038657706311687044,0
2653,0.0725472447783056,0
2654,0.07867778111750656,0
2655,0.07430318647767728,0
2656,0.03703583123159751,0
2657,-0.008212324030028022,0
2658,0.03641905577362907,0
2659,-0.041472478405683647,0
2660,0.4693697293976079,0
2661,4.086852157813823,0
2662,6.776363095961552,0
2663,-0.8420801120597257,0
2664,-1.4341314369163733,0
2665,1.4975558738723724,0
2666,-0.6817803645329,0
2667,0.2964960537619279,0
2668,0.20795302077828587,0
2669,0.009216720668952828,0
2670,0.0877769241199782,0
2671,-0.025409419632332626,0
2672,0.020381606498216173,0
2673,0.04009972485854144,0
2674,-0.02343754391075209,0
2675,0.04111074370303613,0
2676,0.02415434935707181,0
2677,-0.010635316115899296,0
2678,-0.011943820876750437,0
2679,0.03819762928684693,0
2680,0.45476256666967524,0
2681,3.942253693142213,0
2682,6.678060170435644,0
2683,-0.9893555109757606,0
2684,-1.545042827421162,0
2685,1.6072281186289872,0
2686,-0.7417997680456037,0
2687,0.20876972542954456,0
2688,-0.04007298777826852,0
2689,-0.004040796251770097,0
2690,0.1602357982654582,0
2691,0.009285425201752392,0
2692,0.10985983923890366,0
2693,0.10511218937371604,0
2694,0.0017175835938977799,0
2695,0.05961420489027541,0
2696,0.04329257825687987,0
2697,-1.7684772286467865e-05,0
2698,0.055244154323994384,0
2699,0.04655237428014265,0
2700,0.43349954996838025,0
2701,4.064777372894835,0
2702,6.652887391003528,0
2703,-1.0204011581723187,0
2704,-1.5016759428374373,0
2705,1.4788616084512651,0
2706,-0.6596165707434838,0
2707,0.3172560393639492,0
2708,0.05214506128603663,0
2709,-0.015784346506869593,0
2710,0.03083634589961813,0
2711,0.021335935039361865,0
2712,0.030015634582290167,0
2713,-0.001975381698015033,0
2714,0.06258598466703288,0
2715,0.0263202261560437,0
2716,0.05790840738326906,0
2717,0.06484450011326925,0
2718,0.0364950479998296,0
2719,-0.004775503576387345,0
2720,0.3832523011261577,0
2721,3.9606642271000205,0
2722,6.7500853524957485,0
2723,-1.0779315676625112,0
2724,-1.436687091213585,0
2725,1.3961071917180938,0
2726,-0.6795714094378795,0
2727,0.21203487200577356,0
2728,-0.009799941161351848,0
2729,-0.01293587301363774,0
2730,-0.00765276143605664,0
2731,-0.004319796327963709,0
2732,-0.021959369495046573,0
2733,0.009817904036574208,0
2734,0.028172854447991984,0
2735,-0.002102314337646868,0
2736,0.059997740441678486,0
2737,0.06299165096485547,0
2738,0.0520841449565517,0
2739,0.040481318634170566,0
2740,0.4263876978011877,0
2741,3.974166719118943,0
2742,6.705384583294696,0
2743,-1.033120204131175,0
2744,-1.4753606085822562,0
2745,1.429181741868111,0
2746,-0.8339707546577717,0
2747,0.21930388100206533,0
2748,0.07323491886601646,0
2749,0.053419496047797055,0
2750,0.01028836524371176,0
2751,0.04638439321491759,0
2752,-0.0506727229970949,0
2753,-0.010735429413981545,0
2754,-0.047087458195613316,0
2755,-0.0016850281217763545,0
2756,-0.0765684360209161,0
2757,-0.036998133320692995,0
2758,-0.043108128722831776,0
2759,-0.09111535973578372,0
2760,0.3005846705584498,0
2761,3.960483005371705,0
2762,6.694730901248994,0
2763,-1.0178960413299663,0
2764,-1.5103631991596131,0
2765,1.33464107228519,0
2766,-0.80588168136053,0
2767,0.21882511622850204,0
2768,-0.07647793409590226,0
2769,-0.056753571615915745,0
2770,0.005579499399140661,0
2771,0.04309208154926094,0
2772,-0.06463318438810543,0
2773,-0.01743698098655034,0
2774,-0.002729092743860474,0
2775,0.030742547196488144,0
2776,0.03867489562471537,0
2777,-0.047602821300694806,0
2778,-0.01286208942546366,0
2779,-0.017020558513340972,0
2780,0.37007152727573567,0
2781,4.029508087247396,0
2782,6.549699606907943,0
2783,-1.0001908491241658,0
2784,-1.5191207592391935,0
2785,1.362307377618576,0
2786,-0.7644363622350954,0
2787,0.14919786865371865,0
2788,-0.06073047136200323,0
2789,-0.14341728700299777,0
2790,-0.0631891050642548,0
2791,-0.08541007106985177,0
2792,-0.17263754230500927,0
2793,-0.12390162919276367,0
2794,-0.06602410648677785,0
2795,-0.11558226782047612,0
2796,-0.11936774099053551,0
2797,-0.14258599760738172,0
2798,-0.0010990268047370716,0
2799,-0.07148032489083977,0
2800,0.3516233806302036,0
2801,3.9645238685989064,0
2802,6.595362132634132,0
2803,-1.0300805130808464,0
2804,-1.525632909024531,0
2805,1.3586732113566793,0
2806,-0.7937649245732429,0
2807,0.15797824743198868,0
2808,-0.06092143949498473,0
2809,-0.11874161212210975,0
2810,-0.1267172452597033,0
2811,-0.11660255011128771,0
2812,-0.0890675565378832,0
2813,-0.04570597049229541,0
2814,-0.11866758527695695,0
2815,-0.08565748541812368,0
2816,-0.07585563790588523,0
2817,-0.05391420751677254,0
2818,-0.11160263873438361,0
2819,0.01657453196085021,0
2820,0.2308976699054605,0
2821,3.9640177318877075,0
2822,6.489094863724996,0
2823,-1.0174518649623812,0
2824,-1.5322983211984975,0
2825,1.3828835934548265,0
2826,-0.7651985466161267,0
2827,0.0865605306569657,0
2828,0.015526439421091234,0
2829,-0.12705817030056182,0
2830,0.010566588429035094,0
2831,-0.09575582499114368,0
2832,-0.08212999605714691,0
2833,-0.04652824543261163,0
2834,-0.0140902438022074,0
2835,-0.03258387301086724,0
2836,-0.07145596052678423,0
2837,0.05567560166875118,0
2838,-0.020236732273059804,0
2839,-0.03566061229211229,0
2840,0.46830542090003013,0
2841,3.9967093404985667,0
2842,6.664222234148066,0
2843,-0.9610845791110805,0
2844,-1.4046868240743726,0
2845,1.4124048509778226,0
2846,-0.7646393274777492,0
2847,0.18882965263263896,0
2848,0.011847945305492397,0
2849,-0.019765528693653896,0
2850,-0.09992531687514719,0
2851,0.07792804179237009,0
2852,0.05134873918383303,0
2853,0.009355265944642407,0
2854,-0.03372778871776341,0
2855,-0.06932245015149568,0
2856,-0.02164282217803906,0
2857,-0.043836199152791716,0
2858,-0.04338955816461734,0
2859,-0.1316073086350532,0
2860,0.2682793757866843,0
2861,3.898714120630478,0
2862,6.657174652020632,0
2863,-0.994233592305866,0
2864,-1.5625311952368184,0
2865,1.2921737891182346,0
2866,-0.7966116376436151,0
2867,0.24971564574569624,0
2868,-0.0012060149024174446,0
2869,-0.045372301080284255,0
2870,0.07605815720702372,0
2871,-0.027313437131020784,0
2872,-0.06925206889704692,0
2873,-0.03284723810135644,0
2874,-7.496508273302158e-05,0
2875,-0.045886721751449075,0
2876,-0.07791508525626017,0
2877,0.05210899125391513,0
2878,0.015043556183867997,0
2879,-0.0777672013401467,0
2880,0.3354176905790531,0
2881,4.001870163935824,0
2882,6.5845354997145265,0
2883,-1.0374228196360442,0
2884,-1.5193711420649203,0
2885,1.3222429176464843,0
2886,-0.7750309327790652,0
2887,0.15392291743389694,0
2888,-0.03582315994351315,0
2889,-0.03477583639604623,0
2890,0.022748215207911506,0
2891,-0.037308144040108154,0
2892,-0.05114707566021146,0
2893,-0.07835785627180658,0
2894,-0.09405486694105335,0
2895,0.02042951837328623,0
2896,-0.03186143564153489,0
2897,-0.01893156285545355,0
2898,-0.09057530073524699,0
2899,-0.04494607694955603,0
2900,0.4204170768747219,0
2901,3.9650751938140845,0
2902,6.603678053596759,0
2903,-1.0489833404192552,0
2904,-1.6044181878714359,0
2905,1.412414139332255,0
2906,-0.7482085591019497,0
2907,0.2173297816779254,0
2908,-0.10129509074374199,0
2909,-0.06765481447937305,0
2910,-0.04185982531304333,0
2911,-0.013440886780232253,0
2912,-0.12593221855864437,0
2913,0.007451937460397524,0
2914,-0.024128430844269372,0
2915,-0.01642436192670857,0
2916,-0.031278531522204,0
2917,-0.0719656341845162,0
2918,-0.01118733726948895,0
2919,-0.018165204865092172,0
2920,0.38480252854062336,0
2921,4.109294880624205,0
2922,6.629842025559869,0
2923,-1.0487776099154669,0
2924,-1.4360348886327814,0
2925,1.4352357319794673,0
2926,-0.7032874387053417,0
2927,0.21176185022252259,0
2928,-0.03083391244090084,0
2929,0.11532526603333725,0
2930,0.012625761458482895,0
2931,0.006214495036917702,0
2932,-0.06468451923377162,0
2933,-0.08378838515086913,0
2934,-0.02890493499404511,0
2935,-0.020631860510083533,0
2936,0.005287741725426141,0
2937,0.11823684045489805,0
2938,-0.08309790385027079,0
2939,-0.005876974785794914,0
2940,0.42618893970723076,0
2941,3.989937340577937,0
2942,6.6137764353937705,0
2943,-0.9836728713291827,0
2944,-1.4666253395816924,0
2945,1.408928970439373,0
2946,-0.7568491615354559,0
2947,0.291685018195108,0
2948,0.010718587298443476,0
2949,-0.015935732657553964,0
2950,0.038899942905988284,0
2951,0.0005772350544521795,0
2952,0.05741227822263152,0
2953,0.016488293946760074,0
2954,0.0052411209804022404,0
2955,-0.022424824945329064,0
2956,-0.009561731792959932,0
2957,0.018577824921905663,0
2958,0.03535609646093105,0
2959,-0.014279849757867,0
2960,0.35398651943028014,0
2961,4.072110607668797,0
2962,6.678797861409756,0
2963,-1.0657675141973633,0
2964,-1.4401136787911266,0
2965,1.512137446411723,0
2966,-0.8483098885644662,0
2967,0.27511193192070177,0
2968,-0.03149529420578981,0
2969,0.09206611765672165,0
2970,0.14998674430381925,0
2971,0.030815318241757064,0
2972,-0.02005270766280847,0
2973,0.03592081944621755,0
2974,0.045798107470089236,0
2975,0.08241612809247392,0
2976,-0.02310739962057394,0
2977,0.05880045238361335,0
2978,-0.017611681224817027,0
2979,-0.04319994903431612,0
2980,0.3990151829586285,0
2981,4.055099892532804,0
2982,6.640062505707166,0
2983,-1.0463098657046082,0
2984,-1.366234453936867,0
2985,1.3981365360617817,0
2986,-0.788592291847109,0
2987,0.23412190275375988,0
2988,0.052621820691885576,0
2989,-0.11535296390047745,0
2990,0.012054438518613556,0
2991,0.018072867024597226,0
2992,-0.04630725021999843,0
2993,-0.004528113333527244,0
2994,0.024843697437555625,0
2995,0.00583778797938053,0
2996,-0.01965005576184646,0
2997,0.03512043542355252,0
2998,0.001157877379269829,0
2999,-0.05479379238156244,0
3000,0.36773720707307694,0
3001,4.0794163691485945,0
3002,6.549098426261749,0
3003,-1.1266407840992747,0
3004,-1.4462345104189849,0
3005,1.4227701173435106,0
3006,-0.7655056063976098,0
3007,0.0619302682126443,0
3008,-0.026523420536421132,0
3009,-0.028702256659516055,0
3010,0.028775609681348867,0
3011,-0.014228322309401662,0
3012,0.0069645530741721745,0
3013,-0.018187722009970386,0
3014,0.027229507801794027,0
3015,0.00997718955320985,0
3016,-0.0925876366002896,0
3017,-0.09234982220809487,0
3018,0.005056104975921278,0
3019,-0.09119521729449183,0
3020,0.4064454386353059,0
3021,4.00225010918963,0
3022,6.63964180480631,0
3023,-1.0866370920859538,0
3024,-1.5370261739615674,0
3025,1.3524825754877985,0
3026,-0.8464453221721843,0
3027,0.15439029129540793,0
3028,-0.12121719542596024,0
3029,-0.09424651220012426,0
3030,-0.05826532870968311,0
3031,-0.05547019937534488,0
3032,-0.012376195414265732,0
3033,-0.054956497458182894,0
3034,-0.11617886336979587,0
3035,-0.07734410761137407,0
3036,-0.1122334522289474,0
3037,-0.020303941544350175,0
3038,-0.07305265807862174,0
3039,-0.11104386715209413,0
3040,0.36988134660340183,0
3041,4.1302366771214905,0
3042,6.57175679300662,0
3043,-1.1148140189769937,0
3044,-1.4474860294106726,0
3045,1.4588388073938263,0
3046,-0.8229583064735181,0
3047,0.21001448270570486,0
3048,-0.047523754034524995,0
3049,-0.13443010079979287,0
3050,-0.10137100241346408,0
3051,-0.020841147324192993,0
3052,-0.05769214533442982,0
3053,0.0028574545374933508,0
3054,-0.06271670093912998,0
3055,-0.020687274953683957,0
3056,-0.017332619042122403,0
3057,-0.04026834407294334,0
3058,-0.03391017512378394,0
3059,0.007821119918086684,0
3060,0.40527741582434496,0
3061,3.9970031696201342,0
3062,6.610611250134213,0
3063,-1.147415730326174,0
3064,-1.5097636608603797,0
3065,1.339654384927784,0
3066,-0.7024512471291854,0
3067,0.25806394179442443,0
3068,-0.02466452140611789,0
3069,-0.17074308859207518,0
3070,-0.02224402173398502,0
3071,0.000687635339143601,0
3072,-0.07543768509259308,0
3073,-0.025134064477588938,0
3074,-0.014481883089914344,0
3075,-0.09905906916049861,0
3076,-0.04789423932374076,0
3077,0.045851566495333354,0
3078,-0.008495241386316308,0
3079,0.02801139995179864,0
3080,0.382173554430071,0
3081,4.140542313442825,0
3082,6.556230983066733,0
3083,-1.0206930748106395,0
3084,-1.4749157845850693,0
3085,1.4173284685029768,0
3086,-0.7835341558970604,0
3087,0.18191592641324345,0
3088,-0.034280452192504855,0
3089,-0.03971441145778712,0
3090,0.05115790902216996,0
3091,0.027258021847946286,0
3092,-0.035303542555894595,0
3093,0.029284049594317352,0
3094,0.019593103502713493,0
3095,0.011645986817382516,0
3096,-0.017051729865759556,0
3097,-0.04731458488136692,0
3098,-0.05766109103244564,0
3099,-0.004467493904883364,0
3100,0.32366731755220346,0
3101,4.0690701012792205,0
3102,6.615069941850338,0
3103,-1.0379653029531573,0
3104,-1.5260926545708906,0
3105,1.4898999525778256,0
3106,-0.8611139439702165,0
3107,0.16426972821991614,0
3108,-0.14284437945124184,0
3109,-0.08796095191660504,0
3110,-0.0370891495444955,0
3111,-0.02072528368982411,0
3112,0.006149607758231288,0
3113,0.008207023803274205,0
3114,-0.0477381378800071,0
3115,-0.06343948080233573,0
3116,-0.08952798308752408,0
3117,-0.0917071287656595,0
3118,-0.03524320552010048,0
3119,-0.10311985472577935,0
3120,0.3585474429881808,0
3121,4.062218217013701,0
3122,6.479955078518225,0
3123,-1.1571316127986484,0
3124,-1.605814662916036,0
3125,1.3069736771344682,0
3126,-0.8915766629369417,0
3127,0.22856698136164016,0
3128,-0.047316675011205914,0
3129,-0.012926389722099876,0
3130,0.023989082268226776,0
3131,0.019621501650301656,0
3132,-0.09072750391698979,0
3133,0.004354284337665777,0
3134,0.04543551046962735,0
3135,-0.005881585123145992,0
3136,-0.06739701734800177,0
3137,-0.0026753782513598105,0
3138,-0.09312991926211342,0
3139,-0.025441150864133115,0
3140,0.312423740602773,0
3141,4.057503854058951,0
3142,6.522800401216707,0
3143,-1.0693863169088824,0
3144,-1.489534532045529,0
3145,1.329655572125733,0
3146,-0.8042697803816726,0
3147,0.22218639684023794,0
3148,-0.033502219569258855,0
3149,-0.016060141953145625,0
3150,0.00811061170652803,0
3151,0.011505497863232267,0
3152,-0.04513968484067916,0
3153,-0.07965353064104079,0
3154,0.025882414893021177,0
3155,-0.04343829600796442,0
3156,-0.04844733338874739,0
3157,-0.1660339954499156,0
3158,0.08431819835369941,0
3159,-0.024160996383243524,0
3160,0.33620384210719034,0
3161,4.047209719018566,0
3162,6.58853211651289,0
3163,-1.171182470344843,0
3164,-1.4674661656724333,0
3165,1.4837120815732716,0
3166,-0.7826296040251204,0
3167,0.1544822114145592,0
3168,-0.09929113435363751,0
3169,-0.14654947491094503,0
3170,-0.02775459785969199,0
3171,-0.07415443527457313,0
3172,-0.06874079739463651,0
3173,-0.12300364051160316,0
3174,-0.023836381365581603,0
3175,-0.11474546483665238,0
3176,-0.0550736192191356,0
3177,-0.03424342695100265,0
3178,-0.03345721106720327,0
3179,-0.08116510816094857,0
3180,0.32940195280715623,0
3181,4.008693846272479,0
3182,6.582449175241048,0
3183,-1.1845990767322023,0
3184,-1.5100880735982343,0
3185,1.3600604257055993,0
3186,-0.797970929020355,0
3187,0.19158051991372851,0
3188,-0.026927332024648882,0
3189,-0.012541240283090088,0
3190,0.00966699604240376,0
3191,-0.045464126541723826,0
3192,-0.09597674389595642,0
3193,-0.11059489423378295,0
3194,-0.017762936721728302,0
3195,-0.061673209666362985,0
3196,-0.07404030932450573,0
3197,-0.04112675557848493,0
3198,0.017663103933469565,0
3199,-0.10203115944580841,0
3200,0.2864098396983551,0
3201,4.020076982998033,0
3202,6.508124291377169,0
3203,-1.1917164562178264,0
3204,-1.5858777533818842,0
3205,1.3060692732356327,0
3206,-0.8554894977317621,0
3207,0.10974171824477447,0
3208,-0.016643454607656982,0
3209,-0.050176615211373815,0
3210,-0.06118683970108178,0
3211,-0.02771413366963078,0
3212,-0.061486044722677935,0
3213,-0.10252673340577725,0
3214,-0.08593833266130708,0
3215,0.044711704490455084,0
3216,-0.03583197830523315,0
3217,0.03297894141779329,0
3218,-0.03620287274854738,0
3219,-0.08394146557617625,0
3220,0.380486272126777,0
3221,4.057667274679404,0
3222,6.495126729778616,0
3223,-1.1721181562285323,0
3224,-1.4007180517815285,0
3225,1.3305366696180165,0
3226,-0.7993253138521121,0
3227,0.15045263275672527,0
3228,-0.02307077214894826,0
3229,-0.06321155559548192,0
3230,-0.05095735625661457,0
3231,0.06253723916487416,0
3232,0.003150714329105628,0
3233,-0.041708646518740525,0
3234,-0.04320837978665224,0
3235,0.04956157086651319,0
3236,0.16346753562524208,0
3237,-0.05497417170873228,0
3238,-0.060671312338379725,0
3239,0.1422155943096072,0
3240,0.4102616881100449,0
3241,4.056358165855176,0
3242,6.551441342699592,0
3243,-1.1897862266269423,0
3244,-1.5285582879415218,0
3245,1.3767192564935096,0
3246,-0.8216760267688819,0
3247,0.0981937088137232,0
3248,-0.03892518169344907,0
3249,-0.09951877877702336,0
3250,0.08130067423148413,0
3251,-0.003870269201965114,0
3252,-0.08706233287172449,0
3253,-0.052957456186167075,0
3254,-0.0789099591578591,0
3255,-0.05207208011316125,0
3256,-0.07081772699713788,0
3257,0.013603756944994161,0
3258,-0.04218302627443155,0
3259,-0.055084458310985074,0
3260,0.43134354150304044,0
3261,3.9679536039566212,0
3262,6.567078901266318,0
3263,-1.038088196050138,0
3264,-1.5076136140171337,0
3265,1.3881918191120344,0
3266,-0.8310594497751196,0
3267,0.16977294944496224,0
3268,-0.033713796741956244,0
3269,-0.057094048857071,0
3270,-0.07397706954074498,0
3271,0.009633435627906368,0
3272,-0.09869793715416496,0
3273,-0.08638528047630559,0
3274,-0.16374018732560874,0
3275,-0.09485917443041986,0
3276,-0.06576115346024668,0
3277,-0.1422154937138959,0
3278,-0.04703315388874999,0
3279,-0.04273513715257148,0
3280,0.3769519086908278,0
3281,4.019697518831613,0
3282,6.602480751362198,0
3283,-1.1194181080926082,0
3284,-1.4480242377875343,0
3285,1.3656389560451492,0
3286,-0.8202224714713159,0
3287,0.3032365614435406,0
3288,0.04306765322407238,0
3289,-0.1172181500442373,0
3290,0.01195570939005643,0
3291,-0.05559406727656463,0
3292,-0.04980834274024245,0
3293,-0.01324872306236062,0
3294,-0.06516671618333729,0
3295,0.04513906326265392,0
3296,0.13096713351435532,0
3297,0.020563053822658724,0
3298,-0.0590474526289711,0
3299,-0.02192260393048279,0
3300,0.3282770021714779,0
3301,4.201637935839186,0
3302,6.646423934588119,0
3303,-1.1669872299956159,0
3304,-1.477991523049505,0
3305,1.3868984009173988,0
3306,-0.8216605802154077,0
3307,0.19381644670915085,0
3308,-0.07402898279181833,0
3309,-0.10887841849836345,0
3310,0.02116401087767702,0
3311,-0.10064218357798763,0
3312,-0.025697916252077926,0
3313,-0.1356806744552061,0
3314,-0.11414491180939451,0
3315,-0.11884762461254238,0
3316,-0.055954397994941035,0
3317,-0.039563998997901556,0
3318,-0.05538348501478497,0
3319,-0.02720883605602717,0
3320,0.331056770954808,0
3321,4.073698169148804,0
3322,6.499151133663352,0
3323,-1.2415426676900332,0
3324,-1.4336035411320422,0
3325,1.4056514928896717,0
3326,-0.741959537387017,0
3327,0.23613553062083023,0
3328,-0.02208980798106245,0
3329,-0.05413965026041241,0
3330,-0.009021291678976872,0
3331,0.06043410463479314,0
3332,0.045808120158952956,0
3333,0.12105653467183702,0
3334,-0.003049255759899533,0
3335,0.0348353867357492,0
3336,0.1178722753104287,0
3337,0.012581586340989607,0
3338,0.014492581391396028,0
3339,-0.09222980939586581,0
3340,0.4414092215321159,0
3341,4.128183738305287,0
3342,6.621214045263256,0
3343,-1.1786241737757504,0
3344,-1.3829427282259075,0
3345,1.4795958429013703,0
3346,-0.8149048775981289,0
3347,0.2239441178670594,0
3348,-0.006357267406781247,0
3349,-0.18460658413728345,0
3350,-0.05106008246455836,0
3351,-0.03301738719901749,0
3352,0.006252023589111311,0
3353,-0.01224652277757025,0
3354,-0.050568411368675556,0
3355,-0.08056387825017886,0
3356,-0.03466862400051497,0
3357,-0.02178704821284347,0
3358,-0.05084485593818286,0
3359,-0.020867645866733724,0
3360,0.32530416582736144,0
3361,3.9939794420780284,0
3362,6.573212825456905,0
3363,-1.2330693112670954,0
3364,-1.4757341556517651,0
3365,1.4276581213196713,0
3366,-0.8675833449489415,0
3367,0.08888398447870635,0
3368,-0.06097498883098043,0
3369,-0.11547648153949498,0
3370,0.10568260913292864,0
3371,-0.010627879723668805,0
3372,-0.04525807499689439,0
3373,-0.08415129383543285,0
3374,-0.010148556192937655,0
3375,0.019156059184438363,0
3376,-0.029542002039512287,0
3377,-0.018816621543422934,0
3378,-0.032393422809529025,0
3379,0.013103423592065417,0
3380,0.45822350281377167,0
3381,4.170520661757387,0
3382,6.56332514046901,0
3383,-1.1499896986907514,0
3384,-1.3502102165300225,0
3385,1.348152871433333,0
3386,-0.8154470533594879,0
3387,0.16716162736362755,0
3388,-0.021586747863298866,0
3389,-0.02093181465119691,0
3390,0.029945043358499956,0
3391,-0.011000664080812968,0
3392,-0.11485771016527611,0
3393,0.0051997939444991675,0
3394,-0.13164341276580607,0
3395,0.04965227776066015,0
3396,-0.05097636165229412,0
3397,-0.023053160806474956,0
3398,0.004944240412318147,0
3399,0.014571140652628718,0
3400,0.3106326859217785,0
3401,4.06166343164152,0
3402,6.598309714301178,0
3403,-1.1742569729749623,0
3404,-1.396110513617772,0
3405,1.4489411643846646,0
3406,-0.7757840065645377,0
3407,0.1627292615510197,0
3408,0.04056633922292464,0
3409,-0.06367782736017591,0
3410,0.05244006131118543,0
3411,-0.06404966382295119,0
3412,0.06921867759609975,0
3413,-0.0715168474923554,0
3414,-0.018232948525901252,0
3415,-0.03777289862892528,0
3416,-0.06681586683901775,0
3417,-0.03694825484640817,0
3418,-0.03512602199728356,0
3419,-0.0243581153383067,0
3420,0.2715559313727845,0
3421,4.177168776461508,0
3422,6.491378769348789,0
3423,-1.2023012954540402,0
3424,-1.518684856353896,0
3425,1.4924398637546374,0
3426,-0.7452179361740274,0
3427,0.27110149264509953,0
3428,-0.03118548910731963,0
3429,-0.07075710417930309,0
3430,-0.015691126374032523,0
3431,0.03218654778363148,0
3432,-0.06244062919010514,0
3433,0.0037895445585723574,0
3434,-0.020398136586817328,0
3435,0.012107000522959975,0
3436,-0.054147030662155655,0
3437,0.06810473990355145,0
3438,-0.010051604819573236,0
3439,0.010751877690048709,0
3440,0.4122233377900095,0
3441,4.218524120311242,0
3442,6.679542313355395,0
3443,-1.3139137560644856,0
3444,-1.430680540707917,0
3445,1.3912296153459756,0
3446,-0.7818828960851354,0
3447,0.2161151233695387,0
3448,0.019136378644835438,0
3449,-0.04026127896085101,0
3450,0.03115016693961728,0
3451,0.005090101679258855,0
3452,0.00809303719632062,0
3453,-0.006796467917022669,0
3454,-0.038537613751594986,0
3455,-0.019513197859311292,0
3456,-0.0395104500424067,0
3457,0.00716231265840862,0
3458,-0.06244458580988835,0
3459,-0.04316998855493012,0
3460,0.31621681014046976,0
3461,4.11269619572523,0
3462,6.537536600051565,0
3463,-1.1579711749903907,0
3464,-1.4170546061417153,0
3465,1.4098264439313466,0
3466,-0.7836951459834649,0
3467,0.26881165148473274,0
3468,0.06900822788105343,0
3469,-0.01698274526327788,0
3470,0.035446977174036574,0
3471,0.06412933142626932,0
3472,-0.055589774442603435,0
3473,-0.011321820447413596,0
3474,0.001170008269237596,0
3475,-0.02099179265063865,0
3476,-0.013860011322669489,0
3477,0.06696382890685436,0
3478,-0.06919227822535784,0
3479,-0.05705438336269966,0
3480,0.42861118162318906,0
3481,4.012603873516442,0
3482,6.548741322289776,0
3483,-1.243137967094024,0
3484,-1.3486319249171972,0
3485,1.4225217982152991,0
3486,-0.7454519888585645,0
3487,0.2367347683365864,0
3488,0.009600954399268512,0
3489,0.040253192088355684,0
3490,0.059726355431717566,0
3491,0.08306179471902048,0
3492,0.07153056782308229,0
3493,0.1440823417664608,0
3494,0.05608560299744031,0
3495,0.03357947657256668,0
3496,-0.023984893085587405,0
3497,0.020355060434009573,0
3498,0.07752328976074545,0
3499,-0.0167850763476146,0
3500,0.42387210178673895,0
3501,4.100091597377851,0
3502,6.546810267971464,0
3503,-1.1646058068618952,0
3504,-1.4213719637140196,0
3505,1.3508015984142645,0
3506,-0.8129042380122452,0
3507,0.06842903688373242,0
3508,-0.05038773583235947,0
3509,-0.07409290550571195,0
3510,0.021544853262041294,0
3511,-0.058015080149486246,0
3512,-0.06272413748617511,0
3513,-0.11525619316045277,0
3514,0.015192361796542014,0
3515,0.008746172977937854,0
3516,-0.0007690173255455249,0
3517,0.005771199701392775,0
3518,0.11183769357931739,0
3519,0.0038220053672736107,0
3520,0.4804141956402706,0
3521,4.178268857224985,0
3522,6.619159164726265,0
3523,-1.1320647020459227,0
3524,-1.2422747161446401,0
3525,1.4190618012620582,0
3526,-0.768895236507329,0
3527,0.24377237632826684,0
3528,0.0573940941537721,0
3529,-0.0796030429317371,0
3530,0.11341870919552209,0
3531,0.022385961894975187,0
3532,-0.0010037099040097336,0
3533,0.09476032524667513,0
3534,-0.02830024457448483,0
3535,0.0008643621261882582,0
3536,0.009804194213375392,0
3537,-0.0037890104404924713,0
3538,0.01306030438642241,0
3539,0.0032713222424509917,0
3540,0.4247548562654461,0
3541,4.1593247389739965,0
3542,6.64005784538677,0
3543,-1.2484215569925445,0
3544,-1.3297476661042247,0
3545,1.3766916011300727,0
3546,-0.7209566078155095,0
3547,0.27188294458066353,0
3548,0.04312278095383708,0
3549,0.0824423991078901,0
3550,0.04974020885230267,0
3551,0.13204223592550277,0
3552,0.011447930985014756,0
3553,0.076029599977227,0
3554,0.00806072468586011,0
3555,0.06791715131578357,0
3556,0.022939320184006153,0
3557,-0.012291644403167688,0
3558,-0.043287197642826736,0
3559,0.08147218763034896,0
3560,0.4819394691742923,0
3561,4.164887758445501,0
3562,6.563270796276994,0
3563,-1.1523949099932365,0
3564,-1.3450636752447485,0
3565,1.3728676918390263,0
3566,-0.7527565238239898,0
3567,0.1783477012353286,0
3568,0.004252086878118969,0
3569,-0.00032532961895423776,0
3570,0.05549616108730698,0
3571,0.07658483047685707,0
3572,0.09977450689107369,0
3573,-0.07707191712105346,0
3574,-0.015133559520117482,0
3575,-0.03516516534443678,0
3576,-0.09250650488809008,0
3577,-0.039987297647163376,0
3578,0.023006876677952245,0
3579,-0.0313354057514201,0
3580,0.38694631700885046,0
3581,4.115287901801604,0
3582,6.5492384807129405,0
3583,-1.2401385531709832,0
3584,-1.3305052605297605,0
3585,1.4869046151229803,0
3586,-0.7738909112244001,0
3587,0.24681124593375625,0
3588,-0.02653449080612553,0
3589,0.05067679500957775,0
3590,0.047916261240651084,0
3591,0.01815995753821296,0
3592,0.011589461618344506,0
3593,-0.011609096314576763,0
3594,0.019739038398310586,0
3595,0.01765357151136282,0
3596,0.0503692201620284,0
3597,0.011892692632412032,0
3598,0.06733172560537015,0
3599,0.08347838757644513,0
3600,0.4850026299707599,0
3601,4.277501532826086,0
3602,6.685756652947054,0
3603,-1.1514053529390575,0
3604,-1.2826630824262468,0
3605,1.4224815853384842,0
3606,-0.7969498819049725,0
3607,0.33064501144995456,0
3608,-0.006594358239397333,0
3609,0.05308068030611256,0
3610,0.13946659521396212,0
3611,0.12775381795192328,0
3612,0.025914016306289957,0
3613,-0.10266960594976011,0
3614,0.03486666634349592,0
3615,0.058702940791142445,0
3616,0.002773923132580087,0
3617,0.043066239973255704,0
3618,-0.028121886930382922,0
3619,0.059222336979397834,0
3620,0.47382904916884244,0
3621,4.153158817475102,0
3622,6.5329189332045114,0
3623,-1.2328804210853717,0
3624,-1.3407212355579363,0
3625,1.4027287045609325,0
3626,-0.7529698102061014,0
3627,0.2821191782700524,0
3628,-0.03918917202591386,0
3629,-0.02325068589506543,0
3630,-0.005798981799299101,0
3631,0.030808477425678653,0
3632,0.0673573870152197,0
3633,0.04651321287989471,0
3634,0.006660062480140713,0
3635,0.013750361000515098,0
3636,0.09512280620907598,0
3637,-0.018318249528678276,0
3638,0.007438416215591284,0
3639,-0.07072119193285033,0
3640,0.48792502443781605,0
3641,4.123193658449099,0
3642,6.52189445748668,0
3643,-1.2379026410758582,0
3644,-1.2755747577240732,0
3645,1.3864390228528918,0
3646,-0.8224895114500725,0
3647,0.25677215029582007,0
3648,0.0016894809436697415,0
3649,0.022733559663762264,0
3650,-0.006229613240556604,0
3651,0.020681368293978514,0
3652,-0.02886871341911998,0
3653,0.08883493994236026,0
3654,0.042677506998827754,0
3655,-0.029609055608754146,0
3656,0.13911755588471747,0
3657,0.015037518541161962,0
3658,0.07727122176494677,0
3659,0.06240416371773538,0
3660,0.48051299289978283,0
3661,4.228066040264191,0
3662,6.56384417995969,0
3663,-1.2231082955487715,0
3664,-1.296380518318795,0
3665,1.5362933904139666,0
3666,-0.7285971908435347,0
3667,0.2925568371438545,0
3668,0.06029111821406247,0
3669,-0.003855580326198043,0
3670,0.09456291413765025,0
3671,-0.05022278879442336,0
3672,0.04778117827006572,0
3673,0.043024675477922256,0
3674,0.018493194533175022,0
3675,-0.04301252812564868,0
3676,-0.06730976606231975,0
3677,-0.024806429507820783,0
3678,0.01630266321569154,0
3679,0.08365194576523642,0
3680,0.37387258716507404,0
3681,4.07157321694494,0
3682,6.513598562924011,0
3683,-1.2213777124107865,0
3684,-1.3724916454181408,0
3685,1.2915680556475224,0
3686,-0.8818225948134277,0
3687,0.17687916388224523,0
3688,0.03350153119460454,0
3689,0.11046969313976884,0
3690,-0.029502297434305675,0
3691,0.011978659453317445,0
3692,-0.04983585327005939,0
3693,-0.04956622680800137,0
3694,0.005170911248094883,0
3695,0.07808826357097903,0
3696,0.001774260301187493,0
3697,0.06842598138852167,0
3698,-0.02275597651987292,0
3699,0.0013466702320376368,0
3700,0.5256299483419802,0
3701,4.1042993778842884,0
3702,6.53894025762528,0
3703,-1.1935673137450793,0
3704,-1.3927603222857137,0
3705,1.4121012943724482,0
3706,-0.7811177153023406,0
3707,0.2450453105589972,0
3708,0.06850402396429599,0
3709,-0.048978883497645564,0
3710,0.09802873568477571,0
3711,-0.03916661449096133,0
3712,0.047213709101841285,0
3713,0.027664723467676084,0
3714,0.13458103102299912,0
3715,0.03647825656106276,0
3716,-0.08590027139764952,0
3717,-0.02480533261357562,0
3718,-0.09463933883968945,0
3719,-0.04625020579580908,0
3720,0.43176620070003074,0
3721,4.1390250041409615,0
3722,6.519293814287273,0
3723,-1.2472577344803386,0
3724,-1.3018856431396566,0
3725,1.4210252676041766,0
3726,-0.7423035586972377,0
3727,0.19475784763873694,0
3728,0.05105426807875916,0
3729,0.07138543152123626,0
3730,0.08014242655822454,0
3731,0.008977348980470288,0
3732,-0.0010817431486941712,0
3733,0.004483240807539542,0
3734,0.0233450445115514,0
3735,0.08841983396859379,0
3736,0.0800406274251101,0
3737,0.0630652459803665,0
3738,0.028248628862262457,0
3739,0.02934665039674173,0
3740,0.3759257323597359,0
3741,4.178816818343791,0
3742,6.515168581485599,0
3743,-1.1791611222488294,0
3744,-1.4321120405924461,0
3745,1.3997069328497775,0
3746,-0.7965280691336883,0
3747,0.18055934206816626,0
3748,-0.010261838848924839,0
3749,-0.030469512659265084,0
3750,0.07484331364691053,0
3751,0.04123150654717604,0
3752,-0.003742463339295156,0
3753,0.04981488164273138,0
3754,0.07244232546865878,0
3755,0.08002446319823589,0
3756,0.04768388524632695,0
3757,-0.05309781563450484,0
3758,-0.02567919570567413,0
3759,-0.07238530423182465,0
3760,0.3593499728540706,0
3761,4.082435439506901,0
3762,6.498883277589193,0
3763,-1.3647864756687131,0
3764,-1.3224532502766164,0
3765,1.3477981180239609,0
3766,-0.7826268007682915,0
3767,0.21182132439419832,0
3768,-0.0031815643897362272,0
3769,-0.01979401146618786,0
3770,-0.014236173835528984,0
3771,-0.03491839432693086,0
3772,0.04780012997726152,0
3773,-0.019436598992129694,0
3774,0.006761014242658875,0
3775,0.018727636030253455,0
3776,0.016068665788155405,0
3777,0.04415413830552462,0
3778,-0.002410816133758327,0
3779,-0.02680723295376855,0
3780,0.3466757171226209,0
3781,4.195995537222469,0
3782,6.377764862032315,0
3783,-1.3240272143786966,0
3784,-1.4925973394524363,0
3785,1.24129152115221,0
3786,-0.8260916843313125,0
3787,0.1610851387079558,0
3788,-0.08763884043732145,0
3789,-0.03399444507515244,0
3790,-0.029076054406027063,0
3791,-0.02315688756374816,0
3792,-0.059251427052437515,0
3793,0.02381631060189769,0
3794,0.004805241896760536,0
3795,-0.08511887621294949,0
3796,-0.03153644301428684,0
3797,-0.0021435105657469315,0
3798,-0.02057465183888177,0
3799,-0.012470485283034209,0
3800,0.44866034373319064,0
3801,4.107045110569524,0
3802,6.4510014699759335,0
3803,-1.3086752455125619,0
3804,-1.2994154282592918,0
3805,1.3887192724705273,0
3806,-0.8765326480448882,0
3807,0.19397826566213053,0
3808,-0.08404967749753157,0
3809,-0.06684167420064081,0
3810,-0.045954021365341546,0
3811,-0.0040224716355516735,0
3812,-0.03204893951625726,0
3813,-0.07950099656288584,0
3814,-0.04574477633390623,0
3815,0.02373629978210471,0
3816,-0.056856532701594166,0
3817,-0.11513087962337704,0
3818,-0.0716076118093727,0
3819,-0.01744019344479862,0
3820,0.36781261460651204,0
3821,4.030951081578164,0
3822,6.484448580797967,0
3823,-1.2603074624508477,0
3824,-1.4373739497346407,0
3825,1.3608963211812224,0
3826,-0.7995599159709128,0
3827,0.2755101220684045,0
3828,-0.1532151235070346,0
3829,-0.07866516575952792,0
3830,-0.025275234713885115,0
3831,-0.06967723684460517,0
3832,-0.09454826209836871,0
3833,-0.06448887282491492,0
3834,-0.08171845634356817,0
3835,0.009875140179483752,0
3836,0.005072890371985793,0
3837,-0.05729929836996032,0
3838,-0.07022145796073691,0
3839,-0.04011717978765139,0
3840,0.38745832691343507,0
3841,4.128065455917266,0
3842,6.558429041399849,0
3843,-1.2721377643423444,0
3844,-1.4161693856766533,0
3845,1.3992582267006515,0
3846,-0.7889803980120624,0
3847,0.2852113312097313,0
3848,0.02269320664166216,0
3849,-0.12471681740768012,0
3850,-0.007819465887293684,0
3851,0.036301563253301056,0
3852,-0.045555711172034025,0
3853,-0.10195068310845753,0
3854,-0.08987295032026624,0
3855,-0.004265037723071803,0
3856,-0.04938678335053332,0
3857,-0.03650260067974882,0
3858,-0.077708848711778,0
3859,-0.057445803411849475,0
3860,0.3458123153505898,0
3861,4.1174845337100585,0
3862,6.446239517365416,0
3863,-1.3265035059393882,0
3864,-1.3986141360829933,0
3865,1.3441069027365462,0
3866,-0.9026867122641057,0
3867,0.15805674078556578,0
3868,-0.04286497239098498,0
3869,-0.09279547018533411,0
3870,-0.05298560770844432,0
3871,-0.0008792628947540612,0
3872,-0.012434538719675925,0
3873,-0.0211807043506661,0
3874,-0.05232709388874669,0
3875,-0.013656207310589433,0
3876,0.04918471467060645,0
3877,-0.05790637180550491,0
3878,-0.08385033542176579,0
3879,-0.019484620573841906,0
3880,0.45438900833839446,0
3881,4.167386265312651,0
3882,6.456189617773985,0
3883,-1.3305755874746865,0
3884,-1.3547440760480691,0
3885,1.3537276446833333,0
3886,-0.8320323276580026,0
3887,0.18586536382060753,0
3888,-0.1375161602783235,0
3889,-0.08487008453379341,0
3890,-0.09303643318235534,0
3891,-0.16488230550890676,0
3892,-0.13345516131394158,0
3893,-0.07181423269946696,0
3894,-0.09276714572868622,0
3895,-0.1300318567009201,0
3896,-0.121048801672339,0
3897,-0.034138882618624695,0
3898,-0.09241154263336106,0
3899,-0.025146110118223833,0
3900,0.3992351775490251,0
3901,4.070088321605201,0
3902,6.479396519672973,0
3903,-1.30503013398801,0
3904,-1.308441247356865,0
3905,1.3160447320827076,0
3906,-0.8989416891392057,0
3907,0.22242681487353078,0
3908,-0.08433788773270774,0
3909,-0.016636468015354382,0
3910,0.015205260665747693,0
3911,-0.024116366982288896,0
3912,-0.0580717364987265,0
3913,4.364686480032298e-06,0
3914,0.012984114763448903,0
3915,-0.04178290111027323,0
3916,-0.07681300971946488,0
3917,-0.1438540489472831,0
3918,-0.029534882461242605,0
3919,-0.09107753655595438,0
3920,0.3509031726781769,0
3921,4.190763658304757,0
3922,6.424590342855039,0
3923,-1.2974469595041132,0
3924,-1.3824616815693438,0
3925,1.358820898558523,0
3926,-0.8087753841583691,0
3927,0.20010017994901216,0
3928,-0.051868391989878235,0
3929,-0.1146121094455379,0
3930,0.01328401229368309,0
3931,0.028541476414718506,0
3932,0.017560748661754864,0
3933,-0.023052510764701384,0
3934,-0.01332090197204542,0
3935,-0.03756587914126437,0
3936,0.009018321770837539,0
3937,-0.011197340936337254,0
3938,-0.03051466981187046,0
3939,-0.0033523106152920784,0
3940,0.3427901620399518,0
3941,4.136334025691733,0
3942,6.515923679501869,0
3943,-1.3919356131280267,0
3944,-1.3647591818750886,0
3945,1.4058175647301039,0
3946,-0.7966459333289465,0
3947,0.17396689783539426,0
3948,-0.1445726274335912,0
3949,0.00780835738249986,0
3950,0.0027045652277406258,0
3951,-0.025032251297408173,0
3952,-0.01335954490845542,0
3953,0.09742303230460479,0
3954,0.006995664141668051,0
3955,0.14940022031799907,0
3956,0.0732218930975328,0
3957,0.08891134500045242,0
3958,0.006519645642162697,0
3959,0.003635434303219699,0
3960,0.5452599466269284,0
3961,4.22524742748824,0
3962,6.490174104159014,0
3963,-1.2369542012221473,0
3964,-1.3043161250127409,0
3965,1.4862973173829301,0
3966,-0.8526024848017528,0
3967,0.3257804118688561,0
3968,-0.06663276871691877,0
3969,-0.03924071890190553,0
3970,0.09892602758452854,0
3971,-0.0924422453313089,0
3972,-0.06435827709345383,0
3973,0.037926603890207064,0
3974,-0.013078288115800482,0
3975,-0.021945250474965653,0
3976,-0.03777031411697059,0
3977,-0.009482098974731672,0
3978,-0.019099801679697298,0
3979,0.02746659754987591,0
3980,0.3498823618917123,0
3981,4.199224298636143,0
3982,6.484346310514084,0
3983,-1.2921814557453983,0
3984,-1.2782712320080287,0
3985,1.4258254952267118,0
3986,-0.7427363381105023,0
3987,0.2783708588751935,0
3988,-0.005757613099480214,0
3989,-0.0446345804207218,0
3990,-0.016324876048923586,0
3991,-0.0855530488946319,0
3992,-0.048319582675064414,0
3993,-0.05830030584184809,0
3994,0.035825768392986734,0
3995,0.04423150136036869,0
3996,0.027330506144731932,0
3997,0.002222174890198686,0
3998,-0.061266983605533995,0
3999,0.09406931189775168,0
4000,0.5713915409580934,0
4001,4.254962765757717,0
4002,6.60029307388795,0
4003,-1.3037030200711812,0
4004,-1.2118221043895547,0
4005,1.532587877065956,0
4006,-0.7198281660852548,0
4007,0.21466093497722313,0
4008,-0.0751782522773039,0
4009,0.07836164816539357,0
4010,-0.020731650064537088,0
4011,-0.027632324670383374,0
4012,0.041225816936028094,0
4013,-0.01354444214072396,0
4014,0.012491048933904455,0
4015,0.05507425548045635,0
4016,0.027622203435685715,0
4017,-0.10247262854437594,0
4018,0.019082463773308037,0
4019,-0.019245800671068555,0
4020,0.46157152708661064,0
4021,4.155065317231856,0
4022,6.49524858951827,0
4023,-1.377175025348627,0
4024,-1.218112686255,0
4025,1.337377507828432,0
4026,-0.7404470150911155,0
4027,0.31844798916529304,0
4028,-0.016275435683774712,0
4029,-0.0573830129572854,0
4030,0.02768100335534397,0
4031,-0.01876239112759768,0
4032,0.06851525658770158,0
4033,0.08539961417181427,0
4034,-0.06205225091646614,0
4035,-0.0026399578919767755,0
4036,0.10291716952714669,0
4037,0.07820960637247457,0
4038,0.2095745485111486,0
4039,0.015308969963517789,0
4040,0.4394845456358239,0
4041,4.212129381520901,0
4042,6.591214997519703,0
4043,-1.2825737225389138,0
4044,-1.2784278655492272,0
4045,1.3562082401654865,0
4046,-0.7828169701811083,0
4047,0.19238973503539658,0
4048,0.061015802006860596,0
4049,-0.029851539277780732,0
4050,9.524944602807423e-05,0
4051,0.03965341812031338,0
4052,-0.02106847328022777,0
4053,-0.038457882868838965,0
4054,0.016592059704343454,0
4055,-0.07387094004428868,0
4056,-0.002858914630517578,0
4057,0.0034080957142029883,0
4058,0.039099630043143214,0
4059,0.03431141156415296,0
4060,0.5354358678688735,0
4061,4.204053372907104,0
4062,6.56026433717987,0
4063,-1.3451045807539683,0
4064,-1.241557640607941,0
4065,1.3180723436345476,0
4066,-0.7148376085757094,0
4067,0.33582153482435817,0
4068,0.04446714464169352,0
4069,0.09216867052790687,0
4070,0.07772443442781812,0
4071,0.10320832882306158,0
4072,0.12430779584449186,0
4073,0.1446995016551425,0
4074,0.0019291457242260751,0
4075,0.09699162886336127,0
4076,0.040414414313744484,0
4077,0.08390002018151502,0
4078,0.04001405111641684,0
4079,0.026550279434873085,0
4080,0.3639703279487135,0
4081,4.24551826050084,0
4082,6.425536888064398,0
4083,-1.2590527465787082,0
4084,-1.2020371867651112,0
4085,1.4624524131418466,0
4086,-0.7799527637636994,0
4087,0.23824526082405997,0
4088,-0.04852279791960998,0
4089,0.03506095015254639,0
4090,0.10553017538577432,0
4091,0.0931977077881348,0
4092,0.07344965096687558,0
4093,0.03864010557912441,0
4094,0.17991098591018734,0
4095,0.06535945009330232,0
4096,0.07062846470878038,0
4097,0.08862482794701732,0
4098,0.003438996439637708,0
4099,0.007741545207017085,0
4100,0.4509116158311731,0
4101,4.250266654922333,0
4102,6.428106293862077,0
4103,-1.3426346040010095,0
4104,-1.2207874271047845,0
4105,1.4019945801816232,0
4106,-0.7773804390199902,0
4107,0.2652602531597422,0
4108,0.036499707205778935,0
4109,-0.007512769886598474,0
4110,0.010367366676530093,0
4111,0.020173717788422484,0
4112,-0.0017843919467591032,0
4113,0.030950522039022252,0
4114,0.002653796106654567,0
4115,0.03716886853871812,0
4116,0.03555444777259518,0
4117,0.05768564774542272,0
4118,0.018842274814781818,0
4119,0.11860415749845682,0
4120,0.4907460422230463,0
4121,4.323213638383345,0
4122,6.5188762666476325,0
4123,-1.2762898009366475,0
4124,-1.1987982946085085,0
4125,1.3934547874489278,0
4126,-0.7273795550583582,0
4127,0.3407891621201474,0
4128,-0.012796923358458206,0
4129,0.05515760685953612,0
4130,0.11271930982673578,0
4131,0.004570941963121137,0
4132,0.029924654990167776,0
4133,-0.011028340251635925,0
4134,0.007475748011984834,0
4135,0.08930559542814076,0
4136,0.048821264754842095,0
4137,0.012148234605901777,0
4138,0.11074950042883165,0
4139,-0.0012482579015691345,0
4140,0.5058883027533227,0
4141,4.266478551117825,0
4142,6.559959631951374,0
4143,-1.2536705831837522,0
4144,-1.3020711061787997,0
4145,1.360878224695615,0
4146,-0.73212354103287,0
4147,0.17730242974802182,0
4148,0.004528607333483328,0
4149,0.0029669427142805446,0
4150,0.08482543873076842,0
4151,-0.0002540331281863234,0
4152,-0.02318787366325785,0
4153,0.03611214618400064,0
4154,-0.052349015600196905,0
4155,0.0017979864467622553,0
4156,0.042254912952145965,0
4157,-0.04971621787687462,0
4158,-0.04074371679563185,0
4159,-0.09093543225467682,0
4160,0.4786025522949072,0
4161,4.357165947430374,0
4162,6.452925545960852,0
4163,-1.279388283360111,0
4164,-1.372004093851992,0
4165,1.4196904952216876,0
4166,-0.6841689024869538,0
4167,0.27063081081591484,0
4168,-0.03811490645000326,0
4169,0.0028562204474080716,0
4170,0.1338402694151306,0
4171,-0.07224910467396783,0
4172,0.10159148691466062,0
4173,0.024593413079983382,0
4174,0.015839071183262964,0
4175,0.031909754783527686,0
4176,0.1152423762893241,0
4177,-0.0877356487486337,0
4178,-0.030515951092657596,0
4179,0.05000190430637552,0
4180,0.49300466464433196,0
4181,4.2443918479550575,0
4182,6.54581039937818,0
4183,-1.388974480716169,0
4184,-1.2387946118697606,0
4185,1.4047139720515849,0
4186,-0.7874875796894062,0
4187,0.20173827986224924,0
4188,-0.007719646510088267,0
4189,-0.014592583187942418,0
4190,0.048097294231096405,0
4191,-0.038903817316391316,0
4192,0.05000038342372873,0
4193,-0.06548629776852134,0
4194,0.08856928469680997,0
4195,-0.023761141370125166,0
4196,-0.03583135912635292,0
4197,0.016089937932487076,0
4198,-0.03440129142817461,0
4199,-0.03302830684986785,0
4200,0.49903161757973374,0
4201,4.257907743615295,0
4202,6.449477450272594,0
4203,-1.2642028851189355,0
4204,-1.1460122103090264,0
4205,1.3086024395717353,0
4206,-0.8410262977463429,0
4207,0.22730470833040073,0
4208,-0.014296033656315477,0
4209,0.03583909920649559,0
4210,0.07032021000529186,0
4211,-0.04809081493325751,0
4212,-0.012303550091936625,0
4213,0.08326335934163669,0
4214,-0.031418789688718196,0
4215,0.05174093741693018,0
4216,0.12745070670745934,0
4217,-0.018592017270828376,0
4218,0.04863578838483677,0
4219,-0.01482082893454433,0
4220,0.5660664742396039,1
4221,4.259675086518641,1
4222,6.602710093003435,1
4223,-1.0993129360211296,1
4224,-1.5753810481091737,1
4225,1.335156798021966,1
4226,-0.8353542793085746,1
4227,0.22029273701134644,1
4228,-0.29699870787071725,1
4229,-0.04189445937811477,1
4230,0.09556807534596778,1
4231,0.33311194973891656,1
4232,0.008301101959138774,1
4233,-0.01996168180651982,1
4234,0.1379719416455425,1
4235,-0.2755371468254189,1
4236,-0.013161023119899484,1
4237,-0.05395989635940016,1
4238,-0.3847177802957013,1
4239,-0.08686955578811371,1
4240,0.8201438929723495,1
4241,4.159625670405287,1
4242,6.629488144689624,1
4243,-1.5925064267332119,1
4244,-1.3232257391431022,1
4245,1.4893437021828928,1
4246,-0.37765931024465976,1
4247,-0.13261786747618626,1
4248,-0.032032898018457726,1
4249,0.29746314439467597,1
4250,-0.27647212429622997,1
4251,-0.16196591070608338,1
4252,0.26779745844110464,1
4253,-0.35955656718447826,1
4254,-0.3928467077101698,1
4255,-0.4703731065334499,1
4256,0.37892683356491347,1
4257,0.07439887650710678,1
4258,-0.10749271182444417,1
4259,0.05887413372311645,1
4260,1.2097173603157585,1
4261,4.4829949514332945,1
4262,6.180993679863942,1
4263,-1.7523142388727404,1
4264,-1.4377664501298193,1
4265,1.4325195768729604,1
4266,-0.6368158427368276,1
4267,0.2700008214715113,1
4268,0.23855859063256984,1
4269,0.20295181757840508,1
4270,-0.4039382019432229,1
4271,-0.7376180346391699,1
4272,0.06894417288491753,1
4273,-0.285522760868854,1
4274,-0.12100813927284451,1
4275,0.01625852868373788,1
4276,0.0325658327204186,1
4277,-0.33454287436220514,1
4278,-0.31498642822199885,1
4279,-0.19615147438811759,1
4280,0.9374768711640393,1
4281,4.217010622831032,1
4282,7.036948804423522,1
4283,-1.696114935232951,1
4284,-0.9996298470738374,1
4285,0.7643990011009985,1
4286,-0.900778227239531,1
4287,0.4343018431724893,1
4288,-0.16732980784758814,1
4289,-0.4607662156269454,1
4290,0.10470697830705089,1
4291,0.482150942663971,1
4292,0.3688602726729757,1
4293,-0.08220088501676036,1
4294,-0.275979590962066,1
4295,-0.047218540170819126,1
4296,0.22325052980215587,1
4297,-0.10618019698400459,1
4298,0.3714057016947262,1
4299,-0.23213700598091447,1
4300,0.08832249399235076,1
4301,3.797450108231717,1
4302,6.780257061920613,1
4303,-1.4676987340396102,1
4304,-1.3046966797681145,1
4305,1.2460243402643603,1
4306,-0.9325585096010465,1
4307,0.30444410800447286,1
4308,0.10939686006030737,1
4309,0.4753537536873007,1
4310,0.07002348404224873,1
4311,-0.1784740449970283,1
4312,0.17595715156077932,1
4313,0.016037989207119203,1
4314,0.040927915847924164,1
4315,-0.11495633803887702,1
4316,-0.3443529256289912,1
4317,0.01604209317220271,1
4318,-0.1761420065324807,1
4319,-0.16392606674692697,1
4320,0.26229199741359654,1
4321,4.611136244313783,1
4322,6.3477554572009325,1
4323,-1.7453680128824447,1
4324,-1.3080956526267902,1
4325,1.5516453063239974,1
4326,-0.24821016521430417,1
4327,0.4631868126555938,1
4328,-0.15807479375043737,1
4329,-0.374637404610607,1
4330,-0.05482102781970299,1
4331,-0.21132935503947842,1
4332,-0.21305381785125063,1
4333,0.3308244993322332,1
4334,-0.013243149707894456,1
4335,0.12570384396276923,1
4336,0.07001158199663342,1
4337,-0.09630544818366267,1
4338,-0.05190486909914408,1
4339,0.11339958015354058,1
4340,0.6247008865832228,1
4341,4.279340416356438,1
4342,6.372605034650614,1
4343,-1.2402817046092607,1
4344,-0.8727200796292103,1
4345,1.20333141304627,1
4346,-0.8315128044904345,1
4347,0.16949282550362776,1
4348,-0.176956906968091,1
4349,0.5076662873924758,1
4350,0.05900153613960524,1
4351,0.4304357975190144,1
4352,0.5775700079048885,1
4353,-0.04909318952115217,1
4354,-0.09800246491816986,1
4355,-0.669118627168188,1
4356,-0.30742636614364255,1
4357,-0.15038913191712516,1
4358,-0.0012332516710953628,1
4359,0.406139934871524,1
4360,0.662513916716902,1
4361,4.630414784409745,1
4362,6.284312059107308,1
4363,-1.1464299709110368,1
4364,-1.167356277067372,1
4365,1.7484278401872981,1
4366,-1.078445918207062,1
4367,0.05209837646736218,1
4368,-0.04585433858276058,1
4369,-0.4694233152720729,1
4370,-0.05336803627074595,1
4371,-0.04607770001519777,1
4372,-0.3319481621230801,1
4373,-0.19673655500093673,1
4374,0.43235790289721077,1
4375,-0.5232595912892711,1
4376,-0.05927130929513777,1
4377,-0.44749904643262145,1
4378,-0.5724120290965095,1
4379,-0.35530560051350524,1
4380,0.42451599146993174,1
4381,3.9928588364506217,1
4382,6.865053889565964,1
4383,-0.9917616239894886,1
4384,-0.5959527816616067,1
4385,1.3523752643170597,1
4386,-0.55200250675653,1
4387,0.06322745388964493,1
4388,0.2722301145506657,1
4389,-0.35595950530170467,1
4390,-0.12678795359413816,1
4391,0.1773081617487944,1
4392,-0.04648151045431733,1
4393,-0.27197095465843385,1
4394,-0.20377952293225102,1
4395,-0.10457107628539104,1
4396,-0.12801498647729492,1
4397,-0.05619931829613729,1
4398,-0.2560494820117531,1
4399,-0.030593384687919608,1
4400,0.40841016801315394,1
4401,4.6931490773381315,1
4402,6.665149860168542,1
4403,-0.9033419153798944,1
4404,-0.9478018108792656,1
4405,1.4974199788633606,1
4406,-0.27160506016654506,1
4407,-0.0755473069589398,1
4408,0.07527303264511563,1
4409,0.08696606564476801,1
4410,0.03294643384007322,1
4411,-0.004116971793443211,1
4412,0.2006668816290871,1
4413,-0.2850666407134267,1
4414,0.11483157545318685,1
4415,0.1760909384291785,1
4416,0.20154060146108166,1
4417,0.06563963102603271,1
4418,-0.2679633907966146,1
4419,0.14644438867356663,1
4420,0.7458200522923091,1
4421,4.307880456052617,1
4422,6.291568393874205,1
4423,-1.0570208507778505,1
4424,-1.1855748354408315,1
4425,1.1206496655264964,1
4426,-1.311374452458697,1
4427,0.2154196145615194,1
4428,-0.47766293622290107,1
4429,-0.15741507072863678,1
4430,-0.11141256988168086,1
4431,0.36733030280270174,1
4432,0.3259938121619478,1
4433,-0.2068517455757276,1
4434,-0.15396374976886695,1
4435,0.05684722377527432,1
4436,-0.3556995387472668,1
4437,0.1890946087015548,1
4438,0.03611274659856026,1
4439,0.11318043958593176,1
4440,0.09430931971665596,1
4441,4.605624668040936,1
4442,6.298768802745455,1
4443,-1.5996483938104562,1
4444,-1.3932590429676657,1
4445,1.1467715608904199,1
4446,-1.0369439544383128,1
4447,0.4474547689782065,1
4448,-0.15759384976037402,1
4449,-0.001440063431084099,1
4450,-0.16070729985089827,1
4451,-0.5606210194734751,1
4452,-0.09536597832218195,1
4453,-0.14740301152727617,1
4454,-0.01601162300184816,1
