timestamp,value-0,is_anomaly
0,0.344635068493439,0
1,3.590406983201648,0
2,6.887289196785484,0
3,-0.25932636008848525,0
4,-1.922290159066306,0
5,1.535920731359677,0
6,-0.6417295125785901,0
7,0.19338195687855814,0
8,0.017147406045790396,0
9,-0.12317555787571646,0
10,-0.022023699710285012,0
11,0.011208681235849022,0
12,-0.043369908015218867,0
13,0.14721517827166922,0
14,-0.016228566866032877,0
15,-0.039866400929498114,0
16,-0.10108532635437238,0
17,0.0563639522853018,0
18,0.025591398277583187,0
19,-0.05441072019765883,0
20,0.25255536652592325,0
21,3.4974298238740436,0
22,6.933785776726565,0
23,-0.23520902353012058,0
24,-1.9280887365378352,0
25,1.644504836191913,0
26,-0.7109777816600141,0
27,0.148513923884364,0
28,-0.026124020479618322,0
29,-0.029987883102555964,0
30,0.10842438633593479,0
31,-0.002292491253252274,0
32,-0.04212482746145581,0
33,0.028885988314554693,0
34,-0.012690936908628447,0
35,-0.005482155893575043,0
36,0.09089597753039037,0
37,-0.01895082081286248,0
38,-0.07061040426630995,0
39,0.045271444698344605,0
40,0.2758064670740352,0
41,3.5852493834961447,0
42,6.825227756625468,0
43,-0.2728264092496269,0
44,-2.036321154086723,0
45,1.5546093073537313,0
46,-0.7318170158536681,0
47,0.15981777749728435,0
48,0.14698087114056294,0
49,-0.00746660618115394,0
50,0.005353293635975684,0
51,-0.029761299914564224,0
52,-0.021996354767641425,0
53,-0.0719306965834505,0
54,-0.05847708973541637,0
55,0.003933392273601392,0
56,-0.024384263968827785,0
57,-0.003895179888772894,0
58,-0.018462865827095894,0
59,-0.03202531371821339,0
60,0.2816575616318556,0
61,3.4351493340411614,0
62,6.829137804035131,0
63,-0.3448679615821496,0
64,-1.9737725856438408,0
65,1.5289690096450388,0
66,-0.75276369234944,0
67,0.08630699991475395,0
68,-0.006761101934156636,0
69,-0.0958511163592654,0
70,0.08663681825713174,0
71,0.029236356858525835,0
72,0.11040120999202836,0
73,0.038129823002036003,0
74,-0.08791661239418971,0
75,-0.013052981004250126,0
76,-0.00034679970462883104,0
77,0.06076050723894567,0
78,-0.015486664648926516,0
79,0.009876745604806038,0
80,0.22585745302124866,0
81,3.5631717727929657,0
82,6.903683001732661,0
83,-0.25664149619232113,0
84,-1.9024989491425786,0
85,1.5881051931757173,0
86,-0.7486723094040084,0
87,0.1863471965756391,0
88,-0.0035336512999339514,0
89,-0.024287640211024957,0
90,0.03624652838589864,0
91,0.021715861485408317,0
92,0.005305944981203599,0
93,0.030810977968995668,0
94,-0.061671838920843006,0
95,-0.02636999049041326,0
96,-0.07960429715995512,0
97,-0.057383132888628466,0
98,-0.00318399561943428,0
99,-0.06405381702725045,0
100,0.2959215917912813,0
101,3.4005155529833684,0
102,6.838105174900987,0
103,-0.3589663493389343,0
104,-1.893357069575063,0
105,1.5409044530901774,0
106,-0.7222069702905836,0
107,0.12685650434537113,0
108,-0.03934656812234563,0
109,-0.06323520289051307,0
110,0.04185948498314988,0
111,0.01846004022968833,0
112,-0.030828876593005476,0
113,-0.01281368187230483,0
114,0.0524212201832504,0
115,-0.06949264732798072,0
116,0.008721888184363341,0
117,-0.01057925890451683,0
118,0.029095042146179195,0
119,-0.06535715916751024,0
120,0.32650650740923315,0
121,3.4954061598287844,0
122,6.867785173442133,0
123,-0.3724993545991306,0
124,-1.8790451721281776,0
125,1.5611322096489648,0
126,-0.763001846180793,0
127,0.1614246694114857,0
128,0.024914307989635696,0
129,-0.0812358337853435,0
130,0.04146638607946498,0
131,-0.0499020206683463,0
132,0.025989686664249424,0
133,0.04046994316680471,0
134,4.693499619103832e-05,0
135,0.013614261946134484,0
136,-0.0015808962672559821,0
137,0.015373228337763684,0
138,0.026736004988454784,0
139,0.07499911210098142,0
140,0.24624648866914026,0
141,3.534700119789084,0
142,6.865084674317206,0
143,-0.25931313539100775,0
144,-1.9259419448620858,0
145,1.5969832455946384,0
146,-0.7560697976019682,0
147,0.018401072911637784,0
148,0.0644347905604791,0
149,-0.05766010538724301,0
150,0.035385862718014055,0
151,0.040944011401644234,0
152,-0.03299672107538988,0
153,-0.0646909777036668,0
154,0.0014568774710217933,0
155,0.037578219023177026,0
156,0.05775693470888802,0
157,0.027474770414728032,0
158,0.08577794229146479,0
159,0.11013075777982545,0
160,0.340617643029097,0
161,3.61029411922079,0
162,6.948495145923808,0
163,-0.28044092384187563,0
164,-1.8378682476086743,0
165,1.6231568237698626,0
166,-0.7140084533215867,0
167,0.13756245760010113,0
168,0.04764176105721618,0
169,-0.05277577626380757,0
170,0.13183681077485152,0
171,-0.0027636297684214516,0
172,-0.05910724891938575,0
173,-0.055840132226884,0
174,0.037659281751364154,0
175,-0.0060039247050236826,0
176,0.05350723073977469,0
177,0.014663561742287392,0
178,0.13545219592115734,0
179,0.014120969404088513,0
180,0.25872560694027075,0
181,3.593039327648632,0
182,6.8951794836150615,0
183,-0.31838068151785903,0
184,-1.9178809832963253,0
185,1.5643655045538658,0
186,-0.7074001117186264,0
187,0.0955480844043112,0
188,0.10634594598467281,0
189,0.02887444771743766,0
190,0.0401153494876849,0
191,0.01949529753244561,0
192,0.08799217221823681,0
193,0.051752336223905154,0
194,0.038794618625139686,0
195,0.020511929159344654,0
196,0.13075551007755554,0
197,-0.05737054100588403,0
198,-0.02810443980224786,0
199,-0.018112072341193164,0
200,0.37120376365563185,0
201,3.530816202836814,0
202,6.976402078132158,0
203,-0.20951472002104754,0
204,-1.8692716550384572,0
205,1.5954059348214282,0
206,-0.562151896567446,0
207,0.17070736722112198,0
208,0.0922852988779555,0
209,-0.047201184727834855,0
210,0.08106098837077866,0
211,-0.023102832771785056,0
212,0.0176489846991918,0
213,-0.0572132972804423,0
214,0.06591697115661915,0
215,0.030366492945853002,0
216,0.003103180736578417,0
217,0.10000130683915864,0
218,0.034560199453285784,0
219,-0.029330762646541934,0
220,0.28907636158383987,0
221,3.672435893320171,0
222,6.827735969813437,0
223,-0.21632741114187415,0
224,-1.9512180224757714,0
225,1.5870543729747186,0
226,-0.7346297121200712,0
227,0.2093196004184496,0
228,0.05969695396027433,0
229,0.01625684936653219,0
230,0.10230611771586426,0
231,-0.05411270393688047,0
232,0.02943033922929543,0
233,0.0567004214973527,0
234,-0.055367877272309046,0
235,0.07938085461682118,0
236,0.047608429466675,0
237,-0.027515801163774528,0
238,-0.013596205045152437,0
239,-0.03155045580225681,0
240,0.29729010599572425,0
241,3.5616266655775237,0
242,6.869869400671197,0
243,-0.3277450114131705,0
244,-1.9299653780862087,0
245,1.594731812617159,0
246,-0.639824515281945,0
247,0.12342288278751641,0
248,0.06338429245046459,0
249,-0.02965933753917453,0
250,0.019242140237459758,0
251,-0.06985025369495607,0
252,0.0015552980705226043,0
253,-0.0700533305549673,0
254,-0.08936777297658922,0
255,-0.00375732984734207,0
256,-0.005917432788372403,0
257,-0.014589651599460659,0
258,-0.01944956492054546,0
259,-0.02931805606165567,0
260,0.1573601100030792,0
261,3.5428771222458577,0
262,6.88159915089536,0
263,-0.3921639011826572,0
264,-1.890304250114216,0
265,1.5162250611017047,0
266,-0.7423304962133507,0
267,0.11770957303994407,0
268,0.10763182547097465,0
269,-0.0798977813721556,0
270,-0.004139733021164233,0
271,0.06819225335143461,0
272,-0.017995351746074303,0
273,-0.02328116319692429,0
274,0.030219183409700506,0
275,0.04089792450128602,0
276,-0.0034070084024665137,0
277,0.05612057058171898,0
278,0.010351134167876995,0
279,0.03821950286432643,0
280,0.3355439596396258,0
281,3.5985100223940463,0
282,6.8469704373700875,0
283,-0.3457575223607143,0
284,-1.9584156292320385,0
285,1.5776794173069788,0
286,-0.6572898728799592,0
287,0.052470982237149036,0
288,0.09994511565434566,0
289,-0.033751142996885475,0
290,-0.013037420177693358,0
291,0.02482023955658301,0
292,-0.0009886551355916175,0
293,0.04034877598219252,0
294,0.08105341896378465,0
295,0.06905744992377538,0
296,0.07945636786925128,0
297,0.03671425093677789,0
298,0.04795233926698207,0
299,0.04734287316210769,0
300,0.2815363907104678,0
301,3.588539521235537,0
302,6.83820722931655,0
303,-0.2773589849008297,0
304,-1.947313085297693,0
305,1.596675897013115,0
306,-0.6597907563305312,0
307,0.026970968133486095,0
308,0.01947475664007264,0
309,-0.046546391907739834,0
310,-0.036153794086291755,0
311,-0.09329983038359305,0
312,-0.03146365505362561,0
313,0.09262037035004785,0
314,-0.08108093055655159,0
315,-0.021460546418502507,0
316,0.06428574095195234,0
317,0.05172246425077366,0
318,-0.025875337193691558,0
319,0.017683179274854754,0
320,0.22236646551856395,0
321,3.491257283781943,0
322,6.769893800979315,0
323,-0.47178071228235546,0
324,-1.8512118616416546,0
325,1.4849912119681141,0
326,-0.8526737613836104,0
327,0.14028509063810418,0
328,0.062079910287718365,0
329,-0.0778256470247918,0
330,-0.06909484204073656,0
331,-0.017126978071094524,0
332,-0.11818546089090998,0
333,0.01747229009905447,0
334,-0.033887305953112276,0
335,0.036607483790733086,0
336,-0.055960340090731385,0
337,-0.08476370711702338,0
338,0.09666949499259146,0
339,-0.08683741579581308,0
340,0.3060002834778949,0
341,3.499301938594343,0
342,6.89292794128811,0
343,-0.28277534814846195,0
344,-1.8724447410213805,0
345,1.541513677475815,0
346,-0.705307845236504,0
347,0.09694738144690661,0
348,-0.01431232103699516,0
349,-0.09646744075712849,0
350,-0.002328556667258187,0
351,-0.06771982504707874,0
352,-0.01197815431811524,0
353,-0.018177451433776894,0
354,-0.04187204854858862,0
355,-0.022331942040599777,0
356,0.04747181645160772,0
357,0.004653084584273871,0
358,0.030607994977348188,0
359,0.05093240377658269,0
360,0.3718649125607424,0
361,3.564509362429002,0
362,6.933180149885618,0
363,-0.27964827843118994,0
364,-1.8936120316845693,0
365,1.674577205197562,0
366,-0.7530443245306554,0
367,0.21382928351003033,0
368,-0.000979571736330155,0
369,-0.005584571939090059,0
370,0.004091698548522198,0
371,0.029867217523191856,0
372,0.06573580779166527,0
373,0.03906389637990489,0
374,-0.006598309717572085,0
375,-0.013598841990801705,0
376,-0.03713118723670078,0
377,0.040593514817511306,0
378,0.02462540238775269,0
379,0.033410554610127825,0
380,0.29912137478062184,0
381,3.642408170918563,0
382,6.8283964585653045,0
383,-0.35227705849175156,0
384,-1.9340751304351367,0
385,1.560810210085787,0
386,-0.7362392782794942,0
387,0.1255869056481839,0
388,0.09737662554093332,0
389,0.00022272103118854691,0
390,0.010362106732969927,0
391,0.028488881619889668,0
392,0.025217980666175116,0
393,0.0036716099899197384,0
394,-0.024742909276286505,0
395,0.0013306626607342501,0
396,-0.08048364825956089,0
397,-0.07769665433713818,0
398,0.07804318608422761,0
399,0.09866458047439264,0
400,0.4003631668442035,0
401,3.7209844276590034,0
402,6.924262219479944,0
403,-0.390806984765455,0
404,-1.784089825857119,0
405,1.5988467078633224,0
406,-0.7207524289388423,0
407,0.15404211009882304,0
408,0.12544157527558059,0
409,-0.032547341593550376,0
410,0.04878637552561357,0
411,-0.0033358818961435888,0
412,0.03947152736740087,0
413,0.039444072713796935,0
414,0.06705780378868237,0
415,0.017521177640305516,0
416,0.0483396370544369,0
417,0.1194332340992185,0
418,0.024778151870658134,0
419,0.022097522381783034,0
420,0.2731815754288143,0
421,3.601706482273203,0
422,6.87639132742591,0
423,-0.24137115377645224,0
424,-1.7890326680952837,0
425,1.5687470897374487,0
426,-0.6584582760461952,0
427,0.22033716856587163,0
428,0.1133006300859675,0
429,0.05167261600130614,0
430,0.0867777663262639,0
431,-0.051837710283003526,0
432,0.03257891542424463,0
433,0.048388201316207316,0
434,-0.015208803576661843,0
435,0.037718504806688584,0
436,-0.031225465120358446,0
437,-0.028183636783391388,0
438,0.030351159046489336,0
439,0.040707207651402205,0
440,0.27729862900607355,0
441,3.5299860881254705,0
442,6.821554816132911,0
443,-0.3083447629042954,0
444,-1.8523065962121164,0
445,1.5969790407524433,0
446,-0.6565496557322263,0
447,0.11790432502942025,0
448,0.005044665013546355,0
449,0.04837522943230015,0
450,0.08052517381505854,0
451,0.06066089168869884,0
452,0.01745766896076255,0
453,-0.05362987971240227,0
454,-0.03608167906130964,0
455,0.14148011069096733,0
456,0.07674824674944855,0
457,0.060659529718304246,0
458,0.009428765388712047,0
459,0.05266657141134892,0
460,0.3764454262702061,0
461,3.6122862705261594,0
462,6.837411407133009,0
463,-0.2633276195566755,0
464,-1.8819359415888128,0
465,1.5440116677967015,0
466,-0.6135961491245051,0
467,0.16018984332622244,0
468,0.015304404004332708,0
469,0.06075957667186827,0
470,0.12624342265167843,0
471,0.0959956831039866,0
472,0.01404324233204926,0
473,0.041280434462362306,0
474,-0.003280953415544567,0
475,0.008463184783698147,0
476,-0.003807890310462643,0
477,0.10301829644346978,0
478,-0.020272577844387116,0
479,-0.007307033564987336,0
480,0.32535797760097174,0
481,3.5758642208620444,0
482,6.871679268646574,0
483,-0.2761030785429276,0
484,-1.8963780096424814,0
485,1.4804198777153537,0
486,-0.6401552164891301,0
487,0.1550561912006141,0
488,0.09443834802250879,0
489,0.11437962366964127,0
490,-0.0027815234014475984,0
491,0.025275824554843042,0
492,0.0437438879596225,0
493,0.08183547612386598,0
494,0.037458919901507876,0
495,-0.0876966092682139,0
496,-0.1192246451776468,0
497,-0.013958401100915667,0
498,-0.09539060383881928,0
499,-0.055687279045987574,0
500,0.13653035897006993,1
501,1.8719916660196951,1
502,3.633043082972509,1
503,5.4374450859350905,1
504,6.116088599610101,1
505,2.208407112219631,1
506,-0.6924638355539215,1
507,-1.4313902816964403,1
508,-1.1579139511994492,1
509,0.524256184189125,1
510,0.8588080092699749,1
511,-0.3868712999305972,1
512,-0.522515256813763,1
513,-0.10612984689873298,1
514,0.04508591541002513,1
515,-0.06460851392192846,1
516,0.001797042177649151,1
517,-0.10464318584222161,1
518,-0.0904075206954113,1
519,-0.06268932008271542,1
520,0.02672975100230586,1
521,4.68831225921805e-05,1
522,0.08492126022471541,1
523,-0.06319324497555262,1
524,-0.013075339622196846,1
525,-0.03851702257987661,1
526,-0.06487058624325023,1
527,-0.04059442106116578,1
528,-0.029869158145702564,1
529,0.020791545975253727,1
530,0.21290869427209305,1
531,3.4933989339416525,1
532,6.746181668810049,1
533,-0.37066763157078597,1
534,-1.9206622714952633,1
535,1.572144566611367,1
536,-0.775304227508687,1
537,0.13232916794990066,1
538,-0.04028178094157527,1
539,-0.12941701143325482,1
540,0.01564936330591373,1
541,0.00183859346876818,1
542,0.050807681366216745,1
543,-0.041187203354883836,1
544,0.05297976596660528,1
545,-0.05902641805083161,1
546,0.04553159956350726,1
547,0.06879221221410274,1
548,0.020086664429385528,1
549,-0.04708547367732613,1
550,0.3254702076145467,1
551,3.5994007825204695,1
552,6.783995091637302,1
553,-0.4617322825243865,1
554,-1.8623105420062738,1
555,1.5654859704462991,1
556,-0.8088459296439258,1
557,0.0910431113321923,1
558,0.042653582334173545,1
559,-0.018619907807429295,1
560,-0.061720276140780024,1
561,-0.04096202415580269,1
562,-0.04787191446624031,1
563,-0.02336882212532955,1
564,-0.003144017065563255,1
565,-0.03810070756972027,1
566,-0.03724605964587093,1
567,-0.13126522027445675,1
568,-0.0811675223599429,1
569,-0.12272471264269992,1
570,0.29277557874721216,1
571,3.5027569045760094,1
572,6.84965748027445,1
573,-0.5128504093722663,1
574,-1.9507591479866142,1
575,1.378758279616167,1
576,-0.7880649155867228,1
577,0.10157715264539054,1
578,-0.03478806511115502,1
579,-0.1427645859338596,1
580,0.014637216832037333,1
581,-0.04172013638499284,1
582,0.028471935713179027,1
583,0.09627281691547118,1
584,0.06987830539918445,1
585,-0.015538297474380593,1
586,-0.029798610837900984,1
587,0.047238385890804174,1
588,0.055042291718831626,1
589,0.00661641162707164,1
590,0.18141065469435466,1
591,3.591039529308172,1
592,6.744807790676224,1
593,-0.4371837852207545,1
594,-1.893648514702624,1
595,1.375834791965482,1
596,-0.8145332142166211,1
597,0.055336524750807276,1
598,-0.16759024799741384,1
599,-0.11314997719912974,1
600,0.25078775776952233,0
601,3.554467002253471,0
602,6.846437470994873,0
603,-0.4313460440149712,0
604,-1.9138111762214132,0
605,1.4900389404330225,0
606,-0.7614631559985822,0
607,0.20662720510245455,0
608,-0.026871771455740802,0
609,-0.11993750399852496,0
610,-0.014767275934597125,0
611,-0.07835530000692265,0
612,-0.011469453209309366,0
613,-0.023346085828236163,0
614,-0.06467196582237708,0
615,-0.039199725269286806,0
616,-0.05470896415393007,0
617,0.022774341571067003,0
618,-0.09086479156203084,0
619,-0.0825840118563913,0
620,0.3015255708808486,0
621,3.641888983856188,0
622,6.802047488755463,0
623,-0.45512791814400494,0
624,-1.872312408065299,0
625,1.5364860534965572,0
626,-0.8624684073531025,0
627,0.1020810134158827,0
628,-0.06769764647097706,0
629,-0.15328329009355957,0
630,0.03052314905805957,0
631,0.006546085217741249,0
632,-0.09400925251858654,0
633,0.0546994108445402,0
634,-0.08278193189383468,0
635,-0.007380049046200182,0
636,-0.037199850543560634,0
637,0.041672290874676395,0
638,0.0315223356008775,0
639,-0.08074293496296733,0
640,0.20859184180840912,0
641,3.5488985155333634,0
642,6.859674758725306,0
643,-0.43842523506747977,0
644,-2.0166947758603877,0
645,1.4227146196843699,0
646,-0.6842451661254777,0
647,0.24773823611358037,0
648,-0.07700167480175431,0
649,-0.14633948549556403,0
650,-0.07045545615298578,0
651,-0.02915194621335786,0
652,-0.033822625982391476,0
653,-0.06613552864092201,0
654,-0.004185759655813297,0
655,0.04280330605857645,0
656,-0.0493404544025569,0
657,0.04145940727089577,0
658,-0.03883494954645473,0
659,-0.0324097081624625,0
660,0.3173350226305102,0
661,3.517161133628169,0
662,6.865670494144989,0
663,-0.36580387856025587,0
664,-1.8594183938947944,0
665,1.528771671295965,0
666,-0.7540284339912056,0
667,0.07640162122810518,0
668,0.06786957218062883,0
669,-0.04131664339973287,0
670,-0.03571302485285405,0
671,0.047229698062356905,0
672,-0.0318930986167441,0
673,-0.026397612948929682,0
674,0.033781396046332096,0
675,0.10843481801359302,0
676,0.09236797934821944,0
677,-0.0046183626474573195,0
678,-0.0032389110353288376,0
679,-0.12296524891001094,0
680,0.31978722884397176,0
681,3.629323418444874,0
682,6.873557687070881,0
683,-0.3916820923496571,0
684,-1.903246543624363,0
685,1.4884633640593385,0
686,-0.7615166436082779,0
687,0.1553558435367148,0
688,0.0029526262993943356,0
689,0.09692585885799282,0
690,0.007823317883832094,0
691,0.0988210132782801,0
692,-0.0046178300160460775,0
693,0.06537577024072286,0
694,0.0791754456932412,0
695,0.008014355554357696,0
696,0.07963635226413848,0
697,0.039527609775398403,0
698,0.018162306776630874,0
699,0.011147901557459625,0
700,0.28931593398591876,0
701,3.6311976421848278,0
702,6.835592117055999,0
703,-0.44811131238355995,0
704,-1.8864472246924928,0
705,1.6311916742798254,0
706,-0.7276607911592292,0
707,0.19727920194770038,0
708,0.038907097203916614,0
709,-0.02714027091438425,0
710,-0.009726316900746344,0
711,-0.03110895981843024,0
712,0.05492039521806822,0
713,0.0337060446772153,0
714,0.034313492786029756,0
715,-0.06287776515568033,0
716,-0.032846923160615014,0
717,-0.05475471482040743,0
718,0.06214616582410072,0
719,0.05826873912131439,0
720,0.21131347732513367,0
721,3.65997867946762,0
722,6.85284952663154,0
723,-0.49022514600636397,0
724,-1.8362639684431925,0
725,1.5517450833154867,0
726,-0.7489404644235089,0
727,0.12717732004132654,0
728,0.0825786781453273,0
729,-0.07856112673486162,0
730,0.02411651044168004,0
731,0.01812144051459309,0
732,-0.009665214365878597,0
733,-0.059493598516861076,0
734,0.019762449589699135,0
735,0.018920479070144602,0
736,0.07399199134332868,0
737,-0.00843582339076881,0
738,0.008559595858749044,0
739,-0.05238857816763575,0
740,0.3733961495898397,0
741,3.626902043633643,0
742,6.76530840340277,0
743,-0.39985671153200175,0
744,-1.875865940854467,0
745,1.4882519559295329,0
746,-0.7645915883884934,0
747,0.12659755108821721,0
748,0.10493150294033457,0
749,-0.05103016390701048,0
750,0.03898329649704101,0
751,0.06852463408825164,0
752,0.037249195044319464,0
753,-0.01874096738459657,0
754,0.06934699260812147,0
755,0.10539516243405535,0
756,-0.021308218932473342,0
757,0.04673358775789858,0
758,0.021062780089608345,0
759,-0.008435603548597834,0
760,0.3293813099623149,0
761,3.687511257177435,0
762,6.831305088853305,0
763,-0.48092313833674927,0
764,-1.9453700995798686,0
765,1.4590002648224176,0
766,-0.7661169189630253,0
767,0.1752245737871569,0
768,0.04550410732168891,0
769,-0.0315816604368403,0
770,-0.10626717294707845,0
771,0.0068761310212621385,0
772,-0.04237372149808183,0
773,-0.015316566112057249,0
774,0.04298949751681378,0
775,-0.1373772912744247,0
776,0.04210148306562195,0
777,0.014664327492900808,0
778,-0.03029061007216769,0
779,-0.0711666748367785,0
780,0.36071833440351436,0
781,3.6602431167198515,0
782,6.873350784963596,0
783,-0.46277954192142556,0
784,-1.879054004977403,0
785,1.4979980451829429,0
786,-0.841396613586516,0
787,0.10191150554767439,0
788,0.031513776185394166,0
789,-0.0613608255825997,0
790,0.005219936939610245,0
791,-0.12393473093214172,0
792,-0.017725281952318928,0
793,-0.009845151019948435,0
794,0.05146839244616783,0
795,-0.033824729889176744,0
796,-0.0739804492513372,0
797,-0.021270366967013118,0
798,-0.02833374826231671,0
799,-0.07440904043479657,0
800,0.36741483535112024,0
801,3.5953363666202196,0
802,6.839073514453393,0
803,-0.4474502070021683,0
804,-1.8921692069574922,0
805,1.5330900672484944,0
806,-0.6468558757710379,0
807,0.09634718653597243,0
808,-0.013985727677962995,0
809,-0.03218169956722316,0
810,-0.10010527762781737,0
811,-0.11806626380623494,0
812,0.03706510604461853,0
813,-0.11912548932722683,0
814,-0.03405816403406378,0
815,-0.007008692478588966,0
816,-0.004537138340432078,0
817,0.08735223418856373,0
818,-0.0020371225635699647,0
819,0.06378428806435463,0
820,0.22592381879812135,0
821,3.5771017127925337,0
822,6.936399739080396,0
823,-0.36050620508541076,0
824,-1.8964076819546243,0
825,1.57904905683474,0
826,-0.74461014465733,0
827,0.24557967660943086,0
828,0.04216192383934717,0
829,-0.08345323824112935,0
830,-0.004049145164970654,0
831,0.003218491617086601,0
832,-0.010938398872071518,0
833,-0.022687984131598005,0
834,-0.05010579122224781,0
835,-0.170397692568635,0
836,0.0029163308110300747,0
837,-0.05213810157468303,0
838,-0.06179431738135989,0
839,-0.12417759043578346,0
840,0.3266487183191985,0
841,3.599328606037796,0
842,6.879725483396988,0
843,-0.4671987484334425,0
844,-1.8492533390427681,0
845,1.650410444819718,0
846,-0.7387137929752202,0
847,0.14454208528641352,0
848,0.07302407625378891,0
849,0.030749598218159778,0
850,0.04485112119379911,0
851,0.006730044878011401,0
852,0.08511028168322354,0
853,0.018184409494931317,0
854,0.0742446178862235,0
855,0.04255093240777006,0
856,0.10182830471305769,0
857,0.015050936788708487,0
858,0.026727999204503472,0
859,-0.05275507462417783,0
860,0.34078872618945016,0
861,3.656833312788922,0
862,6.794302956022168,0
863,-0.4746268301956582,0
864,-1.7866791042689545,0
865,1.5931278755109788,0
866,-0.6716806149934144,0
867,0.2591893195032272,0
868,0.09338256696862077,0
869,-0.05974825019679293,0
870,0.07233195622397262,0
871,-0.003381687559850341,0
872,0.03753133418985092,0
873,0.07401899479700128,0
874,-0.028934083907075088,0
875,0.06766048512761684,0
876,0.08672397426757289,0
877,0.06289613546395276,0
878,-0.0161403713692775,0
879,0.016636278617232898,0
880,0.24852610215779844,0
881,3.665139418147243,0
882,6.780629390207785,0
883,-0.4181372744541566,0
884,-1.7603883028117084,0
885,1.5579780450120817,0
886,-0.6669035449505398,0
887,0.17765087659787182,0
888,0.027406740287467438,0
889,-0.10904915658690353,0
890,0.07585875131807893,0
891,-0.04279385228753431,0
892,0.010257868816378569,0
893,0.08184768952721341,0
894,0.019146664581293608,0
895,0.055178571513739866,0
896,0.035966231935984555,0
897,0.036194964108001715,0
898,0.04179534055377582,0
899,-0.044616254456882,0
900,0.3362441032431608,0
901,3.650734506084893,0
902,6.847329781081681,0
903,-0.5062890485023265,0
904,-1.7835343983616123,0
905,1.6899374069019748,0
906,-0.5465503696680643,0
907,0.21658847008679263,0
908,0.07291506759407472,0
909,0.11086956779265672,0
910,0.06803444967301303,0
911,0.12497409156843373,0
912,0.1678584404681332,0
913,0.0070557529207018466,0
914,0.10087442745557039,0
915,0.04406847392590086,0
916,0.20805624117753757,0
917,0.07834090854497656,0
918,0.019962440977415778,0
919,0.028494184230844766,0
920,0.2884944402821939,0
921,3.6552193350717457,0
922,6.8873992023550885,0
923,-0.5596450012498377,0
924,-1.8340136934373037,0
925,1.6426401389167655,0
926,-0.6880318736318288,0
927,0.1548866210951587,0
928,0.09818274281261674,0
929,-0.024467348822011604,0
930,0.08155376719353163,0
931,0.06626549172486576,0
932,0.08091951126031027,0
933,0.047888023390176684,0
934,0.05158864008649846,0
935,0.03447391309986872,0
936,0.05928987495150994,0
937,0.03481975857538644,0
938,0.08017833263936526,0
939,0.034469916848066454,0
940,0.42590860599359515,0
941,3.713890160815239,0
942,6.869499140712929,0
943,-0.44558914777334874,0
944,-1.7851169994402127,0
945,1.5888109328587865,0
946,-0.7397280860455201,0
947,0.20375066790294624,0
948,0.0387003833588292,0
949,0.04229356513981106,0
950,0.07319034312302485,0
951,0.024316746086329527,0
952,-0.034429218731074296,0
953,0.02855012446575393,0
954,0.06802348741114946,0
955,-0.011648210799088819,0
956,0.042652915360015295,0
957,-0.016968078136172057,0
958,0.041832501307835945,0
959,0.08824755206726971,0
960,0.23583098301270317,0
961,3.7793324100287604,0
962,6.899144088305231,0
963,-0.5188737007029944,0
964,-1.7946528376480326,0
965,1.5328456892463893,0
966,-0.7365017162379524,0
967,0.1730563965004291,0
968,-0.04953791730942835,0
969,-0.06841387104206052,0
970,0.09330533965471419,0
971,-0.08668946494991953,0
972,0.050684884379398186,0
973,0.04276047762657574,0
974,0.039389778360096,0
975,0.03551450522415271,0
976,0.04735505948914332,0
977,0.03459215798111315,0
978,0.12091396470339186,0
979,0.060544197006328404,0
980,0.36271548219856015,0
981,3.7498961111860725,0
982,6.742725507279126,0
983,-0.49863495333128727,0
984,-1.8818469571937804,0
985,1.4897361133744318,0
986,-0.7503545815427914,0
987,0.11907079806144781,0
988,-0.0594880117159741,0
989,-0.04067309599875785,0
990,0.05648195946480387,0
991,0.02939253573335981,0
992,-0.07924074361347913,0
993,-0.012872807842592345,0
994,0.07363243227489219,0
995,0.05191907322548451,0
996,-0.05948929571772024,0
997,-0.0533956548667551,0
998,0.0607021607970548,0
999,-0.061862192986005995,0
1000,0.28919537507138576,0
1001,3.6279355720225697,0
1002,6.724901626561266,0
1003,-0.5844368045154408,0
1004,-1.8536684354944777,0
1005,1.5003945798299723,0
1006,-0.6547462898952251,0
1007,0.09012445461767432,0
1008,-0.025897881411442645,0
1009,-0.07745405101705893,0
1010,0.03677535260268769,0
1011,-0.03820087654881022,0
1012,-0.031543617273305555,0
1013,-0.08320899497310587,0
1014,0.08549396292205505,0
1015,-0.11325608030044658,0
1016,0.043714226791483436,0
1017,-0.013111281151847124,0
1018,0.034409765858590624,0
1019,-0.07208162522130138,0
1020,0.2846745389662007,0
1021,3.716005414363613,0
1022,6.782353105402859,0
1023,-0.5747546346829573,0
1024,-1.8088278673142726,0
1025,1.5102071129120387,0
1026,-0.7021853516871642,0
1027,0.06266244490999433,0
1028,0.017261487779166116,0
1029,-0.062106600594630655,0
1030,0.10614689036148779,0
1031,-0.02404337048616391,0
1032,-0.013906531228343854,0
1033,0.01848539946251724,0
1034,-0.05433061576740595,0
1035,-0.056554005386081255,0
1036,-0.07047156822673915,0
1037,-0.013224121386756361,0
1038,0.035677373060159195,0
1039,-0.12436867718018009,0
1040,0.31165032043785507,0
1041,3.7635734072012186,0
1042,6.746461117208084,0
1043,-0.59111472177935,0
1044,-1.833137878278712,0
1045,1.5046234811105845,0
1046,-0.7149521710727786,0
1047,0.16624822418551854,0
1048,0.038597232362308595,0
1049,-0.08869337902602947,0
1050,-0.0664729922769781,0
1051,-0.08110092889284659,0
1052,-0.07837977919200684,0
1053,0.08997696715477274,0
1054,0.03316090902481328,0
1055,-0.0457783306260837,0
1056,-0.0408168866182152,0
1057,0.011349270593770092,0
1058,-0.0043683584382401275,0
1059,0.031017713746826298,0
1060,0.38286831550830724,0
1061,3.658993120062411,0
1062,6.809149932142791,0
1063,-0.6158787386524774,0
1064,-1.8402627267726208,0
1065,1.50643359062321,0
1066,-0.7139246768924983,0
1067,0.1612940030623123,0
1068,-0.004787431439914746,0
1069,-0.0021216170825008596,0
1070,-0.0054080784981336595,0
1071,0.02185819769102437,0
1072,-0.14042956535147738,0
1073,0.061507434574312306,0
1074,-0.02772893376882153,0
1075,-0.006463130275994872,0
1076,-0.01670068476128039,0
1077,-0.004226338635724995,0
1078,0.06875055256423653,0
1079,0.09871778044533117,0
1080,0.3571002143759444,0
1081,3.7012702337541232,0
1082,6.799512818469191,0
1083,-0.5958900419777222,0
1084,-1.815686037398397,0
1085,1.5313244264720496,0
1086,-0.788649695670522,0
1087,0.14624943283331435,0
1088,-0.10006968474409536,0
1089,-0.09668897346717878,0
1090,-0.0025631708572208395,0
1091,-0.04774993853501959,0
1092,-0.04752613272357412,0
1093,-0.05293394365434935,0
1094,-0.05641473339606138,0
1095,-0.06957702416263509,0
1096,0.11104066389450573,0
1097,-0.02256489159156659,0
1098,0.058494844584762666,0
1099,-0.03614279439122256,0
1100,0.33633883479456395,0
1101,3.5997321992199245,0
1102,6.751197683033218,0
1103,-0.5654574406932432,0
1104,-1.7562500173214413,0
1105,1.4957631582955584,0
1106,-0.8123886298822662,0
1107,0.13841471669659988,0
1108,-0.06448549358924452,0
1109,-0.02121624256507139,0
1110,-0.011098480092416733,0
1111,0.02811519750727879,0
1112,-0.09165659084738552,0
1113,0.008090522033541275,0
1114,-0.10163660197081897,0
1115,-0.06751924302292335,0
1116,-0.002199841876831143,0
1117,-0.03981626089690946,0
1118,-0.00499316523476536,0
1119,-0.0069015232052256625,0
1120,0.3303353156942594,0
1121,3.7356818858416716,0
1122,6.7426689492322955,0
1123,-0.5142282537965815,0
1124,-1.7639149034078574,0
1125,1.4509449030564987,0
1126,-0.725291426776134,0
1127,0.183961145478296,0
1128,0.028917212293399774,0
1129,-0.07545783981959818,0
1130,-0.014461209274167764,0
1131,-0.028353872145967653,0
1132,-0.07783327652416518,0
1133,-0.08950457715994858,0
1134,-0.027461292987581515,0
1135,-0.03451591678782417,0
1136,-0.12356470788201732,0
1137,-0.11966624187712374,0
1138,-0.12908729506384414,0
1139,-0.06507111510763337,0
1140,0.26589344170047474,0
1141,3.575141680181248,0
1142,6.794712000523855,0
1143,-0.5818796404556211,0
1144,-1.8323654609492241,0
1145,1.4823861341593578,0
1146,-0.7788005843186027,0
1147,0.1519848634393194,0
1148,-0.037242292227333565,0
1149,-0.08499121814369207,0
1150,0.029692137704412556,0
1151,-0.10016533282730053,0
1152,-0.07838401141354354,0
1153,-0.12020106552526258,0
1154,-0.011000699074049512,0
1155,-0.014883614064391561,0
1156,-0.04892051749147047,0
1157,-0.04102642848681225,0
1158,-0.049926358420235045,0
1159,-0.030042988305280596,0
1160,0.3630255841952108,0
1161,3.663466126989185,0
1162,6.760202688046363,0
1163,-0.6334281169770801,0
1164,-1.897227772573821,0
1165,1.3935782926852105,0
1166,-0.8330136706982648,0
1167,-0.04587802817767779,0
1168,-0.06417550570922384,0
1169,-0.19764480683899774,0
1170,-0.15696792662939255,0
1171,-0.20049849936115424,0
1172,-0.1804062385198019,0
1173,-0.20627325531626411,0
1174,-0.11703625005227376,0
1175,-0.17940604108041977,0
1176,-0.1317285490452751,0
1177,-0.10433786373282095,0
1178,-0.1088517628215548,0
1179,-0.03290371578247557,0
1180,0.27536889123943104,0
1181,3.6559050341430295,0
1182,6.75285436331653,0
1183,-0.6205662383476577,0
1184,-1.9086891862391826,0
1185,1.4835072583708797,0
1186,-0.7938424644685808,0
1187,0.14685393631681595,0
1188,-0.0503489079373807,0
1189,-0.11535159963399412,0
1190,-0.04214811252515873,0
1191,-0.07795472146038099,0
1192,-0.1020931154893347,0
1193,-0.06297569000182424,0
1194,-0.07246814593339065,0
1195,0.010856103132050293,0
1196,-0.02089929730442673,0
1197,0.051105246762317785,0
1198,-0.15179557070739286,0
1199,-0.05706269556525553,0
1200,0.2376716181726185,0
1201,3.5994524575072986,0
1202,6.703312029754924,0
1203,-0.4732691259309054,0
1204,-1.8972962189365434,0
1205,1.4584234981371769,0
1206,-0.8766283023452612,0
1207,0.10083476762098242,0
1208,-0.08500686062751917,0
1209,-0.0854023314317052,0
1210,0.02677996381695024,0
1211,-0.044260379837774,0
1212,-0.01584350235128581,0
1213,0.011340185564876593,0
1214,-0.006712222103145975,0
1215,0.03466199446500475,0
1216,0.05026136703771179,0
1217,0.10965856920775548,0
1218,-0.036337702431211934,0
1219,0.04851680015957853,0
1220,0.3018696756732482,0
1221,3.703642008771054,0
1222,6.777069732872054,0
1223,-0.5882925187261889,0
1224,-1.7205687209667873,0
1225,1.4287052954413542,0
1226,-0.8781524808687677,0
1227,0.15432076915923862,0
1228,-0.06499311196849282,0
1229,-0.11468913866068985,0
1230,0.04795444563394434,0
1231,-0.06554800755735324,0
1232,-0.037504236594790984,0
1233,-0.06686834570788333,0
1234,-0.05999352591797473,0
1235,-0.0026949125084357595,0
1236,-0.10068237171227243,0
1237,-0.014874715308365663,0
1238,-0.02466844451304813,0
1239,0.04299940112568541,0
1240,0.2462406893868178,0
1241,3.5971763378807027,0
1242,6.7930796701512,0
1243,-0.6580936400223951,0
1244,-1.8663912579020965,0
1245,1.5106766789105341,0
1246,-0.8451192635513849,0
1247,0.15889402003709954,0
1248,-0.057035450193994,0
1249,-0.06828909917621458,0
1250,-0.056669861504305134,0
1251,-0.13644182242390376,0
1252,-0.06380153363511552,0
1253,-0.05894151236982102,0
1254,-0.05861994638954464,0
1255,-0.0747942519617468,0
1256,-0.23313196068797434,0
1257,-0.024072159313236783,0
1258,-0.078242751203453,0
1259,-0.03324889358285457,0
1260,0.2701696017866487,0
1261,3.7304428967136554,0
1262,6.734376770153495,0
1263,-0.6846047760413221,0
1264,-1.7758215260327872,0
1265,1.4864929739066228,0
1266,-0.8707285319391428,0
1267,0.03818430100082783,0
1268,-0.054508393769121366,0
1269,-0.07594691914431245,0
1270,-0.12964889240950306,0
1271,-0.08231113075812503,0
1272,-0.04318213354329829,0
1273,-0.1159325312394045,0
1274,-0.1314978359650448,0
1275,-0.026766330247610232,0
1276,-0.08743485496643248,0
1277,-0.037697594046119665,0
1278,-0.08796267939260086,0
1279,-0.0037285667523036976,0
1280,0.3142158865169208,0
1281,3.762709683222604,0
1282,6.826497288883723,0
1283,-0.5162394092161404,0
1284,-1.611581433393559,0
1285,1.5436152226163251,0
1286,-0.7085685594946622,0
1287,0.14578649938553695,0
1288,0.018975251693215837,0
1289,-0.11013953742182564,0
1290,-0.008755870114852165,0
1291,-0.058417878456260654,0
1292,-0.030510201807529308,0
1293,0.00526015863494134,0
1294,-0.04715663233052204,0
1295,0.05942683882970437,0
1296,-0.0402395426563071,0
1297,-0.04384883353300524,0
1298,0.08696356539914075,0
1299,-0.04044273871323859,0
1300,0.3031892633834782,0
1301,3.7020515699896728,0
1302,6.860271518687276,0
1303,-0.6577062501960518,0
1304,-1.8155094053132637,0
1305,1.5632729319626637,0
1306,-0.7258707599694941,0
1307,0.1663183213074367,0
1308,0.08210123212357359,0
1309,-0.036621169684270934,0
1310,0.006583625716587174,0
1311,0.0444113085858044,0
1312,0.061224073017409064,0
1313,0.06275069354518432,0
1314,0.1257975509937014,0
1315,-0.10437498950851574,0
1316,0.00459248580064834,0
1317,0.042413077673125396,0
1318,0.019017855377290286,0
1319,-0.020663983146352066,0
1320,0.31002421561647964,0
1321,3.655057514308379,0
1322,6.7759425305919025,0
1323,-0.5621031090701049,0
1324,-1.6351289933511302,0
1325,1.5110602923672145,0
1326,-0.7594720528350939,0
1327,0.16174976646237654,0
1328,0.1032562372408227,0
1329,-0.024475100655613202,0
1330,0.0753967541773964,0
1331,0.04740896815538103,0
1332,-0.019322924172014262,0
1333,-0.03154951232630536,0
1334,-0.0352337595763122,0
1335,0.020387085332394576,0
1336,-0.018412454490345426,0
1337,0.0153169668167234,0
1338,-0.03245044531268575,0
1339,-0.027361896660981863,0
1340,0.3110194581259466,0
1341,3.7689947171237166,0
1342,6.839082893917957,0
1343,-0.5628300891497179,0
1344,-1.801587371983645,0
1345,1.469143207169696,0
1346,-0.7321150775961499,0
1347,0.18506772399146282,0
1348,0.05737239131890605,0
1349,-0.02425818074554069,0
1350,0.08386049221806757,0
1351,-0.006144598555728846,0
1352,0.03172153036595446,0
1353,0.038906339309875956,0
1354,0.006780620462523676,0
1355,0.09129775007750597,0
1356,-0.016127622271265404,0
1357,-0.03986313450886088,0
1358,0.042128896258022054,0
1359,0.03878596486012152,0
1360,0.24512508324446558,0
1361,3.8002942985566226,0
1362,6.806262772400127,0
1363,-0.5582268169029408,0
1364,-1.7107739783183884,0
1365,1.5077438025657544,0
1366,-0.7156310963383825,0
1367,0.11627171614739679,0
1368,0.09535917439187587,0
1369,-0.027581075471524198,0
1370,-0.019279876342098393,0
1371,-0.03238848937658287,0
1372,0.09870745258299209,0
1373,-0.0240021352519706,0
1374,-0.0015357620056547067,0
1375,-0.029756179498220386,0
1376,0.05277802976100841,0
1377,0.007149084641581744,0
1378,-0.031845496415597176,0
1379,0.02145634177942858,0
1380,0.29478414846715395,0
1381,3.737983158778051,0
1382,6.799488948383992,0
1383,-0.6908814089529782,0
1384,-1.7802081174518696,0
1385,1.5090018761507724,0
1386,-0.8219361890011625,0
1387,0.09449113904708639,0
1388,-0.0854659015005533,0
1389,-0.23335011721243046,0
1390,-0.024932500549426327,0
1391,0.03422152735648576,0
1392,-0.024836399544905498,0
1393,0.013083491732460158,0
1394,-0.07145271767100822,0
1395,0.00515270905025432,0
1396,-0.010388059816549403,0
1397,-0.006150277012827478,0
1398,0.025878244208135448,0
1399,-0.02761064222141299,0
1400,0.2614741140005319,0
1401,3.7525361237560384,0
1402,6.745461299339327,0
1403,-0.6718686286763574,0
1404,-1.7332808017600556,0
1405,1.5254258333190578,0
1406,-0.7891334742674028,0
1407,0.0804768021559582,0
1408,0.002230164565189697,0
1409,-0.028329121438536102,0
1410,0.10333331695413671,0
1411,0.0166863290583858,0
1412,0.03411354071362109,0
1413,0.013022488278618575,0
1414,-0.03934621762670273,0
1415,0.009829400428942432,0
1416,-0.06251902051878308,0
1417,-0.07599992369203161,0
1418,-0.032094056733825205,0
1419,0.042728505400763186,0
1420,0.3980371140573583,0
1421,3.8005192075273433,0
1422,6.838883106756846,0
1423,-0.5737015693733016,0
1424,-1.693917309436855,0
1425,1.5029807220629958,0
1426,-0.7824932671073773,0
1427,0.21032195720805283,0
1428,-0.016453320886766862,0
1429,0.017459930283492638,0
1430,0.005417071097894157,0
1431,0.008110777658639195,0
1432,0.030613214326598664,0
1433,-0.0788657706258994,0
1434,-0.021242786804323295,0
1435,0.020340547235960307,0
1436,-0.047920491175740425,0
1437,0.057474470453186315,0
1438,0.019592974937381203,0
1439,0.00020565764209223825,0
1440,0.3337027815142644,0
1441,3.682127422103162,0
1442,6.775902035196551,0
1443,-0.639837378041013,0
1444,-1.7732452815802657,0
1445,1.5267829053030528,0
1446,-0.7036509373513451,0
1447,0.172041909337806,0
1448,-0.09989729421646107,0
1449,-0.05390546173949678,0
1450,-0.004032372836420935,0
1451,0.006747923841380118,0
1452,-0.025325647754007165,0
1453,-0.05026659478581272,0
1454,-0.05057097377080078,0
1455,-0.02512044045262424,0
1456,-0.01491057550177597,0
1457,0.020068359440365672,0
1458,-0.05001092725118075,0
1459,-0.09300305066449592,0
1460,0.35687257627213087,0
1461,3.7333242688705854,0
1462,6.754855917575623,0
1463,-0.6250128012262465,0
1464,-1.733900281092192,0
1465,1.5364378955665188,0
1466,-0.7967865777001432,0
1467,0.13358087140108918,0
1468,0.05849525334056362,0
1469,0.029748860992824505,0
1470,0.00891665608617066,0
1471,-0.03871304272028764,0
1472,-0.07307061325024453,0
1473,0.055893934664337966,0
1474,0.04035390185101642,0
1475,-0.0012695830678519557,0
1476,-0.002139466534871686,0
1477,-0.00724378437051913,0
1478,0.08271159904545548,0
1479,0.013199797814207301,0
1480,0.28392702813743576,0
1481,3.77324812584622,0
1482,6.779708255259129,0
1483,-0.6299884204031728,0
1484,-1.7810666529407513,0
1485,1.5567629347278502,0
1486,-0.7076136173035152,0
1487,0.12945078282847344,0
1488,0.0369662314300332,0
1489,-0.018173011290312097,0
1490,0.021222033916412576,0
1491,0.07474473128763871,0
1492,0.029106988194839464,0
1493,0.02268321591645736,0
1494,-0.024701366753458964,0
1495,0.02488932933273925,0
1496,0.11307482892234919,0
1497,0.02064977016009213,0
1498,-0.0675740701664842,0
1499,0.08233762988364604,0
1500,0.41337833968407733,0
1501,3.777716678842564,0
1502,6.823571962785487,0
1503,-0.5962973245368569,0
1504,-1.6507192668291246,0
1505,1.6467834552276879,0
1506,-0.6257323925026047,0
1507,0.27579157847452546,0
1508,0.07357628567700744,0
1509,0.034783410634438544,0
1510,-0.0016261962637831376,0
1511,0.035604677838122406,0
1512,0.01452634973094292,0
1513,0.05367651536160067,0
1514,-0.04555356203363519,0
1515,0.0003660729848224808,0
1516,-0.004848277271264731,0
1517,0.026616613576901517,0
1518,0.05824214989036977,0
1519,0.007314302667622129,0
1520,0.2949314568573538,0
1521,3.6892572630018408,0
1522,6.772569813294974,0
1523,-0.6839243580057723,0
1524,-1.7256804675773065,0
1525,1.441086682508046,0
1526,-0.6985134147510753,0
1527,0.18270232890599,0
1528,-0.014181494060335365,0
1529,-0.011345687513219054,0
1530,-0.05085332108419,0
1531,0.005078437818214355,0
1532,0.040261333831576165,0
1533,0.025397727599698532,0
1534,0.016921019235432593,0
1535,-0.03868524309471212,0
1536,0.0755856777580405,0
1537,-0.014175543426123016,0
1538,0.04035556082768933,0
1539,0.11539380041379185,0
1540,0.38484227215486944,0
1541,3.758350065347712,0
1542,6.840512620231814,0
1543,-0.6427870930325396,0
1544,-1.746335734848672,0
1545,1.5486974560557085,0
1546,-0.7854346241163187,0
1547,0.15996074022394047,0
1548,-0.0072855843525927565,0
1549,-0.0358730309033506,0
1550,-0.05893017805226239,0
1551,-0.03513754461878683,0
1552,0.012139660393088687,0
1553,0.02986721618890762,0
1554,-0.03836076196811822,0
1555,0.0030904333183539544,0
1556,-0.0562542568547164,0
1557,-0.05422764588418959,0
1558,-0.0366258145703425,0
1559,-0.03835828957930433,0
1560,1.266038827256806,1
1561,4.801056513544548,1
1562,7.748814661394449,1
1563,0.26727058455751496,1
1564,-0.717112382718443,1
1565,2.473229164062951,1
1566,0.29574341614868827,1
1567,1.1825341970943373,1
1568,0.9566313731956727,1
1569,0.9581031624655034,1
1570,0.9672358705241382,1
1571,0.9385863307463902,1
1572,0.9547133465889424,1
1573,1.0003560331323904,1
1574,1.0067160781574007,1
1575,0.819552067220911,1
1576,0.9389319685175661,1
1577,0.8322284736000302,1
1578,0.9519539909561548,1
1579,0.8617766354958698,1
1580,1.3072057950114895,1
1581,4.6726537945186,1
1582,7.735435111402052,1
1583,0.2707457128237052,1
1584,-0.6645204701973764,1
1585,2.435638080876766,1
1586,0.2145947581466629,1
1587,1.1590923661270216,1
1588,0.9527144464433824,1
1589,1.0054380782492212,1
1590,1.0056904214478664,1
1591,1.0897473153204884,1
1592,1.0374381417359047,1
1593,1.099260061226431,1
1594,0.9689773566689789,1
1595,0.9261283132812833,1
1596,0.9284256090235624,1
1597,0.9871646598460314,1
1598,1.046113937795515,1
1599,0.9752457434708096,1
1600,1.3811708960302538,1
1601,4.753102563570748,1
1602,7.771338969899757,1
1603,0.29725882706914325,1
1604,-0.6811321613286561,1
1605,2.5349339674271567,1
1606,0.299674531537124,1
1607,1.1464325298127245,1
1608,0.9861041897851185,1
1609,0.9530239925628002,1
1610,1.0852208680750888,1
1611,0.9673533407521573,1
1612,1.0736566317871339,1
1613,1.036631764294532,1
1614,1.0192959004195006,1
1615,1.090290592356253,1
1616,0.9807174755916694,1
1617,0.9429534810819344,1
1618,1.0546633552543443,1
1619,1.079400010912428,1
1620,1.3603915158909239,1
1621,4.817847272390202,1
1622,7.834679045728041,1
1623,0.2773265980121806,1
1624,-0.6476092266196987,1
1625,2.5098147521075975,1
1626,0.21767620426472983,1
1627,1.1162785363616896,1
1628,0.9882467623185154,1
1629,0.9665061510744387,1
1630,1.0287857285022621,1
1631,1.0018459549256133,1
1632,0.986663010960319,1
1633,1.1040025336518642,1
1634,1.0910235000747242,1
1635,0.9454478266520214,1
1636,0.94194269454978,1
1637,1.03982298155421,1
1638,0.9796052493782987,1
1639,0.9774595139999298,1
1640,1.3612450500373285,1
1641,4.863427798780766,1
1642,7.745235138949237,1
1643,0.35623973624400085,1
1644,-0.8054775200625299,1
1645,2.472602688947325,1
1646,0.23346897755845042,1
1647,1.2727692827649952,1
1648,1.0776265379459113,1
1649,0.952470024119648,1
1650,1.0345943983414043,1
1651,1.1187039694381267,1
1652,0.9700781811040402,1
1653,1.0114952119520064,1
1654,1.0387172095404826,1
1655,0.9930728335995499,1
1656,1.004311985750982,1
1657,1.0723001930476408,1
1658,0.9679047366687885,1
1659,1.0026072309985545,1
1660,0.22407387084158217,0
1661,3.86182165768614,0
1662,6.8133521776126384,0
1663,-0.6401062642170621,0
1664,-1.6167755668077528,0
1665,1.4656626346029145,0
1666,-0.7251462519742446,0
1667,0.2198956679276861,0
1668,0.020237610816307067,0
1669,-0.03275332731107854,0
1670,0.00013315207967096176,0
1671,0.03923736697292324,0
1672,-0.012892337572075894,0
1673,0.03713558784827149,0
1674,-0.022318310522769558,0
1675,0.0848985190001638,0
1676,0.038967554982344804,0
1677,-0.034979530634714796,0
1678,0.01641153457405017,0
1679,0.03717976361694139,0
1680,0.3949435617564973,0
1681,3.7778733110639786,0
1682,6.800313228771489,0
1683,-0.7483563602444948,0
1684,-1.6672868772375624,0
1685,1.4875177967445676,0
1686,-0.7227051077191894,0
1687,0.1648438650200019,0
1688,0.0411817245527548,0
1689,0.0710743264259225,0
1690,-0.05777136689450482,0
1691,0.04687673009264306,0
1692,-0.01738952420387283,0
1693,0.02880793364240642,0
1694,-0.016378411447199433,0
1695,0.06828931578825079,0
1696,-0.0015962049847643087,0
1697,0.07831119631404207,0
1698,0.019591301961596835,0
1699,0.04554474716584932,0
1700,0.38764542969989474,0
1701,3.834655417758186,0
1702,6.786665505233217,0
1703,-0.6860100662535291,0
1704,-1.7272641013943302,0
1705,1.4616231557180588,0
1706,-0.7357468930490879,0
1707,0.19540652232388028,0
1708,0.014348217896231266,0
1709,-0.0019606793942037425,0
1710,0.12411538849659447,0
1711,0.016484061431907924,0
1712,-0.0019897430782044936,0
1713,-0.010756424031304643,0
1714,0.06336307165021926,0
1715,-0.04969124627420816,0
1716,0.03039379298696177,0
1717,0.052479675134512294,0
1718,-0.05688264188321841,0
1719,0.01716430207535731,0
1720,0.32686783752444676,0
1721,3.8214943508781163,0
1722,6.735256116212118,0
1723,-0.6632978590775758,0
1724,-1.632409903847295,0
1725,1.4894637695396888,0
1726,-0.794526745613586,0
1727,0.16226044408366394,0
1728,0.031123600153697084,0
1729,-0.044896916757852755,0
1730,0.02700824481408423,0
1731,-0.001082093466821683,0
1732,-0.05121285772079542,0
1733,0.07459682681248685,0
1734,-0.0940082515930827,0
1735,0.13168947563268163,0
1736,0.06951213978857833,0
1737,0.041571993931074094,0
1738,0.006945754643064218,0
1739,0.0027166499427338404,0
1740,0.30204039097680535,0
1741,3.9070977987842976,0
1742,6.796531654892448,0
1743,-0.650318844172269,0
1744,-1.5735104198374321,0
1745,1.392302971744145,0
1746,-0.680659890392951,0
1747,0.27832490450419295,0
1748,0.17402325626759074,0
1749,0.009764369045020288,0
1750,0.07003893451829402,0
1751,0.038794303545952105,0
1752,0.12315564723967842,0
1753,0.05297227631209622,0
1754,0.11388586347626162,0
1755,0.05162318832516846,0
1756,0.022354008580284777,0
1757,0.023315857949280882,0
1758,0.1285353435299753,0
1759,-0.015844594380714193,0
1760,0.31285806407024264,0
1761,3.876858866132574,0
1762,6.743910274405738,0
1763,-0.6924418853695035,0
1764,-1.6785294750671849,0
1765,1.453576379684903,0
1766,-0.8046066820296338,0
1767,0.22597724908949876,0
1768,-0.0248167901010093,0
1769,0.006961826679591901,0
1770,-0.0322548574982362,0
1771,-0.017192061524635337,0
1772,-0.05268368570878969,0
1773,-0.0637244587069252,0
1774,-0.10768946461801657,0
1775,-0.05756326783530474,0
1776,-0.02433240196360775,0
1777,-0.020263729907153864,0
1778,-0.060052674127844055,0
1779,-0.06009519387086436,0
1780,0.3396535479216817,0
1781,3.8197940706250066,0
1782,6.682108762033774,0
1783,-0.6838415728958969,0
1784,-1.7305425153822447,0
1785,1.6029680609933161,0
1786,-0.8456251448647728,0
1787,0.20531417302492339,0
1788,-0.023581089084511175,0
1789,-0.010838073191987214,0
1790,-0.06830856544904787,0
1791,0.0005168884026503402,0
1792,-0.08982188337030741,0
1793,0.03971286245896163,0
1794,0.09161480340143177,0
1795,-0.06563609044358738,0
1796,-0.03152398343325997,0
1797,0.060749302334490704,0
1798,0.03603247738341732,0
1799,0.056113125453375205,0
1800,0.4241765784448865,0
1801,3.853447740905829,0
1802,6.843932575019487,0
1803,-0.6968614378491332,0
1804,-1.6260134955150614,0
1805,1.4909787158211412,0
1806,-0.6011676706048718,0
1807,0.16331967335859923,0
1808,-0.00633279487855808,0
1809,-0.07077523509710297,0
1810,-0.03272068560573801,0
1811,-0.010753248005536063,0
1812,0.031124419636321978,0
1813,-0.06283137753505508,0
1814,-0.018293927405673892,0
1815,-0.005339404541714846,0
1816,-0.07148286701102638,0
1817,0.02189849793011903,0
1818,0.030171676436997037,0
1819,-0.02775986323207411,0
1820,0.2523428202598277,0
1821,3.876595178063894,0
1822,6.745430043906982,0
1823,-0.7353537841495973,0
1824,-1.6822887988826511,0
1825,1.5868842639635592,0
1826,-0.7663635005535238,0
1827,0.20375826823883236,0
1828,0.001125177445394439,0
1829,-0.03963458430908247,0
1830,0.015929021252525422,0
1831,-0.07553674334455066,0
1832,-0.023776506444781534,0
1833,-0.04395688707096447,0
1834,0.005322059298324466,0
1835,-0.06580093926084192,0
1836,-0.03792243592219165,0
1837,0.038618912297313915,0
1838,-0.06503128865768668,0
1839,-0.026040788901563756,0
1840,0.24624917015253184,0
1841,3.864567764711486,0
1842,6.703021849497224,0
1843,-0.7113911639417458,0
1844,-1.5980800000127642,0
1845,1.4728368973233326,0
1846,-0.8383216135241038,0
1847,0.12007281273934853,0
1848,-0.02527128898645739,0
1849,-0.044325192133160426,0
1850,0.01910512370415542,0
1851,0.020762244333001466,0
1852,-0.04869315898349231,0
1853,-0.056880955340399594,0
1854,-0.09629971576197155,0
1855,-0.0946153178469678,0
1856,-0.08114203881106752,0
1857,-0.026000377568709182,0
1858,-0.0957473818936311,0
1859,-0.11657201926149154,0
1860,0.2486624369961099,0
1861,3.8057376066407387,0
1862,6.631627438463271,0
1863,-0.7620153023919641,0
1864,-1.7009666439063118,0
1865,1.419324208210294,0
1866,-0.7327342939276795,0
1867,0.17340357862782826,0
1868,0.01821981681056669,0
1869,-0.04167323002339883,0
1870,0.06755409279284522,0
1871,0.07831115320818877,0
1872,0.014025580648507684,0
1873,-0.06765310842914056,0
1874,-0.058099727056770835,0
1875,-0.006114458377543252,0
1876,-0.026063245450807133,0
1877,-0.01189381764303863,0
1878,-0.03032999549950764,0
1879,0.04736208936187605,0
1880,0.2808711888981425,0
1881,3.9334679604189056,0
1882,6.764434100274481,0
1883,-0.7547484349015785,0
1884,-1.7435997668603167,0
1885,1.4599910024715452,0
1886,-0.7831461937564225,0
1887,0.17132391761852556,0
1888,-0.05479827327282698,0
1889,-0.028795610376534494,0
1890,0.03174484928831565,0
1891,-0.11929397159969829,0
1892,0.08522248360663028,0
1893,0.038688256707459796,0
1894,-0.048063038923797416,0
1895,-0.03386353575712784,0
1896,-0.03224221085970335,0
1897,9.48900671891616e-05,0
1898,-0.01370682441634316,0
1899,-0.020128146176001113,0
1900,0.30547108396095685,0
1901,3.840653989570214,0
1902,6.844608518131255,0
1903,-0.841648534653219,0
1904,-1.6074489244243355,0
1905,1.47807971662557,0
1906,-0.7575495982621092,0
1907,0.19246351745191653,0
1908,-0.10226012642044247,0
1909,0.008268339367488393,0
1910,0.057327058417753554,0
1911,-0.031588648214953025,0
1912,0.06231021285317452,0
1913,-0.020254603852186543,0
1914,0.06670514919592097,0
1915,-0.04716216906423168,0
1916,0.073235858199668,0
1917,0.040183270297243556,0
1918,-0.013280516866295292,0
1919,0.04971291216787105,0
1920,0.2805412522413476,0
1921,3.8804368850287982,0
1922,6.822365639207129,0
1923,-0.6856898012026851,0
1924,-1.6932667180567103,0
1925,1.5079488908345533,0
1926,-0.7763491404840158,0
1927,0.1990251107125767,0
1928,0.04687068639056121,0
1929,-0.05545439732559802,0
1930,-0.018706183446072465,0
1931,-0.09682817010740273,0
1932,0.074609038713267,0
1933,-0.009290013706246634,0
1934,0.006110575933915601,0
1935,-0.028092415403992446,0
1936,0.11460802716131224,0
1937,0.050221874710919504,0
1938,-0.06525338800266586,0
1939,0.024341641005376627,0
1940,0.31168887689343194,0
1941,3.8871709342553893,0
1942,6.674147111319957,0
1943,-0.7389412001823029,0
1944,-1.6289963703214927,0
1945,1.4724116269736491,0
1946,-0.8292274169189493,0
1947,0.2291323916088026,0
1948,-0.10511164457613079,0
1949,-0.008520350701184596,0
1950,0.11638588883614838,0
1951,0.013273907271875057,0
1952,0.014506008256416951,0
1953,-0.02269150632737744,0
1954,-0.04920839757353926,0
1955,0.07559933729141852,0
1956,-0.04872358156528232,0
1957,-0.038799832021915365,0
1958,-0.0769269166300756,0
1959,0.018624167618242322,0
1960,0.36463183911270897,0
1961,3.8663064209356715,0
1962,6.736374812100663,0
1963,-0.8196464678909361,0
1964,-1.5854704036994827,0
1965,1.4631166803964386,0
1966,-0.6576055938249823,0
1967,0.21150584255353383,0
1968,0.07926060007797281,0
1969,-0.028258670174467496,0
1970,0.11557359956781131,0
1971,0.009857673273434227,0
1972,0.10638341819395986,0
1973,0.03375217210934966,0
1974,0.14621532584871905,0
1975,0.1332914293003422,0
1976,0.11333491028469343,0
1977,0.016311405478943386,0
1978,0.0618329659066785,0
1979,0.08723464336717027,0
1980,0.43699393011109294,0
1981,3.894013927983675,0
1982,6.842922892210063,0
1983,-0.7763640168925012,0
1984,-1.5308090516343127,0
1985,1.5823895838245776,0
1986,-0.6219971079998212,0
1987,0.22225360487726845,0
1988,0.11149334749815105,0
1989,-0.10992383060481048,0
1990,0.05387362637818871,0
1991,-0.008969945375978401,0
1992,0.027323747993938857,0
1993,0.0054720600967521,0
1994,0.06340570880565521,0
1995,-0.04193178682208101,0
1996,-0.018108160460829185,0
1997,0.03960986316993343,0
1998,-0.02324033820866384,0
1999,0.09180869164300645,0
2000,0.39081228003990687,0
2001,3.896752481733506,0
2002,6.71405842375857,0
2003,-0.7720838018324088,0
2004,-1.6242851841657566,0
2005,1.4989686911026674,0
2006,-0.6500498533365574,0
2007,0.21601297305427905,0
2008,0.059988949571796624,0
2009,0.001511438138713836,0
2010,-0.05565027027903276,0
2011,0.04575466410316135,0
2012,0.09490149154685744,0
2013,-0.0627892136594434,0
2014,0.0392895471122359,0
2015,0.05473139191480445,0
2016,0.05109120396871543,0
2017,0.018311780836144178,0
2018,-0.06868218583444745,0
2019,0.08069330620792373,0
2020,0.37596135240759077,0
2021,3.9163404354145537,0
2022,6.679272091109232,0
2023,-0.7308157507781379,0
2024,-1.6328539750058613,0
2025,1.5472819783586926,0
2026,-0.7853207437742624,0
2027,0.19349448697750354,0
2028,0.02267582120566693,0
2029,-0.008358365877259853,0
2030,0.04843244981243365,0
2031,0.12595269698529948,0
2032,0.022233458577608778,0
2033,0.07741724974207914,0
2034,0.05712843858901882,0
2035,-0.01910997998006165,0
2036,-0.0627713430135308,0
2037,0.10502373184382335,0
2038,0.006097635921328327,0
2039,-0.07864020790369097,0
2040,0.40329259606397666,0
2041,3.876313562124266,0
2042,6.715929115562821,0
2043,-0.8532837527805095,0
2044,-1.6150894851017086,0
2045,1.535591292138483,0
2046,-0.8126293487326437,0
2047,0.18681151358679052,0
2048,-0.05852596542796963,0
2049,0.0162811616647636,0
2050,-0.026744108595067526,0
2051,0.002404665007387296,0
2052,-0.0036328503781859166,0
2053,0.057749315736841056,0
2054,0.05092775660571673,0
2055,-0.0873936201992753,0
2056,-0.028744968430580168,0
2057,0.040611520315518776,0
2058,-0.025193249484024818,0
2059,0.01482121919373735,0
2060,0.3282947098127812,0
2061,3.806211689818778,0
2062,6.67806757893403,0
2063,-0.8624585518879491,0
2064,-1.707151552521463,0
2065,1.3782678681021443,0
2066,-0.8016483894730638,0
2067,0.15725823297285352,0
2068,0.008746955099469204,0
2069,-0.1304518165225142,0
2070,0.047079487274483016,0
2071,0.015329084870716126,0
2072,-0.12074775770231404,0
2073,0.07305233561414533,0
2074,0.07144708156985104,0
2075,0.13817326605583108,0
2076,0.036568284779271945,0
2077,0.024274179982174265,0
2078,0.042140872088810344,0
2079,0.11272816671905475,0
2080,0.3735650783069346,0
2081,3.913294035339355,0
2082,6.813426097849419,0
2083,-0.7092538563574067,0
2084,-1.545303441910655,0
2085,1.5176526877972305,0
2086,-0.7367858515214325,0
2087,0.14910488805112687,0
2088,-0.06997023287686052,0
2089,-0.15854237238836785,0
2090,-0.02647327041697769,0
2091,-0.0005410445726019512,0
2092,-0.08115915164187684,0
2093,0.05879331994568673,0
2094,0.017465671646023834,0
2095,-0.10340094355532767,0
2096,0.001632182277177768,0
2097,0.009210756090270368,0
2098,0.06071520190561556,0
2099,-0.054425636812283296,0
2100,0.31709086343284276,0
2101,3.839477858837076,0
2102,6.815668797211262,0
2103,-0.7511658413503526,0
2104,-1.609781619746321,0
2105,1.43569115790216,0
2106,-0.7878378474363164,0
2107,0.2292478491138758,0
2108,-0.010516113669556758,0
2109,-0.011358225099110143,0
2110,-0.03513123430043928,0
2111,0.026367371796771823,0
2112,0.049276948314689616,0
2113,0.01828018198176037,0
2114,0.0710851366616222,0
2115,0.050838665332639366,0
2116,0.01315726706739418,0
2117,0.20559519455559622,0
2118,0.012980835041865924,0
2119,-0.026279363586340317,0
2120,0.37108676153077524,0
2121,3.8646016431913894,0
2122,6.665432990775128,0
2123,-0.7729706787539312,0
2124,-1.6439409919426808,0
2125,1.496218936860604,0
2126,-0.6894623515852586,0
2127,0.22541282018068426,0
2128,0.004331514815670533,0
2129,0.017600364055229127,0
2130,0.1015582732917763,0
2131,0.04075195279631602,0
2132,0.04129907765234052,0
2133,-0.05277882788348885,0
2134,4.654777047990999e-05,0
2135,0.008327875291733858,0
2136,0.09486041819873904,0
2137,0.07884053886026382,0
2138,0.023408116260331784,0
2139,0.05842232367472685,0
2140,0.35479291958855386,0
2141,3.892953351693002,0
2142,6.7599186736447745,0
2143,-0.8759625780411349,0
2144,-1.6221500482693614,0
2145,1.5906128512190174,0
2146,-0.8169828500304618,0
2147,0.2126059065848429,0
2148,0.07047695697715214,0
2149,0.03028636725239214,0
2150,0.015408582862663906,0
2151,-0.0837137122622642,0
2152,0.06826830144131597,0
2153,-0.02390818644242957,0
2154,0.042275398409445386,0
2155,-0.02270473935518779,0
2156,0.0932847531006527,0
2157,0.026113353103688182,0
2158,0.057374676949311997,0
2159,0.013617897693329002,0
2160,0.3219993502716047,0
2161,3.807833304130517,0
2162,6.778603823293439,0
2163,-0.7190500082614449,0
2164,-1.5581892578827023,0
2165,1.5654099519870597,0
2166,-0.7815551822468294,0
2167,0.1065913433535068,0
2168,0.03901830556025487,0
2169,-0.018814800630572726,0
2170,0.10044379907319664,0
2171,-0.008766580552140232,0
2172,0.035250173809518025,0
2173,0.07400159863392713,0
2174,0.042804760942646555,0
2175,0.008448877065504491,0
2176,0.01977404889335927,0
2177,0.05811989671728032,0
2178,-0.04938622624963169,0
2179,0.0013771028412515275,0
2180,0.34938988094298395,0
2181,3.8601831999182523,0
2182,6.708976738799471,0
2183,-0.7722575545070163,0
2184,-1.5997313591008921,0
2185,1.439166494057517,0
2186,-0.7590746891007144,0
2187,0.13158277188497758,0
2188,0.010694072817850491,0
2189,-0.03871754383647805,0
2190,0.10040312394757454,0
2191,-0.005170890061574136,0
2192,-0.045426844552496085,0
2193,0.005293664262071647,0
2194,0.06919001099278657,0
2195,-0.026161454090468286,0
2196,0.03379455115511527,0
2197,-0.030891790582822126,0
2198,-0.0702384270221037,0
2199,0.04076580706656531,0
2200,0.3750271233253998,0
2201,3.861633416691106,0
2202,6.63158042137975,0
2203,-0.8939682557133151,0
2204,-1.716641397391416,0
2205,1.474726618958584,0
2206,-0.6904338540554428,0
2207,0.24417374785894413,0
2208,-0.06158446008008946,0
2209,-0.07882621128324024,0
2210,-0.01760155912321466,0
2211,0.06585263512396973,0
2212,-0.023355052823580223,0
2213,0.008030066812463259,0
2214,0.042299305045108065,0
2215,0.07274819145541743,0
2216,-0.03371134124965356,0
2217,0.015088579937874711,0
2218,0.060302784960097916,0
2219,0.060986218522466926,0
2220,0.38496921530462475,0
2221,3.8541817521106734,0
2222,6.735104822408898,0
2223,-0.7869513794574363,0
2224,-1.6307844466437644,0
2225,1.482254590940272,0
2226,-0.8382166659707082,0
2227,0.22039354444051912,0
2228,0.004602819002910626,0
2229,-0.03505885411633229,0
2230,0.0329799340291798,0
2231,0.06106832788426687,0
2232,0.02417298170755189,0
2233,0.0475409360627627,0
2234,0.11936859045361105,0
2235,0.0014029394766571848,0
2236,0.05122958594001129,0
2237,-0.003189269277138352,0
2238,0.02992988175253226,0
2239,-0.07646908379952154,0
2240,0.36745339790677906,0
2241,3.850050805359139,0
2242,6.664658306470991,0
2243,-0.9247482535248456,0
2244,-1.661364164860514,0
2245,1.4779362430820242,0
2246,-0.7738720668008942,0
2247,0.14155126162824436,0
2248,-0.022995281900229977,0
2249,-0.12554575240298488,0
2250,-0.009149996241850221,0
2251,-0.05636472745206018,0
2252,-0.05535751255283353,0
2253,0.040058145571444145,0
2254,-0.030976026807918,0
2255,0.024738697611732453,0
2256,0.0025374330003341415,0
2257,0.05934209043658155,0
2258,0.03532649872484717,0
2259,0.05834973460779486,0
2260,0.43271876442829604,0
2261,3.8674837036763217,0
2262,6.6809222070741185,0
2263,-0.8483363546239169,0
2264,-1.502088555209164,0
2265,1.658510797961965,0
2266,-0.7863352283506925,0
2267,0.20597242254299725,0
2268,0.07003305545963187,0
2269,-0.005838087607752729,0
2270,0.012466887935228682,0
2271,0.039381767851312754,0
2272,0.09308231717547441,0
2273,0.055207015491484906,0
2274,0.044886129741065775,0
2275,0.057852211013187785,0
2276,0.01589798463960585,0
2277,0.0263634813819274,0
2278,-0.039911733268836486,0
2279,0.027740308852504534,0
2280,0.4245943831457838,0
2281,3.8481297564722694,0
2282,6.697303720026796,0
2283,-0.9249552167649148,0
2284,-1.6202552700029522,0
2285,1.4636293575958979,0
2286,-0.7715462808675131,0
2287,0.18597073638138042,0
2288,-0.07195099027527532,0
2289,-0.04257368136748528,0
2290,-0.03586692710638101,0
2291,-0.009694861298884253,0
2292,0.004436043563243584,0
2293,-0.03715155499904788,0
2294,-0.032896114983047835,0
2295,0.022955883553341324,0
2296,0.03516533514325721,0
2297,-0.0907491651821051,0
2298,-0.10947844267148411,0
2299,0.03457367977277434,0
2300,0.4050562947116697,0
2301,3.876427853625103,0
2302,6.7734906608309435,0
2303,-0.916293210043697,0
2304,-1.5984314652020846,0
2305,1.44810714764138,0
2306,-0.8093060902387,0
2307,0.24948966450091642,0
2308,0.017588302131898964,0
2309,-0.08788334528815563,0
2310,0.03098137899980689,0
2311,-0.03121887451720787,0
2312,-0.07752013811884087,0
2313,0.05433832748918632,0
2314,-0.07856506379133868,0
2315,-0.01072068030989113,0
2316,-0.07288620109091716,0
2317,-0.10377941433665148,0
2318,-0.03407844511540523,0
2319,-0.002909484623149383,0
2320,0.3028975224479494,0
2321,3.8936862438406346,0
2322,6.642960961744586,0
2323,-0.9027535759175438,0
2324,-1.664060877459074,0
2325,1.4271680894291452,0
2326,-0.7682993897697489,0
2327,0.2559913037420176,0
2328,0.00926674012738718,0
2329,-0.055354076398114266,0
2330,0.06879900976889049,0
2331,-0.004131021123702245,0
2332,-0.05793469594214602,0
2333,-0.04815951678929066,0
2334,0.0027273081057226263,0
2335,0.0011460052830886067,0
2336,-0.17396645032691868,0
2337,-0.06325415617631205,0
2338,0.009718551346377537,0
2339,-0.012497675068055422,0
2340,0.4208667781559289,0
2341,3.846751245742468,0
2342,6.684465888839692,0
2343,-0.8360113189201921,0
2344,-1.6007164664123803,0
2345,1.364645038828111,0
2346,-0.7390201718783698,0
2347,0.15933910275971552,0
2348,0.02558223801124462,0
2349,-0.060660482557374204,0
2350,-0.00037823663430226404,0
2351,-0.01747886346763663,0
2352,-0.024237750911145196,0
2353,-0.04419321423586629,0
2354,0.017871631159259233,0
2355,-0.05170762345083468,0
2356,0.07747556621744653,0
2357,0.04038826137868008,0
2358,-0.04479538368312247,0
2359,-0.011371669128310736,0
2360,0.4314586241356141,0
2361,3.919642346277076,0
2362,6.813060246491873,0
2363,-0.90996511840323,0
2364,-1.5243206373264708,0
2365,1.4814476973540807,0
2366,-0.8130491199412029,0
2367,0.22171624686707767,0
2368,0.008662549833010317,0
2369,-0.046862070488736036,0
2370,-0.05547357124998675,0
2371,0.019024043074853378,0
2372,0.08895660443561283,0
2373,0.10240237981697961,0
2374,0.04543470213117547,0
2375,0.019130113685127563,0
2376,0.09293261162915241,0
2377,-0.03102567095124676,0
2378,0.07977445751488922,0
2379,-0.03399178302393691,0
2380,0.4571491008257842,0
2381,4.058603870432658,0
2382,6.779940717942071,0
2383,-0.8053981542613727,0
2384,-1.5499882198167956,0
2385,1.4415974366799444,0
2386,-0.6924522011137083,0
2387,0.3293211357462109,0
2388,0.1602748239718665,0
2389,0.009241646679200117,0
2390,0.03300893055653845,0
2391,-0.020382835304592305,0
2392,-0.03655584339164399,0
2393,0.06326194030870028,0
2394,0.06682951093100169,0
2395,-0.02895393407767504,0
2396,0.12976969490678011,0
2397,-0.002350540295497363,0
2398,-0.020970724859184272,0
2399,-0.10455461702339824,0
2400,0.38380564286717767,0
2401,3.903022054021103,0
2402,6.662336895256314,0
2403,-0.9633364735662329,0
2404,-1.550874720033369,0
2405,1.48588133700554,0
2406,-0.8771420816642843,0
2407,0.190800214988817,0
2408,-0.011998852636121708,0
2409,-0.00806070796004503,0
2410,0.0035038508036791356,0
2411,-0.055476041262460016,0
2412,-0.022603748267706218,0
2413,-0.02562017946252411,0
2414,0.021244444683912227,0
2415,0.030806142342727758,0
2416,-0.009434087809008014,0
2417,0.03711095501864496,0
2418,0.00557953753414539,0
2419,0.21472196430429705,0
2420,0.43526243608657395,0
2421,4.051724531583684,0
2422,6.787091115597106,0
2423,-0.9031178503694132,0
2424,-1.5086687216207082,0
2425,1.535888889333819,0
2426,-0.7214772879598527,0
2427,0.3370441538044794,0
2428,0.12373041160931675,0
2429,0.04363302985628033,0
2430,0.04970351706648182,0
2431,0.061054275293374274,0
2432,0.03011915790943616,0
2433,-0.010378317328175325,0
2434,0.03917893758991895,0
2435,0.057098570336307546,0
2436,0.011851001256379428,0
2437,0.04055503449806727,0
2438,-0.035259702625857245,0
2439,0.039861942206128445,0
2440,0.3324392853104241,0
2441,4.014322745837096,0
2442,6.759861671482985,0
2443,-0.8893018215513824,0
2444,-1.4496239811390843,0
2445,1.4473076173689081,0
2446,-0.6838992773553495,0
2447,0.21566929732082626,0
2448,0.056103113364507025,0
2449,-0.005735807311180141,0
2450,-0.03212700865150044,0
2451,0.10182988440698122,0
2452,0.02544801920389403,0
2453,0.05050437165272914,0
2454,0.018051729639664872,0
2455,-0.034767072446049936,0
2456,0.02482575348850448,0
2457,0.026605297177169255,0
2458,0.029537510175394178,0
2459,0.032508548914226526,0
2460,0.3670517230064936,0
2461,3.9180847220935315,0
2462,6.676841369825934,0
2463,-0.9629901020656169,0
2464,-1.5603218569640216,0
2465,1.503966617712495,0
2466,-0.7259163441005253,0
2467,0.3332073445583026,0
2468,-0.006106951259637075,0
2469,-0.018385145247137837,0
2470,0.08244479494268991,0
2471,0.04349149758288985,0
2472,-0.008941761388754361,0
2473,0.007229770521051681,0
2474,0.11005512319204408,0
2475,-0.0897617918061035,0
2476,0.036127424795624495,0
2477,-0.015577106330441112,0
2478,0.08448106194879682,0
2479,0.03639559201922312,0
2480,0.43069322445015285,0
2481,4.0169567550471985,0
2482,6.7711947579819425,0
2483,-0.9277777709588896,0
2484,-1.4220901259750176,0
2485,1.4053599421821499,0
2486,-0.7260170398618199,0
2487,0.3022865010990642,0
2488,0.032609543928827506,0
2489,0.03635589523331235,0
2490,0.06336033995810601,0
2491,-0.04822096833768485,0
2492,0.04477928265767644,0
2493,0.04246141803405447,0
2494,0.06475292849523037,0
2495,0.06149842342223054,0
2496,-0.0373475510637086,0
2497,0.09557471580020441,0
2498,0.04879098793928216,0
2499,-0.0062891895926109505,0
2500,0.4312570030210038,0
2501,3.937548063349423,0
2502,6.83503160097441,0
2503,-0.8369697534256137,0
2504,-1.4970422247889819,0
2505,1.4763747255093813,0
2506,-0.8108383050703215,0
2507,0.20547538996888287,0
2508,0.03879741821835816,0
2509,0.07240261325133225,0
2510,0.029868877745572318,0
2511,0.07559951988867145,0
2512,0.013107042997905369,0
2513,0.06885879822654659,0
2514,0.012800085094760714,0
2515,-0.00511718018870751,0
2516,-0.01068496205181578,0
2517,-0.04252341341710302,0
2518,0.01495603540287285,0
2519,-0.003738075806956758,0
2520,0.4521031051468097,0
2521,3.986443350982118,0
2522,6.679210442172277,0
2523,-1.0359104431486557,0
2524,-1.4601042958499344,0
2525,1.4856385074818577,0
2526,-0.7578063398032617,0
2527,0.22496523831042126,0
2528,0.0729449638936028,0
2529,-0.03628529310806226,0
2530,0.20229218505405824,0
2531,0.06339706658642114,0
2532,0.12046113160859426,0
2533,0.029390210157669253,0
2534,0.08486091735583448,0
2535,0.10363961053298058,0
2536,0.10667694938406501,0
2537,0.05070398739821126,0
2538,0.02684343140904505,0
2539,0.04543896563906654,0
2540,0.3675081609161417,0
2541,4.032553174186816,0
2542,6.660143975692317,0
2543,-0.8500119739218006,0
2544,-1.575153319605895,0
2545,1.5169692384617957,0
2546,-0.6804892190760264,0
2547,0.19774742347914545,0
2548,-0.02736495558637947,0
2549,-0.005852659218455733,0
2550,0.006005282248921419,0
2551,0.062430063592223875,0
2552,-0.08894052811484258,0
2553,0.013737259148539384,0
2554,0.049886041134872,0
2555,-0.019808946564009,0
2556,-0.0143255697927855,0
2557,0.05120654543040363,0
2558,0.05798266005113663,0
2559,-0.053435956398062784,0
2560,0.4624950787099832,0
2561,3.891850064530154,0
2562,6.693137456936376,0
2563,-0.9486459307227345,0
2564,-1.4325827646138862,0
2565,1.4295980729690216,0
2566,-0.7083544325833109,0
2567,0.33168980978996654,0
2568,0.0590765663910063,0
2569,-0.050713968801887124,0
2570,0.02324183047305977,0
2571,0.009444032444765688,0
2572,-0.03450585289878806,0
2573,0.049895571310903664,0
2574,0.0690537181775976,0
2575,-0.04425030372685937,0
2576,-0.09977988831894523,0
2577,0.003536974098171679,0
2578,0.042529839477724866,0
2579,0.08367966713605068,0
2580,0.3479890970553292,0
2581,3.978690960503279,0
2582,6.718833029685787,0
2583,-0.9457831309444538,0
2584,-1.5650573655087527,0
2585,1.4774489776590274,0
2586,-0.7662767469278373,0
2587,0.2131242940679367,0
2588,0.08744580740793714,0
2589,-0.014976280885610978,0
2590,0.029461402496283873,0
2591,0.02825202389808697,0
2592,0.08299624241818906,0
2593,-0.034218008277309205,0
2594,0.06017520484291797,0
2595,-0.06366165056961658,0
2596,0.0023339616788903474,0
2597,0.0012262351276284686,0
2598,-0.01256259500783891,0
2599,0.05813548736621516,0
2600,0.3544178802500712,0
2601,3.982389953076759,0
2602,6.634185045072848,0
2603,-0.8744634806162301,0
2604,-1.5927835501041085,0
2605,1.518260365351459,0
2606,-0.7589922543257749,0
2607,0.2960504878676884,0
2608,-0.03780825171896302,0
2609,0.03260193177618828,0
2610,0.05530772924221036,0
2611,0.00189010832147035,0
2612,-0.015473320444053569,0
2613,-0.004773883894391576,0
2614,0.005546206381870453,0
2615,0.008527097007036098,0
2616,-0.007831051503578084,0
2617,0.030760353965163367,0
2618,0.05299277161858306,0
2619,-0.008082692845583356,0
2620,0.3175382994890972,0
2621,3.949086799729198,0
2622,6.693308021346335,0
2623,-0.9413838185774465,0
2624,-1.558730099619354,0
2625,1.4736551294871596,0
2626,-0.7939139038597111,0
2627,0.24359051929057676,0
2628,-0.03128276028744463,0
2629,-0.06194486185954434,0
2630,-0.001075830875995179,0
2631,-0.04757617797233308,0
2632,-0.08212365005128497,0
2633,-0.0997161916240456,0
2634,-0.01706308918355795,0
2635,-0.0521322483584905,0
2636,-0.0003308599617463815,0
2637,-0.09239614272144821,0
2638,0.0739946340051024,0
2639,-0.04570141060817076,0
2640,0.3613129496600015,0
2641,3.967611094110695,0
2642,6.649585905179407,0
2643,-0.8981719731562475,0
2644,-1.4651842653741687,0
2645,1.5152213187118428,0
2646,-0.8444495962076118,0
2647,0.18691933823547066,0
2648,0.02239441679783518,0
2649,0.04469361555526602,0
2650,-0.02312376462476706,0
2651,-0.01602517078489625,0
2652,0.0630316422795057,0
2653,0.017372637783234075,0
2654,0.04852500280699802,0
2655,-0.10625698740713331,0
2656,0.032348318573545365,0
2657,-0.015937025245302064,0
2658,-0.09979197523259625,0
2659,0.029228241354964407,0
2660,0.3471440453777595,0
2661,4.001873803345626,0
2662,6.694272956149766,0
2663,-0.9729541137885986,0
2664,-1.5276372297796479,0
2665,1.428001136213419,0
2666,-0.7766340572580593,0
2667,0.24429194234024473,0
2668,-0.005638230857893976,0
2669,-0.03441187011148491,0
2670,-0.05548386329871828,0
2671,0.06652508597728327,0
2672,-0.08185652091398432,0
2673,-0.020790061495719003,0
2674,-0.004293864126861859,0
2675,0.09693871195431741,0
2676,-0.07526644825077994,0
2677,0.0023603751048634908,0
2678,-0.040515127565207726,0
2679,-0.04558450027389294,0
2680,0.40325819112052563,0
2681,4.004754760155753,0
2682,6.547006157584756,0
2683,-1.0718835351486538,0
2684,-1.3920994431568112,0
2685,1.345460510083435,0
2686,-0.8220928317418678,0
2687,0.19114219380821781,0
2688,-0.04872509237418983,0
2689,-0.04872615604872809,0
2690,-0.013305082769522353,0
2691,0.002620059500434164,0
2692,-0.06334186693169983,0
2693,0.0009456955610836378,0
2694,-0.08404916411413621,0
2695,-0.015608971666004216,0
2696,0.008970785489007035,0
2697,0.0011378544731683524,0
2698,-0.050224391237963635,0
2699,0.0003953444307128809,0
2700,0.30827823716628633,0
2701,3.9974410951582633,0
2702,6.688480710003715,0
2703,-0.9529210769379907,0
2704,-1.544092200859173,0
2705,1.4129958148090513,0
2706,-0.8855110293128873,0
2707,0.1423236706747849,0
2708,0.07604011429582101,0
2709,-0.02145765930213504,0
2710,0.09639114610314194,0
2711,0.03772298559273573,0
2712,0.021923861254390553,0
2713,0.013509320491091562,0
2714,0.06607761649906857,0
2715,0.031280347598022416,0
2716,0.10878347997486697,0
2717,-0.04684991447833524,0
2718,-0.034435081078041385,0
2719,-0.03067250635028244,0
2720,0.3857760884937873,0
2721,3.9914617000305186,0
2722,6.73564949985745,0
2723,-1.0110926153412931,0
2724,-1.511288330682193,0
2725,1.4156598422307198,0
2726,-0.8211195707505772,0
2727,0.1818658477194768,0
2728,-0.0703547524755384,0
2729,-0.07130432060177663,0
2730,0.004096325673231085,0
2731,0.01391230672433685,0
2732,0.11223521607503423,0
2733,-0.004067729397803007,0
2734,-0.008757008024989485,0
2735,0.025183472399314778,0
2736,0.07684200920045985,0
2737,-0.024274382424772534,0
2738,0.09105208887316847,0
2739,-0.09475408196237646,0
2740,0.3733937679199228,0
2741,3.9342459438093713,0
2742,6.650226919121534,0
2743,-0.9393457537445219,0
2744,-1.4982680378474074,0
2745,1.488497663698035,0
2746,-0.710468644698691,0
2747,0.1735094478146671,0
2748,0.0328065631620267,0
2749,-0.09845782647453674,0
2750,0.042395670295964694,0
2751,0.04640661294764424,0
2752,0.028490495523981644,0
2753,-0.008038536252740456,0
2754,0.03117824483995322,0
2755,-0.0009891390954986207,0
2756,-0.022742516151651033,0
2757,-0.02387760345166177,0
2758,0.013832315394947982,0
2759,-0.0017896095291623036,0
2760,0.47373853382521797,0
2761,4.014695388341122,0
2762,6.702148732184543,0
2763,-1.022385570782079,0
2764,-1.5020396751555165,0
2765,1.437827513004804,0
2766,-0.8327241798946111,0
2767,0.24852080781200508,0
2768,0.011195331592625639,0
2769,0.022761639690088598,0
2770,0.023845249440706703,0
2771,-0.11435774185001701,0
2772,-0.037411310220685265,0
2773,-0.0544421131682499,0
2774,0.048106063187360035,0
2775,0.11079050556934342,0
2776,-0.031451237427909326,0
2777,-0.05733459437969009,0
2778,-0.035430051280845656,0
2779,-0.0831152299843493,0
2780,0.40474650281843993,0
2781,4.000032322925999,0
2782,6.634809181413378,0
2783,-1.0244574980130001,0
2784,-1.3406134219121741,0
2785,1.512827929414958,0
2786,-0.7866395941224598,0
2787,0.10762014843644203,0
2788,-0.08353798923787699,0
2789,0.04808890326678378,0
2790,0.031131781865113256,0
2791,-0.07233294113917285,0
2792,0.031178518213889075,0
2793,-0.007330982339151355,0
2794,0.01677995895080673,0
2795,0.041259020891610154,0
2796,-0.09443727058195933,0
2797,0.02695317295052601,0
2798,-0.04075060432061223,0
2799,-0.003151243270447933,0
2800,0.41433801926300556,0
2801,4.004672230021645,0
2802,6.553294941786328,0
2803,-1.125643797285708,0
2804,-1.5261371304974976,0
2805,1.420066662291893,0
2806,-0.7152401700016869,0
2807,0.1165574228483171,0
2808,-0.13853614063062153,0
2809,-0.03776880513998849,0
2810,-0.0652958306323487,0
2811,-0.020317294757940488,0
2812,0.07613426462860204,0
2813,-0.012138824155499772,0
2814,-0.03258382395068106,0
2815,0.04238659324743964,0
2816,-0.045971193983012866,0
2817,0.02051022352219488,0
2818,-0.07929051295247459,0
2819,-0.019116159533519108,0
2820,0.32465443567089836,0
2821,3.9872459476441025,0
2822,6.681681033011195,0
2823,-1.0565958709875243,0
2824,-1.5671228908940666,0
2825,1.4591142359081015,0
2826,-0.6599314702772301,0
2827,0.25827948632089154,0
2828,-0.036396581933778115,0
2829,-0.09119057976957388,0
2830,0.02320351484429817,0
2831,-0.05980454755505797,0
2832,-0.026061576928292144,0
2833,-0.01152525673181589,0
2834,0.0007935051437950209,0
2835,0.10669308415190593,0
2836,0.09529864930668056,0
2837,0.044166871942289396,0
2838,-0.009073841984753164,0
2839,0.023933848105082894,0
2840,0.4328661431914221,0
2841,4.015209095457803,0
2842,6.614804621145354,0
2843,-1.0410239080770212,0
2844,-1.3978272971061723,0
2845,1.3908280081051658,0
2846,-0.7814732922745724,0
2847,0.29274473390501143,0
2848,-0.02246487939263811,0
2849,-0.023915901294030546,0
2850,0.06013409948911759,0
2851,-0.07022709706635605,0
2852,-0.047424331564313214,0
2853,0.011439732649471908,0
2854,-0.010111389656167789,0
2855,-0.08110666574707162,0
2856,0.021041150704504345,0
2857,-0.044065958337169794,0
2858,-0.046796786961216044,0
2859,-0.046956637777927766,0
2860,0.30230862736589825,0
2861,3.9401703425631336,0
2862,6.625538313418092,0
2863,-1.068678971231791,0
2864,-1.5028758295488616,0
2865,1.3885853528945251,0
2866,-0.8220125861183761,0
2867,0.18685154631885717,0
2868,-0.023327289965689304,0
2869,-1.5191153973574678e-05,0
2870,0.0016734721929497595,0
2871,-0.00038399931081383246,0
2872,0.08857271796163232,0
2873,0.08353964477009831,0
2874,-0.0018372115267156104,0
2875,-0.07928168910412198,0
2876,0.0062504652452617555,0
2877,-0.020523659889061036,0
2878,-0.05839864395801023,0
2879,-0.09798017908792434,0
2880,0.3418869363608761,0
2881,4.0265351538754315,0
2882,6.692334062895181,0
2883,-1.0746035585480893,0
2884,-1.5859772360546254,0
2885,1.4420000418109018,0
2886,-0.7941048174057337,0
2887,0.20083198404797792,0
2888,-0.003595010555322419,0
2889,-0.01883723895716726,0
2890,0.05099337967220302,0
2891,-0.05767015105959604,0
2892,0.014927223806736584,0
2893,-0.007528493451391213,0
2894,-0.04669163536836871,0
2895,-0.0052821006869529855,0
2896,0.037811825697119106,0
2897,-0.008144988888311083,0
2898,-0.02147824360933499,0
2899,-0.01091530401088945,0
2900,0.3705366554891771,0
2901,3.977610530667635,0
2902,6.54774659075701,0
2903,-1.0251701689495007,0
2904,-1.5967474942463686,0
2905,1.4298186103061254,0
2906,-0.6829142789650396,0
2907,0.1784573505297721,0
2908,-0.101856796165874,0
2909,-0.12961723938372338,0
2910,-0.009491131336052928,0
2911,-0.061839482198153044,0
2912,-0.017699041891252845,0
2913,-0.06110534752426082,0
2914,0.05835439631785213,0
2915,-0.04660457902489361,0
2916,-0.017025901687590328,0
2917,0.02030156491994213,0
2918,-0.04777022029849966,0
2919,0.07553114471898938,0
2920,0.41451424251510083,0
2921,4.004217212229888,0
2922,6.630712630783332,0
2923,-1.1001520709426111,0
2924,-1.4782971910252047,0
2925,1.501947346035615,0
2926,-0.7422240593619909,0
2927,0.24640364787856034,0
2928,0.04675064984068086,0
2929,-0.08162347599236044,0
2930,-0.02158850498755596,0
2931,0.051613098662353,0
2932,-0.04338057642804183,0
2933,0.013742192812999954,0
2934,0.0047474456657727385,0
2935,-0.035613722651744006,0
2936,-0.05777443983942323,0
2937,0.023680634896989444,0
2938,0.09425142829812751,0
2939,-0.026374378360219865,0
2940,0.38747841380316295,0
2941,3.9588862384038426,0
2942,6.558782491034699,0
2943,-1.0945928096891169,0
2944,-1.4356292636305055,0
2945,1.4511422345311153,0
2946,-0.7993783003014975,0
2947,0.1963076270051287,0
2948,-0.016323272112015254,0
2949,-0.11409040965193236,0
2950,-0.025702288800203484,0
2951,-0.034275365172474356,0
2952,-0.06110614276840404,0
2953,-0.04684025659903246,0
2954,-0.04759962015190908,0
2955,0.0033067478404838653,0
2956,-0.006145310225498617,0
2957,0.010576122406506114,0
2958,-0.10623881028754899,0
2959,0.04238026345574812,0
2960,0.40983458199110984,0
2961,4.117102409326991,0
2962,6.640026873245962,0
2963,-1.0239598493757665,0
2964,-1.4971035589379649,0
2965,1.5075419482522532,0
2966,-0.6708459610119908,0
2967,0.19723843588862572,0
2968,-0.05045067495896948,0
2969,0.03067462558503504,0
2970,0.030385054784342176,0
2971,-0.015388989908302664,0
2972,-0.05828696642023811,0
2973,-0.07583813910568855,0
2974,-0.005373475347996693,0
2975,-0.05758351387610459,0
2976,-0.043674225935509195,0
2977,0.0226744167656336,0
2978,-0.14055697752196636,0
2979,-0.02419925429305399,0
2980,0.4354443831100164,0
2981,3.9601776744890396,0
2982,6.611048725697089,0
2983,-1.123255846400578,0
2984,-1.528492890786082,0
2985,1.3866440220729956,0
2986,-0.8867652736210629,0
2987,0.1755574912602132,0
2988,-0.06006494071826725,0
2989,-0.16206641325931376,0
2990,-0.00505596859177088,0
2991,-0.03739643070341794,0
2992,-0.03577614873887703,0
2993,-0.026378191204225854,0
2994,-0.06395004720944286,0
2995,-0.09369381071813138,0
2996,0.008931513011405587,0
2997,0.02566206939742198,0
2998,0.09130607067270148,0
2999,0.0020800501580686068,0
3000,0.34270221618738617,0
3001,4.043888302678112,0
3002,6.602180342942135,0
3003,-1.0818520032117676,0
3004,-1.5759711732362054,0
3005,1.3781720906755293,0
3006,-0.8104892381625523,0
3007,0.2086216165613088,0
3008,-0.004218565367009534,0
3009,-0.0746762925452778,0
3010,0.011838891520680248,0
3011,-0.03558277479123817,0
3012,0.0746158186419439,0
3013,-0.06693557230964457,0
3014,0.075682721664292,0
3015,-0.028750533414138614,0
3016,-0.011169829958817257,0
3017,0.02820817799047494,0
3018,-0.09382241568765534,0
3019,-0.01799596920559307,0
3020,0.36573552936613346,0
3021,3.947562944923882,0
3022,6.5854329310712165,0
3023,-1.149192414153855,0
3024,-1.5073215188340818,0
3025,1.336139681312948,0
3026,-0.911108178358372,0
3027,0.11606770321713647,0
3028,-0.05672383768232717,0
3029,-0.06453553687016997,0
3030,0.003710850135662372,0
3031,-0.04085081812937717,0
3032,-0.10950893599963356,0
3033,0.04604300035096266,0
3034,-0.034437873765125915,0
3035,-0.06425099167060887,0
3036,-0.02368023200525092,0
3037,0.05851033885842673,0
3038,-0.02905549140129709,0
3039,-0.03888527627297804,0
3040,0.3467556538534027,0
3041,3.960319375884804,0
3042,6.632334112412604,0
3043,-1.189822893581861,0
3044,-1.4249354636094718,0
3045,1.4085107715057048,0
3046,-0.7852691469521682,0
3047,0.19909021321767925,0
3048,-0.011951487266520844,0
3049,-0.02319903734680549,0
3050,0.03137769248727172,0
3051,-0.039726165916552064,0
3052,0.036885790475115005,0
3053,0.07248324581265403,0
3054,-0.05389265013901452,0
3055,0.04580897907865863,0
3056,-0.05336728179618007,0
3057,-0.0393003582889199,0
3058,0.0487015994608844,0
3059,-0.030537660929529763,0
3060,0.3669304036901029,0
3061,3.975777123599516,0
3062,6.678624560746136,0
3063,-0.9982778500945243,0
3064,-1.377988901428273,0
3065,1.4396221304951142,0
3066,-0.7252439050341594,0
3067,0.27568159748932985,0
3068,-0.12219612204665048,0
3069,0.04067295649428214,0
3070,-0.0004534700906648273,0
3071,-0.016871166503571712,0
3072,0.00736017267466723,0
3073,-0.016720829192676916,0
3074,0.011802713575149126,0
3075,-0.07850281282927488,0
3076,-0.0017863560744549594,0
3077,0.03701037230928758,0
3078,-0.03755884668432655,0
3079,-0.08469584075960195,0
3080,0.43183792097599516,0
3081,4.117662719367539,0
3082,6.61155765272044,0
3083,-1.0375649934852722,0
3084,-1.4266097105998674,0
3085,1.4097531390280489,0
3086,-0.8187351934662576,0
3087,0.21017183804934556,0
3088,-0.15080337791376147,0
3089,-0.14761775746452938,0
3090,-0.06480484253541612,0
3091,-0.05548561001482651,0
3092,0.041272359043928904,0
3093,-0.07533683786700392,0
3094,0.028242737217104824,0
3095,-0.035834844919945354,0
3096,-0.1000463917088231,0
3097,-0.038057489434733374,0
3098,0.029813673433826612,0
3099,0.057300844691995305,0
3100,0.4407762604809451,0
3101,4.206708232210167,0
3102,6.6261997197328055,0
3103,-1.187911597744625,0
3104,-1.4129213138768046,0
3105,1.4091620295600578,0
3106,-0.7859845408946855,0
3107,0.2548818282634115,0
3108,-0.051771903931773,0
3109,0.008103528052689,0
3110,0.03731066337559305,0
3111,0.0756565986206754,0
3112,0.0014343900371427236,0
3113,-0.003236476946813442,0
3114,0.023257282326428173,0
3115,0.042041076410944685,0
3116,0.021471450174023334,0
3117,-0.02815265077284808,0
3118,0.017487740289235172,0
3119,0.028129705584764644,0
3120,0.47896259291361404,0
3121,4.107493064503952,0
3122,6.68810631219646,0
3123,-1.0497060881376155,0
3124,-1.3753694333775672,0
3125,1.4506565321041707,0
3126,-0.6672434859725509,0
3127,0.2089953942623296,0
3128,-0.0508622941076417,0
3129,-0.007261553778511497,0
3130,0.019429660942414214,0
3131,0.041249338688684724,0
3132,-0.015260945158207872,0
3133,0.012195411260061946,0
3134,0.012731007576696644,0
3135,-0.04403263982854794,0
3136,0.002477393682670675,0
3137,0.03288752706802047,0
3138,-0.14935616135969404,0
3139,-0.09207854462343719,0
3140,0.33328123925710773,0
3141,3.9782365717175256,0
3142,6.552476994984681,0
3143,-1.2318786617501403,0
3144,-1.4122839910855467,0
3145,1.4231580132792918,0
3146,-0.8574942444888999,0
3147,0.14806416275704123,0
3148,-0.028320759026141992,0
3149,-0.11576255513515166,0
3150,-0.01159625612280469,0
3151,0.0012127532057287643,0
3152,-0.023838774523034012,0
3153,-0.07619086294995417,0
3154,0.014527152827580221,0
3155,0.006447869143686325,0
3156,-0.012822153761893905,0
3157,0.06552462551152913,0
3158,0.10437891996712913,0
3159,0.02573944675823831,0
3160,0.34795691267660755,0
3161,4.083412359116911,0
3162,6.6750041547420365,0
3163,-0.9856427403322818,0
3164,-1.3733083785917823,0
3165,1.505953741434164,0
3166,-0.7969859153249704,0
3167,0.320313805870643,0
3168,-0.021766308978400345,0
3169,-0.1308643619956618,0
3170,0.018808719063934207,0
3171,-0.029155440641442584,0
3172,-0.048783854331787384,0
3173,-0.08235465857139584,0
3174,-0.0619587965508658,0
3175,-0.03590096932131601,0
3176,0.0038601020147539244,0
3177,0.010954707560762882,0
3178,-0.02889455802835777,0
3179,-0.01341122316809638,0
3180,0.32748662263748873,0
3181,4.059855808230937,0
3182,6.51764455057896,0
3183,-1.0944718318333337,0
3184,-1.357846328921567,0
3185,1.4692639001322332,0
3186,-0.7499805313030248,0
3187,0.22273043811798382,0
3188,-0.030127693212834324,0
3189,0.05960997651730343,0
3190,0.1312449911020855,0
3191,0.056448112218982036,0
3192,0.11230146994728188,0
3193,-0.029410443927625374,0
3194,-0.03726579574136221,0
3195,0.140567461734931,0
3196,-0.005540400568918302,0
3197,0.04433413807463406,0
3198,0.07181867129097656,0
3199,0.039560184163492135,0
3200,0.4371842518299526,0
3201,4.097952562470175,0
3202,6.684258735280366,0
3203,-1.001999483621527,0
3204,-1.3599098380232388,0
3205,1.502713734884525,0
3206,-0.7264602345366603,0
3207,0.22130914121357786,0
3208,-0.03822817336027763,0
3209,0.002147002719758326,0
3210,0.01856504641856585,0
3211,0.009750034578986266,0
3212,-0.053068346495189794,0
3213,0.02337031727784017,0
3214,0.023395776551528545,0
3215,0.03335735510297033,0
3216,0.04333656125208554,0
3217,-0.04538941616019265,0
3218,0.015334569546153216,0
3219,-0.006575616542791117,0
3220,0.4719284008006346,0
3221,4.027619117434396,0
3222,6.61446044639474,0
3223,-1.0646491101274547,0
3224,-1.4700439850863605,0
3225,1.3734102883865678,0
3226,-0.822016539091836,0
3227,0.1682775235391387,0
3228,-0.03674581701243458,0
3229,0.004920598968575492,0
3230,-0.051979669126431566,0
3231,-0.008797020994979901,0
3232,-0.07738005079755196,0
3233,-0.005878471334991616,0
3234,0.12762866832720537,0
3235,0.06981141319360631,0
3236,0.0037994046251494914,0
3237,-0.006071028636728024,0
3238,0.03486369318351312,0
3239,0.03730294521576436,0
3240,0.46046439163199515,0
3241,4.168872681374188,0
3242,6.744851317107728,0
3243,-1.171079751134832,0
3244,-1.3860075708748176,0
3245,1.4415332206563738,0
3246,-0.6995314089578349,0
3247,0.20886495721993945,0
3248,-0.003697760250648394,0
3249,0.020850288633550575,0
3250,-0.005642387750876984,0
3251,0.053558115597280256,0
3252,0.02872073547347361,0
3253,0.025846943334177665,0
3254,0.05931974184947162,0
3255,0.029559532098322266,0
3256,-0.016349575039261974,0
3257,-0.0849936933995069,0
3258,0.07987685360739714,0
3259,-0.021017116343093712,0
3260,0.36515439101401237,0
3261,4.023554970216407,0
3262,6.624076700433001,0
3263,-1.1890617915070232,0
3264,-1.4998498897083148,0
3265,1.4120156653206781,0
3266,-0.7715713066257203,0
3267,0.27499965896822764,0
3268,0.028170155378093698,0
3269,-0.08308952020858622,0
3270,-0.022209087609132688,0
3271,0.004546353573157412,0
3272,0.06408709208042228,0
3273,0.05920429551666726,0
3274,0.03421390644673621,0
3275,0.026752550482020368,0
3276,-0.021689920391995667,0
3277,0.049067721839388706,0
3278,-0.004309797390400641,0
3279,0.03735618375321014,0
3280,0.4489695316622729,0
3281,3.98721635238146,0
3282,6.622101878632295,0
3283,-1.1651164636603746,0
3284,-1.3935480566062406,0
3285,1.2915635941446137,0
3286,-0.7982154100705882,0
3287,0.2193203679021718,0
3288,-0.05760304381972285,0
3289,-0.03861564752636577,0
3290,0.012496910632644792,0
3291,-0.07496195810408322,0
3292,-0.007540454770390437,0
3293,-0.01724893641321898,0
3294,-0.06062220463010898,0
3295,-0.02886834498304755,0
3296,0.008602676423872873,0
3297,-0.0571220368832362,0
3298,-0.04651435489830929,0
3299,0.020536869826306026,0
3300,0.42185237176386436,0
3301,4.08957291537363,0
3302,6.679248149677549,0
3303,-1.1526599586138113,0
3304,-1.436953114663016,0
3305,1.4439245293853384,0
3306,-0.7687273127340828,0
3307,0.27871636222156543,0
3308,-0.01955879305599843,0
3309,-0.02964781559526115,0
3310,0.04897839445026077,0
3311,-0.05026616180788061,0
3312,-0.06382349261994551,0
3313,-0.017617498295547564,0
3314,0.01381569895792497,0
3315,-0.04429900652368077,0
3316,-0.11932913112874496,0
3317,0.010284834171598822,0
3318,-0.0799383442727201,0
3319,0.016019992883299267,0
3320,0.3583016710642984,0
3321,4.0663041891204115,0
3322,6.57739589566122,0
3323,-1.153608978884533,0
3324,-1.5018316778147345,0
3325,1.3796381306046315,0
3326,-0.798105824397614,0
3327,0.22160047021285348,0
3328,-0.070337392140861,0
3329,0.00028755509867108703,0
3330,-0.10490301444410577,0
3331,-0.06874851304126706,0
3332,-0.025202511608412213,0
3333,-0.03168004812147147,0
3334,-0.044599461743051044,0
3335,0.07282124767102947,0
3336,-0.07484046207370237,0
3337,-0.0157339225918,0
3338,-0.0167584111623129,0
3339,0.001178174704146025,0
3340,0.43960356902681447,0
3341,3.9723480032033507,0
3342,6.508366840387799,0
3343,-1.1978021317938572,0
3344,-1.3130909860668767,0
3345,1.3324513810984078,0
3346,-0.8011591573020099,0
3347,0.23348429085417538,0
3348,-0.019519213606645835,0
3349,0.007338622479197789,0
3350,-0.0019232854549083647,0
3351,0.11622465503558153,0
3352,-0.04257574617750991,0
3353,-0.05620440307150464,0
3354,0.006903933831608809,0
3355,0.02059270637010019,0
3356,-0.023632666031844975,0
3357,-0.047980115923774165,0
3358,0.0009089186541050547,0
3359,-0.0982756235924948,0
3360,0.35727038558059426,0
3361,4.079349446408561,0
3362,6.610934757425019,0
3363,-1.1789150186293686,0
3364,-1.4678240723761293,0
3365,1.4011716194493913,0
3366,-0.8255432814285746,0
3367,0.3101279083484011,0
3368,-0.018542749786884805,0
3369,0.17444189978666114,0
3370,0.03679547992384532,0
3371,0.07158186886820685,0
3372,0.06296479737725724,0
3373,0.10204655376078436,0
3374,0.023425389945490288,0
3375,0.031229416069676386,0
3376,0.0982224639619485,0
3377,0.08486265453475615,0
3378,0.023836764815458256,0
3379,0.06767493338270983,0
3380,0.403065338689832,0
3381,4.016971658111417,0
3382,6.7429595324178955,0
3383,-1.1585604144498032,0
3384,-1.4503297606560257,0
3385,1.3870351131692675,0
3386,-0.8408464115981373,0
3387,0.24223931680912766,0
3388,-0.033566970547367896,0
3389,-0.005090297328550077,0
3390,0.05398258003421332,0
3391,-0.02043323804637938,0
3392,-0.040705700591908034,0
3393,-0.03733394499960591,0
3394,0.011322313179193301,0
3395,0.053543896556532765,0
3396,0.03239229678512064,0
3397,0.01831102226188897,0
3398,0.12897662503909374,0
3399,0.05930481790049246,0
3400,0.4346348936099194,0
3401,4.0528090031979165,0
3402,6.685904696487805,0
3403,-1.220847842000061,0
3404,-1.4481774568414247,0
3405,1.4216190913217983,0
3406,-0.7389414256747356,0
3407,0.2409723751305952,0
3408,0.003969514446651112,0
3409,-0.056695056972724395,0
3410,0.1417910099304677,0
3411,0.052452582442515855,0
3412,0.012668611420746118,0
3413,-0.0018483963650068116,0
3414,0.03961784826437678,0
3415,0.08021536512789018,0
3416,-0.01938271444539056,0
3417,-0.0525127145186179,0
3418,0.056627978228237494,0
3419,0.08080994323151004,0
3420,0.48374862945370967,0
3421,4.196541987841566,0
3422,6.661763710815049,0
3423,-1.0988548155588742,0
3424,-1.3939580522989137,0
3425,1.5122950381563334,0
3426,-0.8358193231908275,0
3427,0.2837449411665623,0
3428,0.04880421963885496,0
3429,0.0033223969457266047,0
3430,0.07115037146123505,0
3431,0.023949555893823214,0
3432,0.07462109428164113,0
3433,0.07508688578317352,0
3434,0.013851907332226424,0
3435,0.006984723500703234,0
3436,0.024464529875789256,0
3437,-0.0140802477500603,0
3438,0.051905947121805907,0
3439,-0.003836346888613576,0
3440,0.41139305783055696,0
3441,4.0875141786737315,0
3442,6.606684765265661,0
3443,-1.1705737899951498,0
3444,-1.2638022955006163,0
3445,1.4060721243877974,0
3446,-0.7999005002524071,0
3447,0.24993627381603956,0
3448,0.04997743312677723,0
3449,0.03450521031995875,0
3450,0.006880236861117349,0
3451,-0.03291594440156764,0
3452,0.006299459667564088,0
3453,0.0372940852919539,0
3454,0.005185627983997642,0
3455,0.03328987962147854,0
3456,0.10685367519814153,0
3457,0.09233871336975444,0
3458,0.09991939086000914,0
3459,-0.013954547923868077,0
3460,0.3848685448225707,0
3461,4.136213862989622,0
3462,6.6514454303292965,0
3463,-1.182936531332732,0
3464,-1.4147312462163675,0
3465,1.4886048386941158,0
3466,-0.8209204180808487,0
3467,0.1804381455024362,0
3468,0.06108864354861343,0
3469,-0.009735836721276075,0
3470,0.143166965808268,0
3471,0.10085555389735754,0
3472,-0.07864505338647218,0
3473,0.06006793078665637,0
3474,0.04223834329495701,0
3475,-0.03306218896780998,0
3476,0.0031105523879576408,0
3477,-0.02393925500375972,0
3478,-0.038416881307760886,0
3479,-0.05295854212124006,0
3480,0.41882855268094266,0
3481,4.057311526288308,0
3482,6.619940312848234,0
3483,-1.1454321115119714,0
3484,-1.3818154065178465,0
3485,1.3847916590542004,0
3486,-0.7775096406495595,0
3487,0.2049620181988198,0
3488,-0.05094959304524533,0
3489,0.07245870181491129,0
3490,-0.0022803247631027514,0
3491,0.026701243386875663,0
3492,-0.034515101989223515,0
3493,0.05804137483192027,0
3494,-0.061776536440162816,0
3495,0.005468338284721584,0
3496,-0.07747480084542134,0
3497,0.016622545169925357,0
3498,-0.0338190330479793,0
3499,-0.025009690766903438,0
3500,0.48607958745272656,0
3501,4.113840426102356,0
3502,6.485737144794481,0
3503,-1.0827033973816256,0
3504,-1.409151467330651,0
3505,1.4380079808703399,0
3506,-0.7809393260905466,0
3507,0.2867067971414857,0
3508,-0.062272752515561955,0
3509,-0.04898488610355542,0
3510,-0.10716818396354366,0
3511,-0.011271226825212623,0
3512,-0.031353248053214024,0
3513,0.04816878867155876,0
3514,-0.040787434039278994,0
3515,0.02134243154766693,0
3516,-0.02141958416292256,0
3517,-0.008813540407144759,0
3518,0.052141698439333924,0
3519,-0.013616453309976665,0
3520,0.3891418248561631,0
3521,4.165174089806495,0
3522,6.586421480880779,0
3523,-1.1846367543719678,0
3524,-1.3919552240654096,0
3525,1.3791870704579405,0
3526,-0.9007643581242368,0
3527,0.13770159557669162,0
3528,0.011174544129998139,0
3529,-0.04105839123362569,0
3530,-0.006494444230312054,0
3531,-0.0306611376113378,0
3532,-0.0739382428254379,0
3533,0.022084212330702773,0
3534,0.00777576560108093,0
3535,0.008781480740776894,0
3536,-0.006824692690874048,0
3537,-0.07424826454093375,0
3538,-0.1041391751195643,0
3539,0.015149458542270712,0
3540,0.3800743208684787,0
3541,4.025387547797979,0
3542,6.4990624451928465,0
3543,-1.2076354699536154,0
3544,-1.34238578802483,0
3545,1.3268079272288889,0
3546,-0.8086919455932281,0
3547,0.18885838198108137,0
3548,0.004972826409668542,0
3549,-0.0373464646047795,0
3550,-0.05036570881516416,0
3551,0.029086905291102243,0
3552,0.02758831117910608,0
3553,0.021663434491325607,0
3554,-0.06496450383122848,0
3555,-0.0009840968067334715,0
3556,0.034808305784085475,0
3557,0.027158737280273983,0
3558,0.03797707894018094,0
3559,0.005713662775555671,0
3560,0.3907827710742414,0
3561,4.142307645397474,0
3562,6.501299992079976,0
3563,-1.1570487196024384,0
3564,-1.2824289444273738,0
3565,1.472113698192933,0
3566,-0.8161305467604021,0
3567,0.2174190135246299,0
3568,0.048014942324722455,0
3569,0.06505825075280161,0
3570,0.04435111909634484,0
3571,-0.07434030422022363,0
3572,0.008901584586794874,0
3573,-0.013548822134875349,0
3574,-0.06602224207412377,0
3575,-0.02202846765028577,0
3576,-0.013899368397563507,0
3577,-0.07506680997190987,0
3578,-0.03625359795581093,0
3579,0.017041883884492223,0
3580,0.578815133665877,0
3581,4.118717569483341,0
3582,6.542060689115442,0
3583,-1.1672339157763278,0
3584,-1.3823597655634194,0
3585,1.3986065442663724,0
3586,-0.7892618325435317,0
3587,0.24751273790721431,0
3588,-0.04276278205498611,0
3589,-0.10685215483013982,0
3590,-0.008724287412969912,0
3591,-0.0075549860040350116,0
3592,0.060777046164760054,0
3593,0.05827590672832583,0
3594,0.03902187824420903,0
3595,-0.019720421041863976,0
3596,0.09955980130603603,0
3597,0.01714462210892045,0
3598,0.0386449224029069,0
3599,-0.017335660828801315,0
3600,0.33764675418141116,0
3601,4.197828053953729,0
3602,6.510300498921677,0
3603,-1.185961040257861,0
3604,-1.3846337372518192,0
3605,1.4535512227606395,0
3606,-0.7912531317868405,0
3607,0.2650058687132036,0
3608,-0.07655204621495551,0
3609,-0.0407555385362103,0
3610,0.024227747630565084,0
3611,-0.01736583451870143,0
3612,-0.011263028544555378,0
3613,0.04311290139794874,0
3614,0.06133430941481603,0
3615,0.06908285535693823,0
3616,0.002386327959612416,0
3617,-0.015733240987115583,0
3618,-0.06655104283276425,0
3619,-0.08216572240073769,0
3620,0.3840120403136508,0
3621,4.223731889699734,0
3622,6.466171983822217,0
3623,-1.2900010668111737,0
3624,-1.376254282304099,0
3625,1.4188225923462487,0
3626,-0.7463471534661293,0
3627,0.31148931510756583,0
3628,-0.026365014207503534,0
3629,-0.020214811407504824,0
3630,0.0331967932656285,0
3631,-0.0745207016607986,0
3632,0.05982293239012953,0
3633,0.11055107034105463,0
3634,-0.030203460344785105,0
3635,-0.037774350388295796,0
3636,-0.009521387138501156,0
3637,-0.019074357030260204,0
3638,0.032891562657760394,0
3639,0.002438300191924278,0
3640,0.3971501814754531,0
3641,4.161088241937864,0
3642,6.529803777333257,0
3643,-1.1568869781351943,0
3644,-1.3010136835944923,0
3645,1.4639803320699116,0
3646,-0.8014199610246013,0
3647,0.30547700747866324,0
3648,-0.10859656359111636,0
3649,-0.040783785448249246,0
3650,0.011642226071036068,0
3651,-0.06275584457619009,0
3652,-0.06583789110412253,0
3653,0.05305437530682358,0
3654,0.036876758254289294,0
3655,0.06465508680719069,0
3656,-0.046093549327825,0
3657,-0.010205611213560473,0
3658,-0.015135496335764156,0
3659,0.03279914953787034,0
3660,0.3858854692859893,0
3661,4.120960756449774,0
3662,6.566427004379855,0
3663,-1.2332334310347348,0
3664,-1.3278974551342735,0
3665,1.2949897771015129,0
3666,-0.8280621021001315,0
3667,0.29326794651959565,0
3668,-0.05196152495408259,0
3669,-0.06464831218498991,0
3670,-0.015448727072288953,0
3671,-0.018155580873549574,0
3672,-0.04295594450022187,0
3673,-0.003168997178332751,0
3674,-0.005922761893724933,0
3675,-0.13567151850469478,0
3676,-0.03237844538319472,0
3677,0.00803882036273671,0
3678,-0.005274008949398942,0
3679,-0.012824116354270505,0
3680,0.32457764089776076,0
3681,4.090507673809345,0
3682,6.508790311552181,0
3683,-1.225194583107662,0
3684,-1.3492360738217777,0
3685,1.4733914487969497,0
3686,-0.7138055897276523,0
3687,0.23862764917048215,0
3688,0.03336817293971682,0
3689,0.03562238573249926,0
3690,0.1541089980215499,0
3691,0.07638667797201504,0
3692,0.05068972573410682,0
3693,0.04663352494957221,0
3694,0.11767693294882343,0
3695,0.07282371570606892,0
3696,0.0968241489647918,0
3697,-0.04817002931696028,0
3698,-0.05483526317998388,0
3699,-0.07177274505026972,0
3700,0.42552149401183526,0
3701,4.181383681959228,0
3702,6.481021310198919,0
3703,-1.2526710474915903,0
3704,-1.351487153863957,0
3705,1.315448680399193,0
3706,-0.9270477753540753,0
3707,0.1538292140896243,0
3708,-0.11844054191128396,0
3709,-0.070601567815407,0
3710,-0.0126297534044719,0
3711,-0.039877975002995274,0
3712,-0.004205471792938894,0
3713,-0.07107473713829654,0
3714,-0.009805081538345906,0
3715,0.032594450427510774,0
3716,0.014930000542790887,0
3717,-0.06613964870668354,0
3718,-0.013639128705403656,0
3719,-0.005475819310821894,0
3720,0.3879313879281725,0
3721,4.13486707275969,0
3722,6.530970374966376,0
3723,-1.239109339705661,0
3724,-1.3492595891847627,0
3725,1.432425552355187,0
3726,-0.875781721679657,0
3727,0.19055536641507623,0
3728,-0.13033280527734753,0
3729,-0.17401147023517555,0
3730,-0.12801690063654866,0
3731,-0.10802219866905599,0
3732,-0.07103488893871798,0
3733,-0.022572419906107227,0
3734,-0.07267794287782063,0
3735,0.005898165199810512,0
3736,-0.15273833140106882,0
3737,-0.12643591053930361,0
3738,-0.1322693479093019,0
3739,-0.09823904228872063,0
3740,0.44120533050033556,0
3741,4.159264346615885,0
3742,6.531794668225335,0
3743,-1.2923019303152907,0
3744,-1.4559608005290463,0
3745,1.3664771879218318,0
3746,-0.8832924035745036,0
3747,0.09536082004760324,0
3748,-0.074628705043534,0
3749,-0.03153898155326593,0
3750,-0.11030393816821792,0
3751,-0.10005007712702216,0
3752,-0.09546916017173532,0
3753,-0.06478207298190035,0
3754,-0.10286651747443734,0
3755,-0.013188044158730525,0
3756,-0.06147806616186494,0
3757,-0.03579012002160524,0
3758,-0.10285142727468952,0
3759,-0.08003599669619357,0
3760,0.41196476927937403,0
3761,4.200835870007795,0
3762,6.4509297833443044,0
3763,-1.3815278751012687,0
3764,-1.2941032651651725,0
3765,1.4629527873884194,0
3766,-0.8802051561363573,0
3767,0.2790188206413464,0
3768,-0.05218816616609756,0
3769,-0.06556614081460495,0
3770,-0.005253106507018143,0
3771,-0.04228945696042688,0
3772,-0.0821952855638598,0
3773,-0.033158710439064334,0
3774,0.003924791140928974,0
3775,-0.04389706167639192,0
3776,-0.03930265092864628,0
3777,-0.026598409046606986,0
3778,-0.07816839577627048,0
3779,-0.026972595549323714,0
3780,0.34915143743663724,0
3781,4.126318452846905,0
3782,6.527797102988665,0
3783,-1.3322703920317371,0
3784,-1.4005370229500738,0
3785,1.3823318413064474,0
3786,-0.8325189586457443,0
3787,0.2161533734948353,0
3788,-0.037718693106886414,0
3789,-0.017686728091684333,0
3790,-0.08231841274975761,0
3791,0.0038628364551525907,0
3792,0.005957292089055707,0
3793,-0.0909763838063963,0
3794,-0.06933934241495063,0
3795,-0.023920423574615567,0
3796,-0.02587294775661704,0
3797,-0.13575898091876626,0
3798,-0.04684912024921801,0
3799,-0.07327173567745954,0
3800,0.32764273199287686,0
3801,4.12943731221039,0
3802,6.4855485270205815,0
3803,-1.3509221050420517,0
3804,-1.4385128080748433,0
3805,1.2625458147962303,0
3806,-0.8827620640134256,0
3807,0.10866879007100509,0
3808,-0.042224596162057905,0
3809,-0.012345026168516321,0
3810,-0.035109631561343856,0
3811,-0.09434811558725222,0
3812,-0.12479579086117298,0
3813,0.010225185019060369,0
3814,0.007042900353506194,0
3815,-0.05551059900103984,0
3816,-0.004993977557131518,0
3817,-0.04957168938209006,0
3818,-0.12587687455039875,0
3819,-0.06988097399668669,0
3820,0.41586553241496776,0
3821,4.161021746433608,0
3822,6.381946262012976,0
3823,-1.3523182585405022,0
3824,-1.2741327902803181,0
3825,1.4132350905278608,0
3826,-0.7064811429276262,0
3827,0.1476816614066526,0
3828,-0.0750172723525234,0
3829,-0.10384552902564127,0
3830,-0.007935342414501218,0
3831,0.013940858959926652,0
3832,-0.0779017947380927,0
3833,-0.02704222460198279,0
3834,-0.0016905280243533008,0
3835,-0.07168873028574305,0
3836,0.04440141035402473,0
3837,-0.10409122981122766,0
3838,0.0077006263186518535,0
3839,-0.08867244981413505,0
3840,0.3767055526298309,0
3841,4.275675677524766,0
3842,6.549622737648217,0
3843,-1.2502831203281428,0
3844,-1.2664479684597194,0
3845,1.3769540026228637,0
3846,-0.8957506493810075,0
3847,0.2902133989518536,0
3848,-0.05886231321351891,0
3849,-0.06500926466859747,0
3850,-0.03884359857781104,0
3851,-0.04244529313601541,0
3852,-0.01216447347458861,0
3853,0.03307625507614399,0
3854,-0.004201227427607578,0
3855,0.0020279959871071767,0
3856,0.08824682499070508,0
3857,-0.07013204021999356,0
3858,-0.028829367969868572,0
3859,0.006024898572075173,0
3860,0.4520479478568148,0
3861,4.253714273278669,0
3862,6.451067508891678,0
3863,-1.2567811022973199,0
3864,-1.3448573175313487,0
3865,1.4448070721834803,0
3866,-0.7749551665076733,0
3867,0.21092088397141695,0
3868,0.05329523494930027,0
3869,0.01219017280550097,0
3870,-0.007037681726551587,0
3871,-0.08390274518417634,0
3872,-0.05913578202842275,0
3873,-0.05028874956853936,0
3874,-0.03982935812217647,0
3875,-0.12557476080847016,0
3876,-0.055605474797567334,0
3877,-0.11424819249270762,0
3878,-0.09791658089006951,0
3879,-0.0813758630886658,0
3880,0.33382374270956955,0
3881,4.167554579487789,0
3882,6.599102972341087,0
3883,-1.315244546084407,0
3884,-1.2828859669499175,0
3885,1.5295085618724376,0
3886,-0.7069167123824228,0
3887,0.3244743726502977,0
3888,-0.0033989319343551774,0
3889,0.009391765911280023,0
3890,0.1034663435714551,0
3891,0.08898164629551215,0
3892,0.07115684526155107,0
3893,0.04813386193608374,0
3894,0.17178097339247264,0
3895,0.060965729897886074,0
3896,0.07850937733420452,0
3897,0.09043484851665069,0
3898,-0.0051527648343374505,0
3899,0.10671558198808453,0
3900,0.4625373547175964,0
3901,4.255770291304591,0
3902,6.668103179311324,0
3903,-1.2943982993852714,0
3904,-1.2716028558942083,0
3905,1.3691946554975334,0
3906,-0.8714582022681272,0
3907,0.31572549534293026,0
3908,0.016411996393490495,0
3909,-0.04997114533151768,0
3910,0.025423114387000744,0
3911,-0.036765452663020046,0
3912,0.09362613093131425,0
3913,0.030467486096488958,0
3914,0.07464645771208822,0
3915,-0.023395743792276793,0
3916,0.03676424040066311,0
3917,0.002006023841274289,0
3918,-0.032636660099690865,0
3919,-0.040937940005948706,0
3920,0.4369682115795634,0
3921,4.310820258662048,0
3922,6.466460736589394,0
3923,-1.269813342952108,0
3924,-1.1775633126182297,0
3925,1.4664359430026745,0
3926,-0.6832084160925567,0
3927,0.2600839658981766,0
3928,-0.009741580291950554,0
3929,0.019766695237572657,0
3930,0.05984225012978567,0
3931,-0.025349684987362453,0
3932,0.0019372220124086806,0
3933,-0.06128267622205158,0
3934,0.07891736528736493,0
3935,0.022342463169614142,0
3936,0.0505205415499422,0
3937,0.05967632085237822,0
3938,-0.030211557020055117,0
3939,0.015708632237336567,0
3940,0.46562514510025965,0
3941,4.237568788838589,0
3942,6.622079629874092,0
3943,-1.1957298736700361,0
3944,-1.2491860202802394,0
3945,1.4435665349304956,0
3946,-0.7825990753757059,0
3947,0.33801568987072234,0
3948,0.04158553210952065,0
3949,0.07029038863002701,0
3950,0.05992934670469713,0
3951,0.0981575579799256,0
3952,0.15222107005612137,0
3953,0.029351654849577483,0
3954,0.037914077971128335,0
3955,0.15484327302131504,0
3956,0.08616369585966771,0
3957,0.05163246253528804,0
3958,0.05795906080854386,0
3959,0.10384902207889969,0
3960,0.4145202407188924,0
3961,4.3089282109171565,0
3962,6.4904939287289745,0
3963,-1.295762835219606,0
3964,-1.280556372817517,0
3965,1.3835426981258285,0
3966,-0.6662010784991612,0
3967,0.2435690501583762,0
3968,0.0667965944454762,0
3969,0.039039741166131736,0
3970,0.08149498965200364,0
3971,0.006202386404270184,0
3972,0.09614369767427454,0
3973,0.03315466679196874,0
3974,0.05611211355607434,0
3975,0.056264597917618196,0
3976,-0.016232546376089507,0
3977,0.13476231098738328,0
3978,0.0843514779782617,0
3979,0.11967242701737502,0
3980,0.5591846722052481,0
3981,4.244129544991547,0
3982,6.598461218931866,0
3983,-1.3050311253988514,0
3984,-1.1665402225059798,0
3985,1.4117143764156919,0
3986,-0.6737215263221812,0
3987,0.32230543346637974,0
3988,-0.05686269108694615,0
3989,0.03278178852308725,0
3990,0.0932816523339422,0
3991,0.05329443290887299,0
3992,0.167493988819931,0
3993,0.18745247145592558,0
3994,0.07384552008006383,0
3995,0.07288911182544495,0
3996,0.0852585128986149,0
3997,0.01739014477603583,0
3998,0.08475534741659214,0
3999,-0.0320811625192238,0
4000,0.6053783167356591,0
4001,4.258184932193266,0
4002,6.508437029714235,0
4003,-1.2632475097307425,0
4004,-1.1626446786606948,0
4005,1.3819310780578016,0
4006,-0.7006663035150457,0
4007,0.30966670556928383,0
4008,0.06281305282838243,0
4009,-0.03436403297238686,0
4010,0.03452745000708106,0
4011,0.04462773751990647,0
4012,0.031080017005960317,0
4013,0.05651868413264923,0
4014,0.0184203764439137,0
4015,-0.006969796929534158,0
4016,0.01673343450489497,0
4017,0.08144041431621951,0
4018,0.04075713136967035,0
4019,0.0035100521747153737,0
4020,0.46423123270940314,0
4021,4.314959683758124,0
4022,6.530948865416908,0
4023,-1.2147219530639675,0
4024,-1.1931202904293812,0
4025,1.439877097936118,0
4026,-0.7154668535991331,0
4027,0.3195351431940611,0
4028,0.051904679416654345,0
4029,0.04563797479730979,0
4030,0.11221266826026671,0
4031,0.09614276566578593,0
4032,0.058594752312168624,0
4033,0.1160487054517374,0
4034,0.14226365109534717,0
4035,0.13740100374916506,0
4036,0.0927915110292712,0
4037,0.10577752368231344,0
4038,0.05215157982559916,0
4039,0.08486810334726842,0
4040,0.43706371314080367,0
4041,4.230577002548832,0
4042,6.5522099871267345,0
4043,-1.3270556667410585,0
4044,-1.1870830504331553,0
4045,1.3580405554399266,0
4046,-0.790909593129611,0
4047,0.174543393942225,0
4048,-0.06637500313602263,0
4049,0.03915385726625418,0
4050,0.06558182685032136,0
4051,-0.05553386404821799,0
4052,-0.00466750728775054,0
4053,0.16282088671846218,0
4054,0.027506873365547267,0
4055,0.08041732200181212,0
4056,0.06644930843849552,0
4057,0.13938412796256838,0
4058,0.09457152186796912,0
4059,0.15240484956742756,0
4060,0.47463275493118773,0
4061,4.281002912052929,0
4062,6.5617017001099,0
4063,-1.186817003049359,0
4064,-1.2225611133241803,0
4065,1.4775399750401073,0
4066,-0.808578349752531,0
4067,0.21984823601429618,0
4068,0.011732692711791422,0
4069,0.06188803817249072,0
4070,0.015588724646962294,0
4071,0.001176865473478804,0
4072,0.14298783386048516,0
4073,0.02663620294319598,0
4074,0.05788315741557074,0
4075,0.039645891504851746,0
4076,0.06663194747826431,0
4077,0.05029669286946661,0
4078,0.03634872249374886,0
4079,0.020412357702950586,0
4080,0.4163887381633321,0
4081,4.346878984707997,0
4082,6.515070966087543,0
4083,-1.2873549189883822,0
4084,-1.2560985696919649,0
4085,1.5034248607662741,0
4086,-0.7189816688227617,0
4087,0.267112855550508,0
4088,0.01378791861617293,0
4089,-0.015912298947155096,0
4090,0.09261373325524941,0
4091,0.11866262684830511,0
4092,-0.06263303363917785,0
4093,0.0349590359154185,0
4094,-0.03583702407194173,0
4095,0.06942603273279803,0
4096,0.026205421100160716,0
4097,-0.021824108170540216,0
4098,0.07183903706635358,0
4099,-0.05633624146867602,0
4100,0.48492602917174354,0
4101,4.239186222058044,0
4102,6.489769369836786,0
4103,-1.3346227620239488,0
4104,-1.2558424129745822,0
4105,1.4766007157653376,0
4106,-0.8285995230320806,0
4107,0.30667972517608666,0
4108,0.04249248542527571,0
4109,-0.010894950447859014,0
4110,-0.05831192645212087,0
4111,-0.028493379090350754,0
4112,0.026692848617763512,0
4113,-0.04798181740969994,0
4114,0.04189410078765815,0
4115,-0.0344272999578084,0
4116,0.003123124624549678,0
4117,-0.0670933406519935,0
4118,-0.13533319822895057,0
4119,-0.0718702769636871,0
4120,0.4868060386934331,0
4121,4.182285604120173,0
4122,6.538145122752323,0
4123,-1.3300236663693934,0
4124,-1.3197065787027362,0
4125,1.3821631181962877,0
4126,-0.7663501279992444,0
4127,0.29314228813997495,0
4128,0.022705785526421805,0
4129,0.016597947026517165,0
4130,0.10958482183086615,0
4131,0.029706390419921812,0
4132,-0.025892120141564008,0
4133,0.026069617319132966,0
4134,-0.031775949698954725,0
4135,0.040437289260381475,0
4136,0.08306987704678623,0
4137,0.14419114048341947,0
4138,0.14558721767546345,0
4139,-0.01339729976548287,0
4140,0.4564061535842589,0
4141,4.236941284318102,0
4142,6.5215101400734765,0
4143,-1.2982147660315118,0
4144,-1.2957287902508252,0
4145,1.4023596524748725,0
4146,-0.8230311511870017,0
4147,0.3214143276921682,0
4148,0.0033165774132957737,0
4149,-0.018505317482047527,0
4150,0.039017855335293325,0
4151,0.013248451338159169,0
4152,0.03239562611287547,0
4153,-0.06454881112729086,0
4154,-0.0209185016992708,0
4155,-0.07361353320557196,0
4156,0.028364740184221242,0
4157,-0.04603170309936664,0
4158,0.010030455671812079,0
4159,-0.039691450110073016,0
4160,0.3799042055116004,0
4161,4.140631860009502,0
4162,6.374140499099282,0
4163,-1.3749483332852117,0
4164,-1.2261691695441335,0
4165,1.3072297810564548,0
4166,-0.807382565418782,0
4167,0.11902952915327894,0
4168,-0.07064792097771158,0
4169,0.04785017106895371,0
4170,0.005074094547809372,0
4171,-0.017147010989404285,0
4172,-0.026006870654371163,0
4173,-0.04700241362159089,0
4174,-0.05305912858385076,0
4175,-0.03331501833788077,0
4176,-0.05480975811622525,0
4177,-0.04716863843326736,0
4178,-0.0019908459148164914,0
4179,0.04465935050374865,0
4180,0.40927531857023364,0
4181,4.255942508257596,0
4182,6.433228592184813,0
4183,-1.3451194562528344,0
4184,-1.3032128562939778,0
4185,1.3054700820642293,0
4186,-0.8230127261139101,0
4187,0.2686760089119026,0
4188,-0.13362465119248446,0
4189,-0.03218763682402566,0
4190,-0.05554966285047847,0
4191,0.021932690396402908,0
4192,-0.08499214451019906,0
4193,-0.0376863688170965,0
4194,-0.07013583505439633,0
4195,-0.04946252977258146,0
4196,-0.029267871606939326,0
4197,-0.0033864542405161596,0
4198,-0.06754916026187346,0
4199,0.013775941862891963,0
4200,0.5174433569837427,0
4201,4.248541408476272,0
4202,6.485375862168618,0
4203,-1.3478297214493788,0
4204,-1.2790683443012938,0
4205,1.233808485586267,0
4206,-0.7849035123920723,0
4207,0.20142712515781272,0
4208,-0.06508476551040264,0
4209,-0.1044461307965007,0
4210,-0.03735595535684192,0
4211,-0.09080743810397662,0
4212,-0.07559603090688984,0
4213,0.016448713363615503,0
4214,-0.00630265220749137,0
4215,0.016082543979034247,0
4216,-0.05996317779820798,0
4217,-0.042378402904594485,0
4218,0.003582293247703039,0
4219,-0.07522139472495247,0
4220,0.4144075561748198,0
4221,4.265067662746441,0
4222,6.38508933146011,0
4223,-1.3937380539799638,0
4224,-1.2279913406069072,0
4225,1.4236931339175658,0
4226,-0.7697235955051565,0
4227,0.2647541855956041,0
4228,-0.016211014798097823,0
4229,-0.08886185170492622,0
4230,-0.0002679294744149345,0
4231,0.009626555203344461,0
4232,0.045017592326630766,0
4233,0.0009697070344868025,0
4234,0.010977323435078911,0
4235,-0.06286187393464998,0
4236,-0.08195775890440635,0
4237,-0.04391890043045535,0
4238,0.03244692680313008,0
4239,-0.0038752991138099185,0
4240,0.4183520648039074,0
4241,4.2584520824333785,0
4242,6.435012285697998,0
4243,-1.42949740220268,0
4244,-1.221482573589479,0
4245,1.3346542204888392,0
4246,-0.8529596785767939,0
4247,0.11396872217813851,0
4248,-0.0457511903640203,0
4249,-0.024664509830854414,0
4250,0.02223750546864669,0
4251,0.028027457571896307,0
4252,-0.02249115284652966,0
4253,-0.02389131491849935,0
4254,-0.022188556606649555,0
4255,0.022689631847483606,0
4256,-0.07989480889931803,0
4257,-0.05453300898266695,0
4258,-0.10346410953177071,0
4259,-0.07456925878816473,0
4260,0.334913374041157,0
4261,4.25514991542317,0
4262,6.40442439911695,0
4263,-1.37885441668826,0
4264,-1.2798345779130607,0
4265,1.2934752081865848,0
4266,-0.8394447266385692,0
4267,0.20300306942730179,0
4268,-0.06640231588074118,0
4269,-0.0017541652267111588,0
4270,0.0500164494425825,0
4271,-0.037274291717865504,0
4272,-0.07253306154517167,0
4273,0.0033193553165546535,0
4274,-0.03552574594161524,0
4275,-0.03084410725460497,0
4276,-0.08214019501147682,0
4277,-0.06528126899385278,0
4278,-0.10188965780661313,0
4279,-0.04896313032642537,0
4280,0.5059842648575886,0
4281,4.298905845372998,0
4282,6.415288530154606,0
4283,-1.375578930633581,0
4284,-1.2909575864868112,0
4285,1.340967774549233,0
4286,-0.8070917956006612,0
4287,0.1809398639785177,0
4288,-0.02782862865809161,0
4289,-0.09934314356900154,0
4290,-0.10834174084027332,0
4291,-0.09187657800784617,0
4292,-0.17321828165363318,0
4293,-0.014881477576334859,0
4294,-0.04115995000226405,0
4295,-0.08871423600582325,0
4296,-0.0065685018055723216,0
4297,-0.0018886149789964363,0
4298,-0.08203337219351234,0
4299,-0.11298514053764794,0
4300,0.4058720027845888,0
4301,4.21822713692655,0
4302,6.481204199466339,0
4303,-1.4314913748375422,0
4304,-1.2070486001231822,0
4305,1.3803757527017222,0
4306,-0.874639189024606,0
4307,0.27585919871610487,0
4308,0.012629650807217924,0
4309,0.03556205320269122,0
4310,0.050036339951822224,0
4311,-0.04557811779284161,0
4312,-0.0713707295254875,0
4313,-0.047483568046966025,0
4314,-0.06506666604458715,0
4315,-0.03258011988143533,0
4316,-0.03280344354173628,0
4317,-0.07266031489349108,0
4318,0.007454906366580857,0
4319,0.06094756120484643,0
4320,0.4695760713965302,0
4321,4.268101978351505,0
4322,6.533968525024281,0
4323,-1.4299112988809772,0
4324,-1.184271487894217,0
4325,1.3095772234003034,0
4326,-0.8224664515544735,0
4327,0.2631898426870789,0
4328,-0.04277653187442501,0
4329,-0.038056055030134234,0
4330,-0.02853463148538688,0
4331,0.03052926792348984,0
4332,-0.013110377644654518,0
4333,-0.0608164183210642,0
4334,0.016556457485950447,0
4335,-0.0011044620308146725,0
4336,0.12989913385351184,0
4337,0.0237073253177063,0
4338,0.06548568760206744,0
4339,-0.006749915851509424,0
4340,0.4711961856629272,0
4341,4.302015168026706,0
4342,6.448275566651144,0
4343,-1.4637145975009913,0
4344,-1.1670947151338804,0
4345,1.365134451763519,0
4346,-0.8085964953133562,0
4347,0.2772614710283633,0
4348,0.00903800179229839,0
4349,-0.1545717629208147,0
4350,-0.043866821491700944,0
4351,0.03697666183962283,0
4352,0.07507408227637045,0
4353,0.006468875723579608,0
4354,0.08519303366034685,0
4355,-0.03145522425054301,0
4356,0.08304448540498889,0
4357,0.03141355387698078,0
4358,0.013496960080427809,0
4359,0.07176194740373443,0
4360,0.5305159080530764,0
4361,4.450808855313946,0
4362,6.537689288046486,0
4363,-1.4408315221713848,0
4364,-1.1749236688641413,0
4365,1.4055043141223238,0
4366,-0.7691033290398345,0
4367,0.24751625830797422,0
4368,-0.024962719820517912,0
4369,0.1009330907705854,0
4370,0.07107977122196078,0
4371,0.0026940037540368433,0
4372,-0.007933401375916234,0
4373,-0.0386216895532067,0
4374,0.012046041475573154,0
4375,0.002932554770888102,0
4376,0.009805852785434131,0
4377,5.270084587570599e-06,0
4378,-0.008889185776863673,0
4379,0.02992570055295403,0
4380,0.4221029983780397,0
4381,4.303739965839293,0
4382,6.429164622984761,0
4383,-1.391319149663132,0
4384,-1.226083347637817,0
4385,1.4118342739959906,0
4386,-0.7686157533318667,0
4387,0.2491296556335494,0
4388,0.013974026663936677,0
4389,-0.035483631951786936,0
4390,6.85076075688032e-05,0
4391,-0.02088803091574248,0
4392,0.05202423227713712,0
4393,-0.054348149915502325,0
4394,-0.028924740881321104,0
4395,0.0538184873984368,0
4396,-0.05374032845573856,0
4397,0.02825918597498194,0
4398,0.021062812979754302,0
4399,0.027614039479878328,0
4400,0.45003842156619256,0
4401,4.375101019104157,0
4402,6.48113132587485,0
4403,-1.4023944134486241,0
4404,-1.0680430819176348,0
4405,1.367231142037761,0
4406,-0.8089053162619074,0
4407,0.27943521500194535,0
4408,0.047502038268803545,0
4409,0.01128369292227642,0
4410,0.0042529876367173765,0
4411,0.05305393856199652,0
4412,-0.02494085769229574,0
4413,-0.044103591188955585,0
4414,0.06661791610206085,0
4415,0.02050230688560161,0
4416,0.09226323316373712,0
4417,0.024776361585262682,0
4418,-0.018715365394995725,0
4419,0.03486143057285861,0
4420,0.4775423376314003,0
4421,4.286315153343126,0
4422,6.433997031659054,0
4423,-1.3851767929895082,0
4424,-1.2241912791798142,0
4425,1.4652353380628294,0
4426,-0.823946300763086,0
4427,0.31235535792444846,0
4428,-0.10373349655052458,0
4429,-0.10118669359274679,0
4430,0.0005676536553850774,0
4431,-0.0749156063763256,0
4432,-0.037454267463041674,0
4433,-0.053357512791395834,0
4434,-0.09506661257808888,0
4435,-0.07808357530840353,0
4436,-0.046211814825279966,0
4437,-0.006059464586581592,0
4438,0.027471492883008965,0
4439,0.08725672183481605,0
4440,0.48079084842469255,0
4441,4.2924342674372795,0
4442,6.473823253084478,0
4443,-1.2984475336080985,0
4444,-1.1196022668425012,0
4445,1.3484052670003317,0
4446,-0.8830149681121734,0
4447,0.23664483571291284,0
4448,0.10220074735227311,0
4449,-0.06378908269029894,0
4450,-0.00533634898923906,0
4451,-0.12736525499109924,0
4452,-0.08825077314899318,0
4453,-0.03907291983328605,0
4454,-0.039487960402637065,0
