timestamp,value-0,is_anomaly
0,0.3656819473899703,0.0
1,3.6760591187871734,0.0
2,6.969742805254058,0.0
3,-0.25026568254775233,0.0
4,-1.8354917060155325,0.0
5,1.616784921735713,0.0
6,-0.6753665954809787,0.0
7,0.08086237055398965,0.0
8,0.10283971447981644,0.0
9,-0.06670240831691585,0.0
10,-0.028121603849789567,0.0
11,0.022013757549614394,0.0
12,-0.005583215907708536,0.0
13,0.04592518050258838,0.0
14,-0.060020353968961146,0.0
15,-0.07893611658347062,0.0
16,-0.03864673696795837,0.0
17,-0.005365941302862793,0.0
18,-0.03154236294125626,0.0
19,-0.03858060417912798,0.0
20,0.23763335768509636,0.0
21,3.4657820905215386,0.0
22,6.860473832536411,0.0
23,-0.18754608171511014,0.0
24,-1.992004929875063,0.0
25,1.5677584105584506,0.0
26,-0.7056553561254628,0.0
27,0.04405009977738081,0.0
28,0.03596769263902013,0.0
29,-0.05712927061973087,0.0
30,0.14939891386388943,0.0
31,-0.0571021899113181,0.0
32,-0.08953074146628963,0.0
33,-0.1579884427370815,0.0
34,0.0400183437057123,0.0
35,-0.04306930480434891,0.0
36,-0.02086502526939218,0.0
37,-0.05452925368753653,0.0
38,0.0042794406569910525,0.0
39,0.11122583102069557,0.0
40,0.3284707464889258,0.0
41,3.5817224319940335,0.0
42,6.833504134921717,0.0
43,-0.25914696148199373,0.0
44,-1.9520697693162454,0.0
45,1.4720614547763884,0.0
46,-0.788366926890366,0.0
47,0.16774767841709165,0.0
48,0.034155739047906496,0.0
49,0.07349259107862996,0.0
50,0.015321739881233337,0.0
51,-0.059964303311265066,0.0
52,0.013954638019033483,0.0
53,0.055791756426793015,0.0
54,-0.01632088195491699,0.0
55,0.025038721785725068,0.0
56,0.006167456795145597,0.0
57,0.017124774601654406,0.0
58,0.029475526651030502,0.0
59,0.12706146020993672,0.0
60,0.3175184276894081,0.0
61,3.5427569916416957,0.0
62,6.876159535434312,0.0
63,-0.26169613308962625,0.0
64,-1.9870645999127439,0.0
65,1.5361298590909054,0.0
66,-0.7757324481183107,0.0
67,0.04078855647526321,0.0
68,0.09291152465658234,0.0
69,-0.11524291756960882,0.0
70,0.012836184914823256,0.0
71,0.02163692421191417,0.0
72,-0.019915702685631895,0.0
73,-0.05186377166104689,0.0
74,-0.08032849729959679,0.0
75,0.051345265388942,0.0
76,0.036178479582743964,0.0
77,-0.029300743527248506,0.0
78,-0.01814675261092069,0.0
79,-0.031032092696387965,0.0
80,0.28613122265236346,0.0
81,3.5670903888225816,0.0
82,6.9067844928206314,0.0
83,-0.28498180274944,0.0
84,-1.9104213493950866,0.0
85,1.5436513492893622,0.0
86,-0.6660671162060106,0.0
87,0.20311451657329993,0.0
88,0.07003192867952492,0.0
89,0.032200908128571744,0.0
90,0.06901510867265163,0.0
91,0.004119573242716043,0.0
92,-0.03447498297719612,0.0
93,0.015452798826478015,0.0
94,0.057329026117696295,0.0
95,0.0270772719604503,0.0
96,0.05256438665281117,0.0
97,0.10873534841397225,0.0
98,0.10690387103892857,0.0
99,0.02115178396702902,0.0
100,0.376156194580247,0.0
101,3.517052833081331,0.0
102,6.876995121974748,0.0
103,-0.21373142727543284,0.0
104,-1.9122706279507942,0.0
105,1.5838384313670357,0.0
106,-0.6492252740994187,0.0
107,0.14620236690058602,0.0
108,0.048299165398853705,0.0
109,-0.0535811742614225,0.0
110,0.026547287377606435,0.0
111,-0.06276891848082727,0.0
112,0.03595753025976897,0.0
113,-0.07575075339960437,0.0
114,-0.037088344435258484,0.0
115,-0.021462276975839543,0.0
116,-0.0022889256213871785,0.0
117,-0.037398319342628175,0.0
118,0.0019844329033912624,0.0
119,-0.1430455315214273,0.0
120,0.3005780633238821,0.0
121,3.455641682318938,0.0
122,6.805680644989217,0.0
123,-0.3535893914300672,0.0
124,-1.974818349493845,0.0
125,1.5850638384869524,0.0
126,-0.6796039245331638,0.0
127,0.13952259671677314,0.0
128,0.09185450957375427,0.0
129,-0.10518317937813158,0.0
130,0.08849127177057148,0.0
131,0.006023805772683407,0.0
132,0.0769572630105977,0.0
133,0.03354738922651575,0.0
134,-0.027345535797919943,0.0
135,0.10487381160945014,0.0
136,-0.099693813287618,0.0
137,0.05242900980590695,0.0
138,0.1262367512814711,0.0
139,0.003003141505615186,0.0
140,0.36339233453304814,0.0
141,3.5202957011478015,0.0
142,6.993340991942753,0.0
143,-0.2698830131166667,0.0
144,-1.9529407866452475,0.0
145,1.5195615259625181,0.0
146,-0.6850507955725919,0.0
147,0.1694366320394226,0.0
148,-0.028921279999412727,0.0
149,0.045920342183775956,0.0
150,0.12354902297894879,0.0
151,-0.01828445054647552,0.0
152,0.20124264092570113,0.0
153,0.02131822995149122,0.0
154,0.04133256296970353,0.0
155,-0.09238294699363825,0.0
156,0.012971061399740944,0.0
157,0.018628151408488003,0.0
158,-0.024633079113478496,0.0
159,-0.04471268430799808,0.0
160,0.28546143404193586,0.0
161,3.4587152039421993,0.0
162,6.845576958866469,0.0
163,-0.30479097161326163,0.0
164,-1.9983896365839278,0.0
165,1.533739246109268,0.0
166,-0.8120555583538623,0.0
167,0.10994644777200381,0.0
168,0.03710887885964993,0.0
169,-0.030139818576983626,0.0
170,0.07343847589168967,0.0
171,0.029894032645288938,0.0
172,-0.09106137189772073,0.0
173,-0.056682882501112766,0.0
174,-0.038690498215508726,0.0
175,0.06634397551024082,0.0
176,-0.03987234788410029,0.0
177,-0.06369721526857577,0.0
178,0.004957901790395198,0.0
179,0.032424837313529076,0.0
180,0.22051868689866433,0.0
181,3.5814009399914557,0.0
182,6.940240829644955,0.0
183,-0.3051060192743529,0.0
184,-1.9312215854626391,0.0
185,1.6837909473233272,0.0
186,-0.6843378960757871,0.0
187,0.09660210913348849,0.0
188,0.11822418005979493,0.0
189,-0.007332796076151471,0.0
190,0.059461619205211015,0.0
191,0.07485477595528858,0.0
192,-0.019247232499486268,0.0
193,0.07987612339367273,0.0
194,0.05094415385475125,0.0
195,0.11761194510096762,0.0
196,0.07615357653576997,0.0
197,0.035365990024191454,0.0
198,0.06851767121648843,0.0
199,0.028230737126692412,0.0
200,0.2835405932978435,0.0
201,3.6514640813202215,0.0
202,6.786735856804561,0.0
203,-0.31395999444684997,0.0
204,-1.9848449315302117,0.0
205,1.585899076442562,0.0
206,-0.6693931690271615,0.0
207,0.11184284253421858,0.0
208,0.04740053072630442,0.0
209,-0.03661454363486885,0.0
210,-0.059158106531812416,0.0
211,-0.06029752875157763,0.0
212,-0.11511134696295164,0.0
213,-0.008390469719796727,0.0
214,0.02286878627531131,0.0
215,-0.037696924298283946,0.0
216,-0.027961353327969164,0.0
217,0.035947604508487656,0.0
218,-0.005217078179969014,0.0
219,0.02396392072891717,0.0
220,0.35940531047231633,0.0
221,3.500344041933475,0.0
222,6.802972779289324,0.0
223,-0.32592959338391475,0.0
224,-1.8432839730629207,0.0
225,1.7053915480528212,0.0
226,-0.7423298038072922,0.0
227,0.10635026448286644,0.0
228,0.16380803747652817,0.0
229,0.003994446272418052,0.0
230,0.10842244654744809,0.0
231,0.11126314323625852,0.0
232,0.1541084916661203,0.0
233,0.04181872587628381,0.0
234,0.15235764793840523,0.0
235,0.046379414147664326,0.0
236,0.067151007894067,0.0
237,0.00679348403216345,0.0
238,0.029929833807696794,0.0
239,-0.015964013355213164,0.0
240,0.28002570973889734,0.0
241,3.5596824067150186,0.0
242,6.850600882606931,0.0
243,-0.342867480196398,0.0
244,-1.965013384677405,0.0
245,1.5413727249041513,0.0
246,-0.694669209594047,0.0
247,0.0850776361931488,0.0
248,0.08031208965509652,0.0
249,-0.11831214566314516,0.0
250,0.02711172047708613,0.0
251,-0.009569442168298971,0.0
252,0.01901712623888483,0.0
253,0.014030473280959837,0.0
254,0.05163871737669795,0.0
255,0.02133739663295486,0.0
256,0.03841135654325413,0.0
257,0.034485921436153845,0.0
258,0.012890848883233556,0.0
259,-0.04957778479111968,0.0
260,0.32082890226537303,0.0
261,3.549958977256422,0.0
262,6.798752671192801,0.0
263,-0.2914001825162075,0.0
264,-1.901465473386461,0.0
265,1.6445199986894268,0.0
266,-0.7258877522010037,0.0
267,0.13165069238008226,0.0
268,0.11131136909830541,0.0
269,0.02988339981460223,0.0
270,-0.002794496467589787,0.0
271,-0.06333997636084723,0.0
272,0.016873872558878827,0.0
273,0.032370765370188105,0.0
274,-0.0193526089729582,0.0
275,-0.08352899121299391,0.0
276,-0.03062633497576827,0.0
277,0.06992980139673899,0.0
278,0.03046255150321035,0.0
279,-0.06264051456223745,0.0
280,0.2715822601521662,0.0
281,3.548974318679567,0.0
282,6.885973314063879,0.0
283,-0.3189098536116656,0.0
284,-1.8888645373451245,0.0
285,1.5128365658954335,0.0
286,-0.7641395055709644,0.0
287,0.03935154863007349,0.0
288,-0.021655754479840625,0.0
289,-0.10915063173435859,0.0
290,0.010767440961029322,0.0
291,-0.043050770231935286,0.0
292,-0.11198847460623049,0.0
293,-0.06655636946870165,0.0
294,0.049786097978289055,0.0
295,0.03381567640609035,0.0
296,-0.04742150129867863,0.0
297,-0.09198476273072329,0.0
298,-0.12990573255289492,0.0
299,-0.07327020767409956,0.0
300,0.2556272623658391,0.0
301,3.4078231777091696,0.0
302,6.826806811648683,0.0
303,-0.37549984298050015,0.0
304,-1.9396831806428378,0.0
305,1.6275371209119176,0.0
306,-0.7064818460186887,0.0
307,0.19563699419744357,0.0
308,0.018131684497849597,0.0
309,-0.10664769336623336,0.0
310,-0.04853607285025613,0.0
311,-0.07569321962697217,0.0
312,-0.06094017823899541,0.0
313,0.02368040447166354,0.0
314,0.02464577416518481,0.0
315,-0.07862161558153899,0.0
316,-0.0845465310237115,0.0
317,0.10904949685068174,0.0
318,0.01219512933823804,0.0
319,-0.09534518391442962,0.0
320,0.2897156351182346,0.0
321,3.535735862063955,0.0
322,6.843580464431498,0.0
323,-0.2541028802882462,0.0
324,-1.9170832768754467,0.0
325,1.5100311838289457,0.0
326,-0.7301766299893045,0.0
327,0.13502853185383576,0.0
328,0.08305028668477116,0.0
329,-0.09544654296979288,0.0
330,0.02323156171951449,0.0
331,0.030945389066366527,0.0
332,-0.04331233952356969,0.0
333,0.0160257796238236,0.0
334,0.019911068041207534,0.0
335,-0.0314129851614956,0.0
336,0.015329230517633494,0.0
337,0.057852039420734094,0.0
338,-0.0329318176689862,0.0
339,-0.05721075844787095,0.0
340,0.17702359808648194,0.0
341,3.5102524633056778,0.0
342,6.865840456814759,0.0
343,-0.4149928806649593,0.0
344,-1.9882897158563544,0.0
345,1.534637337795323,0.0
346,-0.7895327590885775,0.0
347,0.055269663970515796,0.0
348,-0.06792919278558279,0.0
349,-0.08692997767335088,0.0
350,-0.006500570759082232,0.0
351,-0.14386621083182555,0.0
352,-0.02228457818156528,0.0
353,-0.06496494438966821,0.0
354,0.010605659605857399,0.0
355,-0.027317404424281617,0.0
356,0.004442964304143407,0.0
357,0.0855685272902919,0.0
358,0.013354455798785022,0.0
359,-0.014661906126163752,0.0
360,0.24973436579977365,0.0
361,3.530332214521899,0.0
362,6.870975798057645,0.0
363,-0.2667396129551107,0.0
364,-1.929021533869847,0.0
365,1.6240390366672552,0.0
366,-0.7273261510216215,0.0
367,0.15469283703308245,0.0
368,-0.0394878080385241,0.0
369,-0.09442181925859924,0.0
370,0.06740310251839594,0.0
371,-0.04688879004540805,0.0
372,0.0065691544704997926,0.0
373,0.011886606818689137,0.0
374,0.047035485366568514,0.0
375,0.01091835511432123,0.0
376,-0.028010007505756145,0.0
377,0.04430000098529223,0.0
378,-0.051042454147440505,0.0
379,-0.03503974343344969,0.0
380,0.21029213897359575,0.0
381,3.589432245315438,0.0
382,6.876288164508869,0.0
383,-0.38017266270981903,0.0
384,-1.873282655172649,0.0
385,1.5634386891666858,0.0
386,-0.6821015623708366,0.0
387,0.07281792508734829,0.0
388,0.043198638399406145,0.0
389,-0.01605205731470554,0.0
390,0.00910218066827436,0.0
391,-0.05916025319123619,0.0
392,-0.015294405411681327,0.0
393,-0.08180616372864252,0.0
394,-0.042460945782740074,0.0
395,0.11355150816221021,0.0
396,0.08943858213675371,0.0
397,-0.015079445666539628,0.0
398,0.02699517531133529,0.0
399,-0.13483386485191526,0.0
400,0.2781473920192902,0.0
401,3.5393587319527264,0.0
402,6.84716900363538,0.0
403,-0.22147185510122505,0.0
404,-1.9054669979194958,0.0
405,1.5735680739817974,0.0
406,-0.7892461220516558,0.0
407,0.12411241743307853,0.0
408,0.0116806753118724,0.0
409,-0.07536488320597454,0.0
410,0.06316520922283697,0.0
411,-0.05608592537179653,0.0
412,-0.09905555068492503,0.0
413,-0.00974887479320093,0.0
414,0.09518230195127476,0.0
415,0.018078485052342767,0.0
416,-0.015403721131913788,0.0
417,-0.11514346380209148,0.0
418,0.029464105548902164,0.0
419,-0.0010591129210701326,0.0
420,0.30454199323060543,0.0
421,3.4867689737876404,0.0
422,6.748368767547692,0.0
423,-0.3913939692622453,0.0
424,-1.8654737109094943,0.0
425,1.51917632114641,0.0
426,-0.745572381271268,0.0
427,0.06376223882091402,0.0
428,0.004700927158459774,0.0
429,-0.02561138583959399,0.0
430,0.07666964366457596,0.0
431,0.023424206067545257,0.0
432,-0.08515166274275729,0.0
433,0.06896798571575206,0.0
434,-0.022512856701556616,0.0
435,0.007302793156288667,0.0
436,0.062473758547032014,0.0
437,0.03537896991391554,0.0
438,0.01797946052355294,0.0
439,0.0279720836883799,0.0
440,0.3085539689623646,0.0
441,3.5279467427821025,0.0
442,6.796803464514405,0.0
443,-0.4078397545596795,0.0
444,-1.8829538876155176,0.0
445,1.5050464512989512,0.0
446,-0.7486131860381312,0.0
447,0.15581838265922782,0.0
448,-0.046142842973702775,0.0
449,-0.13113882037988905,0.0
450,0.006942979456081598,0.0
451,-0.05021300366498016,0.0
452,-0.04456443673454358,0.0
453,0.0067681292733892395,0.0
454,-0.10222123547599926,0.0
455,-0.04212183863294841,0.0
456,-0.005355596763220533,0.0
457,-0.0718366102473353,0.0
458,0.03748238757129466,0.0
459,0.02113711295004399,0.0
460,0.3089527387316741,0.0
461,3.680523614385923,0.0
462,6.92655245376749,0.0
463,-0.4244809573357371,0.0
464,-1.901866386590733,0.0
465,1.482303366700975,0.0
466,-0.716258887600479,0.0
467,0.1403094722597115,0.0
468,-0.011631491538610133,0.0
469,-0.05264749099119383,0.0
470,0.05339462054693805,0.0
471,0.023021798424505035,0.0
472,0.025971189606383678,0.0
473,0.07882837273813047,0.0
474,-0.03530269915927037,0.0
475,0.04349657548397317,0.0
476,0.07562288842389654,0.0
477,-0.003544224847233785,0.0
478,0.09640100430412572,0.0
479,0.008438999598439221,0.0
480,0.38274373135448125,0.0
481,3.519721947368399,0.0
482,6.874917535073857,0.0
483,-0.2985389619391365,0.0
484,-1.787595109935319,0.0
485,1.60313227784342,0.0
486,-0.6923494399655794,0.0
487,0.09978252954441925,0.0
488,0.08439015581834655,0.0
489,-0.04014659298629944,0.0
490,-0.10701983849224493,0.0
491,0.059537166095931834,0.0
492,-0.0430887342979097,0.0
493,0.008396042960487356,0.0
494,-0.05550895562308985,0.0
495,-0.01034327102222576,0.0
496,-0.014125038102752533,0.0
497,0.0011114375326148791,0.0
498,-0.09105533908156582,0.0
499,-0.022413276499714235,0.0
500,0.23212945993969228,0.0
501,3.5205387757011404,0.0
502,6.795117370222858,0.0
503,-0.39667745918189407,0.0
504,-1.9187680057100271,0.0
505,1.6299802439197002,0.0
506,-0.7338606092529144,0.0
507,0.09927481004848678,0.0
508,-0.03257168109685187,0.0
509,-0.08189293542379192,0.0
510,-0.0586714043062944,0.0
511,0.037923450738151857,0.0
512,-0.015288781330983261,0.0
513,-0.05895120513892618,0.0
514,-0.12300770126338852,0.0
515,-0.03852525147529944,0.0
516,0.035556176484371475,0.0
517,0.007465856544381928,0.0
518,0.013684508749529117,0.0
519,0.030709001534876677,0.0
520,0.3952238203049007,0.0
521,3.517783649311881,0.0
522,6.8764098043440915,0.0
523,-0.3782335698130208,0.0
524,-1.850022893164805,0.0
525,1.5879336441887246,0.0
526,-0.633920083036273,0.0
527,0.22060513790814118,0.0
528,0.06596799041453683,0.0
529,-0.010870575934507173,0.0
530,-0.02185098600783511,0.0
531,0.03215137079507955,0.0
532,-0.07553808014227958,0.0
533,-0.0005999166565441791,0.0
534,-0.022573317878448365,0.0
535,-0.011465811693410011,0.0
536,-0.05581791129337403,0.0
537,0.06302418563142055,0.0
538,0.08840194185620194,0.0
539,0.0740715943961831,0.0
540,0.29086016935317305,0.0
541,3.4951595849055983,0.0
542,6.811164702676067,0.0
543,-0.47126977985084,0.0
544,-1.9076131758801913,0.0
545,1.5893527695691807,0.0
546,-0.7078484607953398,0.0
547,0.09664270617085147,0.0
548,0.008537736130000993,0.0
549,-0.07169311280505043,0.0
550,-0.02659411870946442,0.0
551,0.016853526639526467,0.0
552,-0.08314310939477965,0.0
553,-0.013233554926575145,0.0
554,0.11414496953090383,0.0
555,-0.09344784574005006,0.0
556,-0.016519605485183504,0.0
557,0.06107383448225047,0.0
558,-0.008024021143174586,0.0
559,-0.02457863043902618,0.0
560,0.24022529307770438,0.0
561,3.6422082275992596,0.0
562,6.796998239497024,0.0
563,-0.38684282685935095,0.0
564,-1.8923325345655269,0.0
565,1.53568580082736,0.0
566,-0.6511933983533067,0.0
567,0.07841529500998924,0.0
568,0.0013235372757709318,0.0
569,-0.059206805443898815,0.0
570,-0.04156662252675024,0.0
571,0.013031337770568311,0.0
572,0.001522014430458631,0.0
573,-0.03461852326199893,0.0
574,-0.04726039789535352,0.0
575,-0.003985734302942008,0.0
576,0.0033511789066983395,0.0
577,-0.0699792191567016,0.0
578,-0.016043326215559525,0.0
579,-0.0479622522370528,0.0
580,0.3003692102745733,0.0
581,3.5848727902484354,0.0
582,6.908686346798857,0.0
583,-0.4201474692820004,0.0
584,-1.868532864868515,0.0
585,1.5729517891856744,0.0
586,-0.7527902642383092,0.0
587,0.22382146533635566,0.0
588,0.1557868535896844,0.0
589,0.0010789305618215464,0.0
590,0.07713917709612189,0.0
591,-0.060428432473957086,0.0
592,0.01936408002053135,0.0
593,0.03409473251479667,0.0
594,-0.045397236353878566,0.0
595,0.0016553456679531484,0.0
596,0.11463600375091393,0.0
597,0.07782369564210503,0.0
598,-0.03414045271766027,0.0
599,0.04323047002633466,0.0
600,0.2626612964608811,0.0
601,3.5865646195916714,0.0
602,6.829318214075986,0.0
603,-0.4299014187860102,0.0
604,-1.8348919083768624,0.0
605,1.4479135276177817,0.0
606,-0.7600609012166858,0.0
607,0.15441728577864883,0.0
608,0.03911325987904608,0.0
609,-0.08750167990995761,0.0
610,-0.027662048853905226,0.0
611,-0.026791121181953814,0.0
612,-0.05141515943761848,0.0
613,-0.073745083037585,0.0
614,-0.03358678120916451,0.0
615,-0.013724025261874339,0.0
616,-0.055526582910242414,0.0
617,-0.08773940756870885,0.0
618,0.01106742512458504,0.0
619,-0.02311770936966578,0.0
620,0.27369248026659204,0.0
621,3.689271420758477,0.0
622,6.855459372044948,0.0
623,-0.38974377241306823,0.0
624,-1.9111108182433763,0.0
625,1.5983811539699104,0.0
626,-0.6090049911766,0.0
627,0.11666775927092957,0.0
628,0.051025045643983184,0.0
629,-0.04495425340515391,0.0
630,0.050248167749468435,0.0
631,0.045860536294396306,0.0
632,0.10131726886352471,0.0
633,0.057997840185249915,0.0
634,-0.08254578607803092,0.0
635,0.054588036151432116,0.0
636,-0.03241228227382271,0.0
637,-0.0035123276606045294,0.0
638,0.02603302111526517,0.0
639,0.07405963629357694,0.0
640,0.3122658151091474,0.0
641,3.6318892168461554,0.0
642,6.85540969263964,0.0
643,-0.442458473193918,0.0
644,-1.8900030119045892,0.0
645,1.5057519992058963,0.0
646,-0.6073117764542453,0.0
647,0.03745231178786794,0.0
648,0.009279819147501275,0.0
649,0.005858405370160968,0.0
650,0.04178766569428198,0.0
651,-0.08874234896492912,0.0
652,-0.07744110444095262,0.0
653,0.03073054527414493,0.0
654,0.05144262558112672,0.0
655,-0.06540537729037049,0.0
656,-0.043454878398313426,0.0
657,0.0167834294702058,0.0
658,0.0837192177832422,0.0
659,-0.03348959171267986,0.0
660,0.2564443883028347,0.0
661,3.647695684682363,0.0
662,6.832241759466796,0.0
663,-0.4664375054162205,0.0
664,-1.7801729240483684,0.0
665,1.4648395578217555,0.0
666,-0.8218750628747792,0.0
667,0.10995050047382848,0.0
668,-0.12414709118710218,0.0
669,-0.19054143461146045,0.0
670,-0.17480569262417084,0.0
671,-0.10604087716836444,0.0
672,-0.07953362289722071,0.0
673,-0.08159262271771477,0.0
674,-0.00499327547940117,0.0
675,-0.050496636585999545,0.0
676,0.03584296913627796,0.0
677,-0.040273451186014934,0.0
678,-0.09152985743783398,0.0
679,-0.07660598475225586,0.0
680,0.2515007399723948,0.0
681,3.572101077291128,0.0
682,6.804326157267488,0.0
683,-0.3967926062099943,0.0
684,-1.930008887428123,0.0
685,1.536973256466887,0.0
686,-0.7461066585513958,0.0
687,0.11259344735894285,0.0
688,0.04871223702515117,0.0
689,-0.04905819421488797,0.0
690,-0.0022057256758745893,0.0
691,-0.01232197280232614,0.0
692,-0.040919642351396834,0.0
693,-0.07315824039516329,0.0
694,-0.09580721157246366,0.0
695,-0.07219573594866563,0.0
696,8.952200801669308e-05,0.0
697,-0.00034866083246798407,0.0
698,-0.001596493043220383,0.0
699,-0.07837422986787562,0.0
700,0.25914826705971394,0.0
701,3.621419650077823,0.0
702,6.763353966705006,0.0
703,-0.4905241425693949,0.0
704,-1.8882643252703593,0.0
705,1.4369407179529734,0.0
706,-0.7188786202255417,0.0
707,0.09528621160047984,0.0
708,0.1402994603119525,0.0
709,-0.11506619309147562,0.0
710,-0.011853337532648849,0.0
711,-0.03478743711970827,0.0
712,-0.032526590315186274,0.0
713,0.04231115088867751,0.0
714,-0.03514951565759161,0.0
715,0.008965713493770226,0.0
716,-0.08615311962852652,0.0
717,-0.04340420573775646,0.0
718,-0.017865549832928155,0.0
719,0.0007634662347711513,0.0
720,0.16683689006812336,0.0
721,3.5827951908075706,0.0
722,6.760871938522153,0.0
723,-0.5386328058140075,0.0
724,-1.8236122723721582,0.0
725,1.4934207470587486,0.0
726,-0.6943891805026624,0.0
727,0.17050334125649877,0.0
728,0.08220533885284301,0.0
729,0.016549654073457085,0.0
730,0.05819160036208874,0.0
731,-0.19965801289466636,0.0
732,-0.06986915641879961,0.0
733,-0.043620551336336515,0.0
734,-0.016489648835802125,0.0
735,0.02969639662110666,0.0
736,-0.06411504202271734,0.0
737,-0.08563365687716282,0.0
738,0.05658669578693748,0.0
739,-0.06801031206941557,0.0
740,0.3666284249579396,0.0
741,3.702738128772225,0.0
742,6.791850466056606,0.0
743,-0.5226031737877299,0.0
744,-1.892595589612204,0.0
745,1.4732075299288807,0.0
746,-0.8256215640344795,0.0
747,0.07923208572133301,0.0
748,-0.013024149908155735,0.0
749,0.0011478301996646345,0.0
750,-0.05126418604379056,0.0
751,-0.08517064741621823,0.0
752,-0.07468598766391178,0.0
753,-0.019826053251746883,0.0
754,-0.14449887760456911,0.0
755,-0.03691915046655276,0.0
756,-0.10275952975831115,0.0
757,-0.002988132150875525,0.0
758,-0.0002760585771693566,0.0
759,-0.11714704124431144,0.0
760,0.3163818348038164,0.0
761,3.604495170973324,0.0
762,6.837152297734153,0.0
763,-0.4267811999882216,0.0
764,-1.7811314668850238,0.0
765,1.5131386983669266,0.0
766,-0.7256211014297268,0.0
767,0.12258868652256477,0.0
768,-0.0066759472906279885,0.0
769,-0.004472637807309651,0.0
770,0.0787515877595435,0.0
771,-0.05379216883739782,0.0
772,0.01491499313805622,0.0
773,-0.05050269098079608,0.0
774,-0.0034276393073210155,0.0
775,-0.027085328474113247,0.0
776,-0.05235158394986572,0.0
777,-0.10084974475796568,0.0
778,-0.09459459601993539,0.0
779,-0.04659991615429385,0.0
780,0.19978634619543728,0.0
781,3.4973098625084638,0.0
782,6.709759837740123,0.0
783,-0.5336532226799632,0.0
784,-1.9474110704232874,0.0
785,1.405264039606707,0.0
786,-0.8826036015089518,0.0
787,0.05775451940734094,0.0
788,-0.034641001097436244,0.0
789,-0.14131703001886056,0.0
790,-0.1094432778082721,0.0
791,-0.061549983851831046,0.0
792,-0.10273553102850103,0.0
793,-0.08522799386008684,0.0
794,-0.1348907824242516,0.0
795,-0.039752882856589046,0.0
796,-0.021419043606939282,0.0
797,-0.10430554558189706,0.0
798,-0.11607244069453634,0.0
799,0.006784174353705874,0.0
800,0.2608466247380653,0.0
801,3.5976643524927328,0.0
802,6.747280988336457,0.0
803,-0.47336846653737,0.0
804,-1.7920338796855952,0.0
805,1.5035758510930248,0.0
806,-0.7090308104775411,0.0
807,0.16063734782625236,0.0
808,0.040529684446626524,0.0
809,-0.05528084429280136,0.0
810,-0.05541477464662002,0.0
811,-0.09251075075264253,0.0
812,0.07742215476403291,0.0
813,-0.04386853028209467,0.0
814,-0.07041249851866165,0.0
815,0.024701958197377055,0.0
816,-0.030680542708130948,0.0
817,0.03970573467226976,0.0
818,-0.03537128680046661,0.0
819,-0.010497798503872753,0.0
820,0.3192621298587876,0.0
821,3.61435207227383,0.0
822,6.774737811581748,0.0
823,-0.5017047175038299,0.0
824,-1.7492523970844587,0.0
825,1.4827983079836884,0.0
826,-0.7841733247812347,0.0
827,0.13622963137633642,0.0
828,0.11858533079739011,0.0
829,-0.0030591701460629048,0.0
830,0.06200569725516865,0.0
831,0.05057253124762705,0.0
832,0.05604335990786538,0.0
833,0.037941146675356884,0.0
834,0.11181146205828846,0.0
835,0.08375170890158437,0.0
836,0.12394082927989453,0.0
837,0.07089532851053515,0.0
838,0.14805765364814336,0.0
839,0.03270262017946941,0.0
840,0.38876049004968455,0.0
841,3.6726018838071828,0.0
842,6.789584053266197,0.0
843,-0.4433962216503604,0.0
844,-1.8600155851645248,0.0
845,1.4928866566959966,0.0
846,-0.6450087281755478,0.0
847,0.20695374018932933,0.0
848,-0.049929621885431895,0.0
849,0.008494642986117663,0.0
850,0.04108230090424003,0.0
851,0.08777241433455286,0.0
852,0.10047001809190974,0.0
853,0.04361097027389873,0.0
854,0.04977019177567343,0.0
855,-0.030246696023969916,0.0
856,-0.03667697141608886,0.0
857,-0.02274263270306728,0.0
858,0.03211697716271837,0.0
859,-0.028002704166827742,0.0
860,0.2631600515774775,0.0
861,3.6813651270800047,0.0
862,6.8536175867181575,0.0
863,-0.4469215706357806,0.0
864,-1.84420492762986,0.0
865,1.535746942049902,0.0
866,-0.792033771207774,0.0
867,0.2805166841170807,0.0
868,0.03946819918953694,0.0
869,-0.0769224763760002,0.0
870,0.0251081798857157,0.0
871,-0.082452336162588,0.0
872,-0.012954975676100282,0.0
873,0.006017650244098064,0.0
874,0.020746149651072413,0.0
875,0.10450193272098528,0.0
876,0.03668763615654328,0.0
877,0.01620891737756223,0.0
878,0.07097359987513364,0.0
879,0.06346110968055446,0.0
880,0.24031189719687146,0.0
881,3.6626630044625417,0.0
882,6.843235040898952,0.0
883,-0.5311627072225894,0.0
884,-1.8344806748324578,0.0
885,1.5486772193267695,0.0
886,-0.6843630602855028,0.0
887,0.25704150269784776,0.0
888,0.12504494577418496,0.0
889,0.007672455348998908,0.0
890,0.11957316725153272,0.0
891,0.09256902749399874,0.0
892,0.09331309054256709,0.0
893,-0.015014945773525037,0.0
894,0.06992200058765395,0.0
895,0.1249703672160877,0.0
896,0.13765966002296448,0.0
897,0.12955684408501864,0.0
898,0.03662655406066685,0.0
899,0.031779027669441046,0.0
900,0.4042570056604129,0.0
901,3.731953675621408,0.0
902,6.880108855037521,0.0
903,-0.4515903553742631,0.0
904,-1.8579170341846283,0.0
905,1.524630609258003,0.0
906,-0.640425706094339,0.0
907,0.22163476065196677,0.0
908,0.020139562411348455,0.0
909,-0.020849333819581095,0.0
910,-0.04577229682637697,0.0
911,0.006237078082434115,0.0
912,-0.02416978541933418,0.0
913,0.10135883381694612,0.0
914,0.025827261268333585,0.0
915,0.007700128109461839,0.0
916,0.08821426240953403,0.0
917,0.046049826094967786,0.0
918,0.0008750019338867251,0.0
919,-0.051965009579730395,0.0
920,0.3615152589000465,0.0
921,3.7357248502014224,0.0
922,6.949655932796156,0.0
923,-0.534025593582574,0.0
924,-1.6698699680441638,0.0
925,1.5499746605854738,0.0
926,-0.6485215592508478,0.0
927,0.23440691335233754,0.0
928,0.07846927035539424,0.0
929,0.0393196349718996,0.0
930,0.1206695478234121,0.0
931,0.10882170507220218,0.0
932,0.0929470427418459,0.0
933,0.06128025019326293,0.0
934,0.042466541899558,0.0
935,0.01717875061911866,0.0
936,0.004545638016275361,0.0
937,0.0455084498345181,0.0
938,-0.05823322922440324,0.0
939,0.007447191481769723,0.0
940,0.4086239222453808,0.0
941,3.705724672567829,0.0
942,6.822727656168587,0.0
943,-0.5250420922669888,0.0
944,-1.8193683189910852,0.0
945,1.5350075877017086,0.0
946,-0.7345115161785316,0.0
947,0.2504723331512808,0.0
948,0.03636541045221668,0.0
949,-0.041219279974175835,0.0
950,0.05791404793716392,0.0
951,-0.03369024878464284,0.0
952,0.09711417588822366,0.0
953,0.026709561929058902,0.0
954,0.006466086808598465,0.0
955,0.03238144633719066,0.0
956,0.08486272439644567,0.0
957,0.045321681104980575,0.0
958,0.05429901627750321,0.0
959,0.06570177619597722,0.0
960,0.3814596129485985,0.0
961,3.6389871060254726,0.0
962,6.851478978790792,0.0
963,-0.44556454261422046,0.0
964,-1.7637908357256513,0.0
965,1.558150808004422,0.0
966,-0.7736092234982943,0.0
967,0.23293431831234843,0.0
968,0.04931634921745894,0.0
969,-0.08948087980382761,0.0
970,-0.04730444140801145,0.0
971,0.040460560541346634,0.0
972,0.024635709505713393,0.0
973,0.054440652020801464,0.0
974,0.002015059295452412,0.0
975,0.08739234412700939,0.0
976,0.12730361740990334,0.0
977,0.08852214048133772,0.0
978,0.07276789967688987,0.0
979,0.03865079663751471,0.0
980,0.446528126191607,0.0
981,3.7789219125165463,0.0
982,6.893917674491966,0.0
983,-0.4199495188970893,0.0
984,-1.6426143158360806,0.0
985,1.6466256769106569,0.0
986,-0.6542821572790412,0.0
987,0.24027781887103866,0.0
988,0.1244385757016846,0.0
989,-0.019197058819200696,0.0
990,0.0015792753380353547,0.0
991,-0.0573654822584377,0.0
992,0.04334785051471769,0.0
993,0.03817357257076605,0.0
994,-0.021283726120170286,0.0
995,-0.02902722663331307,0.0
996,0.1270410576223209,0.0
997,0.07757765489794746,0.0
998,0.04140296714231408,0.0
999,-0.009800353325324036,0.0
1000,0.40500432612714604,0.0
1001,3.731065089751447,0.0
1002,6.771063874212662,0.0
1003,-0.5072564586565977,0.0
1004,-1.8453350865834641,0.0
1005,1.5915846453433988,0.0
1006,-0.791142602946373,0.0
1007,0.1157360228695446,0.0
1008,0.10004386354992695,0.0
1009,-0.10634229778260812,0.0
1010,0.10779484953434294,0.0
1011,-0.0036668533601841493,0.0
1012,0.0029581676720742585,0.0
1013,0.016929034315627364,0.0
1014,0.009366673089037339,0.0
1015,0.002424184136192071,0.0
1016,0.1381190680938857,0.0
1017,0.036526748489832755,0.0
1018,-0.10621395099639212,0.0
1019,-0.0035496774735472823,0.0
1020,0.25004477190022084,0.0
1021,3.609712615793441,0.0
1022,6.86928926970746,0.0
1023,-0.6685417266301328,0.0
1024,-1.7586650472426786,0.0
1025,1.4807823120624226,0.0
1026,-0.6863052243803904,0.0
1027,0.11057946754962095,0.0
1028,0.03629601049469527,0.0
1029,-0.047848228196347826,0.0
1030,-0.052695115170948055,0.0
1031,0.05252861518185388,0.0
1032,0.047214892406081864,0.0
1033,0.03417318883862991,0.0
1034,-0.004381637450127291,0.0
1035,-0.06908373076759336,0.0
1036,0.01421148643228258,0.0
1037,-0.023346428642398616,0.0
1038,-0.06674978830481682,0.0
1039,-0.005905704400865982,0.0
1040,0.2781533693713631,0.0
1041,3.729497813559,0.0
1042,6.8192000669204615,0.0
1043,-0.4909662634120058,0.0
1044,-1.7781551567609892,0.0
1045,1.5282598254191306,0.0
1046,-0.7576123318017943,0.0
1047,0.17388062660728992,0.0
1048,-0.04685354674657659,0.0
1049,0.003990356196283934,0.0
1050,0.025187421674455524,0.0
1051,0.1097443227576672,0.0
1052,-0.029743800846531273,0.0
1053,0.11309356878881081,0.0
1054,-0.07286000105233581,0.0
1055,-0.03306334192885431,0.0
1056,-0.03461439746010217,0.0
1057,-0.03339311180071462,0.0
1058,-0.07052504840445535,0.0
1059,-0.0692251514639334,0.0
1060,0.1979720099300753,0.0
1061,3.5775996260356444,0.0
1062,6.737082476176538,0.0
1063,-0.6187428946314679,0.0
1064,-1.8316786545222106,0.0
1065,1.4485067313124018,0.0
1066,-0.7647656985111481,0.0
1067,0.1655817287938534,0.0
1068,0.04419586787117231,0.0
1069,0.04746821416988249,0.0
1070,-0.005837176663118726,0.0
1071,0.08153633768223237,0.0
1072,0.06399635521236496,0.0
1073,-0.02904511942014605,0.0
1074,0.08445746056480165,0.0
1075,0.03425088767737807,0.0
1076,0.04753006894332124,0.0
1077,0.033811018818697525,0.0
1078,0.049114062810235545,0.0
1079,0.029827700006546876,0.0
1080,0.3997191376911098,0.0
1081,3.7256212682691934,0.0
1082,6.78498894119337,0.0
1083,-0.6066289018618366,0.0
1084,-1.8401408072176357,0.0
1085,1.406262919843939,0.0
1086,-0.755332181560502,0.0
1087,0.01399093056776414,0.0
1088,-0.010634879974668075,0.0
1089,-0.10833305021764736,0.0
1090,-0.030717445401944123,0.0
1091,-0.06666437614194595,0.0
1092,-0.05288387112101343,0.0
1093,-0.04265925212970728,0.0
1094,-0.026398586009435863,0.0
1095,-0.08323232724548317,0.0
1096,-0.1269171676664363,0.0
1097,-0.033063473866720615,0.0
1098,0.009562667305615065,0.0
1099,-0.024177033960500503,0.0
1100,0.2453672813605061,0.0
1101,3.6810309451396774,0.0
1102,6.829564653498944,0.0
1103,-0.6264283272337103,0.0
1104,-1.952138295324979,0.0
1105,1.5304166805998514,0.0
1106,-0.8632538089103189,0.0
1107,0.13502933116898175,0.0
1108,-0.08513242276563054,0.0
1109,-0.09797037209115828,0.0
1110,-0.03584247994207011,0.0
1111,-0.05104738406821323,0.0
1112,-0.020480537572467074,0.0
1113,0.023965328191752372,0.0
1114,-0.10389675874435586,0.0
1115,-0.10112749988593837,0.0
1116,-0.1203627283094541,0.0
1117,-0.018676027590371617,0.0
1118,-0.048006457044840654,0.0
1119,-0.02953037134697197,0.0
1120,0.3448810097385267,0.0
1121,3.640286864957421,0.0
1122,6.731718562279951,0.0
1123,-0.5051662604129762,0.0
1124,-1.9457161025268972,0.0
1125,1.546090816079614,0.0
1126,-0.7839799162951179,0.0
1127,0.22261923062678446,0.0
1128,0.009514461079123036,0.0
1129,-0.004222599683738698,0.0
1130,0.09002133797460965,0.0
1131,0.10908639645071973,0.0
1132,-0.05840324425244793,0.0
1133,-0.056030493537676446,0.0
1134,0.07482750430520993,0.0
1135,0.007646803899138232,0.0
1136,0.018220953655861415,0.0
1137,0.1026135191995869,0.0
1138,0.01155418427204895,0.0
1139,-0.048403237035654155,0.0
1140,0.3416109977992039,0.0
1141,3.7424215956249474,0.0
1142,6.769139078912999,0.0
1143,-0.5207424039152861,0.0
1144,-1.7856164406058028,0.0
1145,1.5128121992335066,0.0
1146,-0.780145413272104,0.0
1147,0.2664601168322019,0.0
1148,-0.06468761389625835,0.0
1149,0.02064130332749816,0.0
1150,-0.0672666263430414,0.0
1151,-0.05527863366116746,0.0
1152,-0.02624483483994487,0.0
1153,-0.021676053007086957,0.0
1154,-0.048839210286962385,0.0
1155,0.03716150179785442,0.0
1156,0.011675761297603808,0.0
1157,-0.0541570906006742,0.0
1158,0.04659492277606939,0.0
1159,0.029230876472497613,0.0
1160,0.24465958936676951,0.0
1161,3.664997810674072,0.0
1162,6.71141572923915,0.0
1163,-0.5386203642963244,0.0
1164,-1.8584981522088233,0.0
1165,1.5485812197241828,0.0
1166,-0.8500339899031121,0.0
1167,0.1678824056130543,0.0
1168,-0.08122698457500223,0.0
1169,-0.1311184111774239,0.0
1170,-0.012113661828133242,0.0
1171,-0.04840000533376752,0.0
1172,-0.010889932517672639,0.0
1173,0.0571954819791161,0.0
1174,0.09571296043831626,0.0
1175,-0.02292469386384892,0.0
1176,-0.015360500022856027,0.0
1177,-0.03996127032720971,0.0
1178,0.03847593863442518,0.0
1179,-0.0031151694832813916,0.0
1180,0.22440257318104853,0.0
1181,3.734979259726428,0.0
1182,6.70533850683244,0.0
1183,-0.5590803239424135,0.0
1184,-1.7158019280245524,0.0
1185,1.550229303019533,0.0
1186,-0.824014501039969,0.0
1187,0.16476044961317296,0.0
1188,0.08754312613630758,0.0
1189,0.1542184804199797,0.0
1190,0.03516242579559235,0.0
1191,0.14440520216170058,0.0
1192,0.0032564706953826447,0.0
1193,0.044268334633991276,0.0
1194,0.042301244576899724,0.0
1195,0.04906548398075232,0.0
1196,-0.0032397535640178096,0.0
1197,0.022537619712734283,0.0
1198,0.05819990895341254,0.0
1199,-0.08584207992004281,0.0
1200,0.36684879431935946,0.0
1201,3.7269528811373456,0.0
1202,6.7612546569662,0.0
1203,-0.555479252913473,0.0
1204,-1.7618823526398717,0.0
1205,1.5417102847423476,0.0
1206,-0.7697151523814321,0.0
1207,0.15497989249738509,0.0
1208,-0.03493575325422202,0.0
1209,-0.03236357950098438,0.0
1210,0.004534541164159231,0.0
1211,0.014482565646425624,0.0
1212,0.07750337006218362,0.0
1213,-0.016603293988548408,0.0
1214,0.11618903495255434,0.0
1215,0.02359361232313833,0.0
1216,-0.016201691357278253,0.0
1217,0.05417928738279722,0.0
1218,0.0002276658138380943,0.0
1219,-0.07262159091237845,0.0
1220,0.28965057613386697,0.0
1221,3.710881185319358,0.0
1222,6.814221303585217,0.0
1223,-0.64131171562426,0.0
1224,-1.7207000888671073,0.0
1225,1.5674215586148796,0.0
1226,-0.7036714111245361,0.0
1227,0.17867164071202282,0.0
1228,0.038019968192852686,0.0
1229,0.01345733029097545,0.0
1230,0.06689740267274773,0.0
1231,0.05455126015377866,0.0
1232,-0.028101012626619848,0.0
1233,0.03424676765412823,0.0
1234,-0.022069171066512912,0.0
1235,0.06242871564281878,0.0
1236,-0.02829437487338516,0.0
1237,0.009170427000098763,0.0
1238,0.027141026490143147,0.0
1239,-0.08251534947120773,0.0
1240,0.22918160799898457,0.0
1241,3.6366447457114135,0.0
1242,6.688364489324385,0.0
1243,-0.6875686221538154,0.0
1244,-1.7388071795399365,0.0
1245,1.5364974169403225,0.0
1246,-0.7303374363730768,0.0
1247,0.19390911310666065,0.0
1248,-0.03506473985869098,0.0
1249,0.03531892191242385,0.0
1250,-0.0451954348333565,0.0
1251,-0.014685745708290412,0.0
1252,0.023952264524950338,0.0
1253,0.013505927589347487,0.0
1254,0.041390377797834124,0.0
1255,0.06673525355471192,0.0
1256,0.08183653156223576,0.0
1257,-0.07936585534323937,0.0
1258,-0.12641091033027468,0.0
1259,0.05846198577469773,0.0
1260,0.2707330801154614,0.0
1261,3.755211116061902,0.0
1262,6.846157026062185,0.0
1263,-0.567885257574754,0.0
1264,-1.7996486830248457,0.0
1265,1.5574578963744732,0.0
1266,-0.7835333806049859,0.0
1267,0.22095112192691468,0.0
1268,0.12380408206617917,0.0
1269,-0.10609196465620091,0.0
1270,0.00791957900728408,0.0
1271,0.0010094588029332897,0.0
1272,0.019988798942272824,0.0
1273,-0.031156812126718378,0.0
1274,-0.051881139913275434,0.0
1275,0.021689689447030473,0.0
1276,0.07857667591930219,0.0
1277,0.0027020314507992527,0.0
1278,0.026484148133772343,0.0
1279,0.0197824215934351,0.0
1280,0.43885643219644793,0.0
1281,3.9172335034500096,0.0
1282,6.8283247569963335,0.0
1283,-0.5941621146236732,0.0
1284,-1.6986494252960855,0.0
1285,1.5912898589191815,0.0
1286,-0.7819623554223406,0.0
1287,0.1879132574339141,0.0
1288,0.024029854964616973,0.0
1289,-0.199227622716218,0.0
1290,-0.005165163451033503,0.0
1291,-0.011132636512541753,0.0
1292,-0.0536826951200979,0.0
1293,-0.04540171050179728,0.0
1294,0.00043559859570326334,0.0
1295,0.00018089724924178277,0.0
1296,-0.022631166881707496,0.0
1297,-0.04319051718582853,0.0
1298,-0.06593884659706224,0.0
1299,-0.07846424521464418,0.0
1300,0.3067747409773926,0.0
1301,3.749119174611778,0.0
1302,6.6821350079699835,0.0
1303,-0.6984958101861882,0.0
1304,-1.7265653492744748,0.0
1305,1.5706345225337648,0.0
1306,-0.7922361653982103,0.0
1307,0.17950207321214864,0.0
1308,-0.08142180041839821,0.0
1309,-0.022545855739777416,0.0
1310,0.06597211978919351,0.0
1311,0.06071469391757195,0.0
1312,-0.038489076306035236,0.0
1313,-0.01756233579099749,0.0
1314,-0.13336625096263388,0.0
1315,-0.07517286828499385,0.0
1316,-0.07467664877984835,0.0
1317,-0.012600469829726423,0.0
1318,-0.07230847066821751,0.0
1319,0.05718094208538153,0.0
1320,0.2603658170028954,0.0
1321,3.702460044137054,0.0
1322,6.72767405551073,0.0
1323,-0.6480001095880737,0.0
1324,-1.756497785198191,0.0
1325,1.4158786450599634,0.0
1326,-0.7330274302509537,0.0
1327,0.14191533367917386,0.0
1328,0.009615746826467406,0.0
1329,-0.03498198017849656,0.0
1330,0.07145207552009415,0.0
1331,-0.05860287029313422,0.0
1332,-0.012278520595742193,0.0
1333,0.1767922352194328,0.0
1334,0.047109595543713786,0.0
1335,-0.0005290060709516476,0.0
1336,0.05116674393181575,0.0
1337,0.0758993009054145,0.0
1338,-0.013130820638398571,0.0
1339,0.046909495329322204,0.0
1340,0.30428236548558374,0.0
1341,3.7113814652487083,0.0
1342,6.896782438366712,0.0
1343,-0.6104109188065329,0.0
1344,-1.7598683776078239,0.0
1345,1.5301420829120418,0.0
1346,-0.7370819466453373,0.0
1347,0.20116729249710158,0.0
1348,-0.0026704582212164693,0.0
1349,-0.024784939572509896,0.0
1350,0.009852750696999705,0.0
1351,-0.008948996524371235,0.0
1352,-0.038335460287700796,0.0
1353,-0.0032017807425818745,0.0
1354,-0.023218780128243327,0.0
1355,-0.06657830653497104,0.0
1356,0.055599118826875876,0.0
1357,0.04709903076620678,0.0
1358,-0.036515843007068206,0.0
1359,0.022984714050329882,0.0
1360,0.3779363032261869,0.0
1361,3.834485906565999,0.0
1362,6.735544248896093,0.0
1363,-0.6360724819962629,0.0
1364,-1.8443786862372353,0.0
1365,1.4804345467536477,0.0
1366,-0.7451436181544558,0.0
1367,0.05415152846454768,0.0
1368,-0.027407442647804342,0.0
1369,0.029173363986910353,0.0
1370,-0.01741283627738599,0.0
1371,-0.051579124244317556,0.0
1372,0.013175827346606545,0.0
1373,-0.050106899598983,0.0
1374,0.011966834330537517,0.0
1375,0.030569481227361823,0.0
1376,0.010619863527962948,0.0
1377,0.0551029154710405,0.0
1378,-0.049037551534722466,0.0
1379,0.11106181873034253,0.0
1380,0.36035289183190056,0.0
1381,3.716064319828373,0.0
1382,6.7603797312968705,0.0
1383,-0.5577956513466705,0.0
1384,-1.6317124777615966,0.0
1385,1.4835681897565753,0.0
1386,-0.6592585024385281,0.0
1387,0.26006912596409504,0.0
1388,0.09234884024028676,0.0
1389,0.07269993029961666,0.0
1390,0.045828577565487395,0.0
1391,-0.007774408132561202,0.0
1392,0.04356618981234665,0.0
1393,-0.014463414533358912,0.0
1394,-0.012232314124612332,0.0
1395,0.04795041872033413,0.0
1396,0.06987241864055149,0.0
1397,0.02683569382861806,0.0
1398,-0.03510083896165253,0.0
1399,0.014098048519372495,0.0
1400,0.38097520862251744,0.0
1401,3.7929223815593964,0.0
1402,6.753334090332211,0.0
1403,-0.7465945016288892,0.0
1404,-1.7147652708044545,0.0
1405,1.5148376223449662,0.0
1406,-0.760126136837189,0.0
1407,0.12737468775328373,0.0
1408,0.04272471066728298,0.0
1409,-0.061274602580097454,0.0
1410,0.03459664526853727,0.0
1411,-0.044992687747757235,0.0
1412,-0.0034264541955029816,0.0
1413,0.02932953719525459,0.0
1414,-0.05935974628851572,0.0
1415,-0.008365577135632107,0.0
1416,0.02247720045177356,0.0
1417,0.004222050231502648,0.0
1418,0.0045514198700304445,0.0
1419,-0.008179528746237466,0.0
1420,0.3779711489204467,0.0
1421,3.7513564915673556,0.0
1422,6.727921435126621,0.0
1423,-0.6435953424300321,0.0
1424,-1.7024999037387947,0.0
1425,1.487653718032675,0.0
1426,-0.840160658526904,0.0
1427,0.17257746383672684,0.0
1428,-0.08939789622645239,0.0
1429,-0.11947374887782024,0.0
1430,-0.02619738317045746,0.0
1431,-0.001833522089400394,0.0
1432,-0.06324244442653407,0.0
1433,-0.09463548691058866,0.0
1434,-0.07836541916111771,0.0
1435,0.0039080890871791285,0.0
1436,-0.029884444329548513,0.0
1437,-0.04176554734535621,0.0
1438,0.022270118470839595,0.0
1439,-0.016389078592291967,0.0
1440,0.33635834240319273,0.0
1441,3.8419004120640055,0.0
1442,6.8313322762436535,0.0
1443,-0.6307023717059966,0.0
1444,-1.6677716385156722,0.0
1445,1.452387544741392,0.0
1446,-0.7754181346808063,0.0
1447,0.14410352181849934,0.0
1448,-0.07862682158099893,0.0
1449,-0.05109706113476631,0.0
1450,0.09682833621552689,0.0
1451,-0.011635194316710427,0.0
1452,-0.004936872178459034,0.0
1453,-0.07511244661477168,0.0
1454,-0.011140594976157114,0.0
1455,-0.031289375991727306,0.0
1456,-0.09656760691342667,0.0
1457,-0.03874553484544398,0.0
1458,-0.023319858100623356,0.0
1459,0.005564108673336947,0.0
1460,0.4243223485980285,0.0
1461,3.7002981712633134,0.0
1462,6.82738096749784,0.0
1463,-0.7694125211931166,0.0
1464,-1.7965032383448931,0.0
1465,1.5088670325152758,0.0
1466,-0.7420558196481345,0.0
1467,0.1696118680425553,0.0
1468,0.08330807865130137,0.0
1469,0.06087698696203895,0.0
1470,0.013088099156075705,0.0
1471,-0.00048266617194061754,0.0
1472,-0.04119073424288066,0.0
1473,-0.03770228010662262,0.0
1474,-0.04454852941981796,0.0
1475,-0.02143043159733795,0.0
1476,0.028671654833951527,0.0
1477,-0.007858206459526038,0.0
1478,0.05829917828351568,0.0
1479,-0.079622009239631,0.0
1480,0.32312054268497764,0.0
1481,3.7732093503590214,0.0
1482,6.844175067032098,0.0
1483,-0.6829518079497401,0.0
1484,-1.7575449934277676,0.0
1485,1.3810601527341344,0.0
1486,-0.7137807653592568,0.0
1487,0.2361073425375782,0.0
1488,0.037171069083098335,0.0
1489,-0.03275936871853495,0.0
1490,0.020668812342276483,0.0
1491,-0.010954045811587359,0.0
1492,0.04290868163153502,0.0
1493,-0.02554425533231835,0.0
1494,0.053958528645820625,0.0
1495,0.0017514011429770084,0.0
1496,-0.06028099757592023,0.0
1497,0.027550519186057023,0.0
1498,0.004161157168062212,0.0
1499,0.0594298270365162,0.0
1500,0.275137242749416,0.0
1501,3.7218827286791227,0.0
1502,6.752870779340678,0.0
1503,-0.5890527555611884,0.0
1504,-1.629957988038571,0.0
1505,1.482304172829235,0.0
1506,-0.7668902444366273,0.0
1507,0.19172830995857457,0.0
1508,-0.030247159134497242,0.0
1509,-0.10087460282694857,0.0
1510,0.027540828708594787,0.0
1511,-0.04682241793318585,0.0
1512,0.04679503004282941,0.0
1513,-0.09902531527496128,0.0
1514,-0.08201971437606992,0.0
1515,-0.0655290032416788,0.0
1516,0.0018549693479617806,0.0
1517,0.04900587850991753,0.0
1518,0.0186377750698127,0.0
1519,0.016148823747982342,0.0
1520,0.39952816250818735,0.0
1521,3.7830827525164428,0.0
1522,6.747133700979593,0.0
1523,-0.6914556425751482,0.0
1524,-1.7185721700997698,0.0
1525,1.4719370360963888,0.0
1526,-0.7573050249729624,0.0
1527,0.12121497430528659,0.0
1528,0.06793023322718147,0.0
1529,-0.0827695823514619,0.0
1530,-0.0041517039244053505,0.0
1531,0.0302768343636343,0.0
1532,-0.1157350633109149,0.0
1533,0.0707470615564417,0.0
1534,-0.041814934329641326,0.0
1535,-0.021591629231845617,0.0
1536,0.038941644214434634,0.0
1537,-0.12043023711632131,0.0
1538,-0.044513557073726416,0.0
1539,-0.01767977024934745,0.0
1540,0.2791211719412573,0.0
1541,3.7855503522485923,0.0
1542,6.7410316625396,0.0
1543,-0.568183644568474,0.0
1544,-1.7893783722666459,0.0
1545,1.4964041448760022,0.0
1546,-0.788257392487641,0.0
1547,0.10756094171932438,0.0
1548,0.01137948412890552,0.0
1549,-0.07933390943714255,0.0
1550,-0.028788610500973616,0.0
1551,-0.02340713549855751,0.0
1552,0.025978339511906937,0.0
1553,-0.08212513429915685,0.0
1554,-0.03258843316481259,0.0
1555,-0.023510868357516337,0.0
1556,0.014058910132607454,0.0
1557,-0.00549312562806251,0.0
1558,-0.07670455720295255,0.0
1559,0.052481427171111567,0.0
1560,0.35408164950195536,0.0
1561,3.760523794341597,0.0
1562,6.8249407732670155,0.0
1563,-0.623747033078659,0.0
1564,-1.7030636260393222,0.0
1565,1.5951263867955536,0.0
1566,-0.7385304775447178,0.0
1567,0.23861156495422794,0.0
1568,-0.01629581205791513,0.0
1569,0.047854948072148955,0.0
1570,0.06691253936652942,0.0
1571,0.027814290497255464,0.0
1572,0.029862742737392166,0.0
1573,0.0322079143659985,0.0
1574,-0.08846194150063252,0.0
1575,-0.00857186478419749,0.0
1576,0.03184861088812997,0.0
1577,0.029515328813033617,0.0
1578,-0.04154039594975419,0.0
1579,-0.10466563651404642,0.0
1580,0.3259923224059349,0.0
1581,3.6817511783652885,0.0
1582,6.698395664927432,0.0
1583,-0.7443709069446944,0.0
1584,-1.6893224197574745,0.0
1585,1.515025732578358,0.0
1586,-0.7628238366918659,0.0
1587,0.14911130501161313,0.0
1588,-0.0386299103030164,0.0
1589,-0.07403849430099695,0.0
1590,-0.0016561792558160322,0.0
1591,0.08982807070960604,0.0
1592,0.039344188634416674,0.0
1593,-0.04307448461199239,0.0
1594,0.12376360719069346,0.0
1595,-0.01046601555341663,0.0
1596,0.14455882695146627,0.0
1597,0.07043151068358611,0.0
1598,0.011775897086186912,0.0
1599,0.029409931484729267,0.0
1600,0.32473694316512314,0.0
1601,3.7108218080141135,0.0
1602,6.846732916290155,0.0
1603,-0.7533604046543366,0.0
1604,-1.7669144463684143,0.0
1605,1.5011299517552226,0.0
1606,-0.698175233173535,0.0
1607,0.12021629691438307,0.0
1608,-0.05631743980023985,0.0
1609,0.056142479374223106,0.0
1610,0.09614682786594296,0.0
1611,-0.015464653175026911,0.0
1612,0.005621265121590965,0.0
1613,0.005824468574193298,0.0
1614,0.038616368469193516,0.0
1615,-0.03616533199937432,0.0
1616,-0.004369612780889397,0.0
1617,-0.06170089169197225,0.0
1618,-0.029508781536724708,0.0
1619,-0.018675944882773313,0.0
1620,0.4549065625667875,0.0
1621,3.7488688264917753,0.0
1622,6.812312534373995,0.0
1623,-0.8019416351906916,0.0
1624,-1.740972215190638,0.0
1625,1.5379947014256732,0.0
1626,-0.6735251139053753,0.0
1627,0.1686292246550307,0.0
1628,-0.0515497533638292,0.0
1629,-0.038037721740757806,0.0
1630,-0.03354168772038784,0.0
1631,-0.02989473882752942,0.0
1632,-0.002892886689517574,0.0
1633,-0.032500914341674875,0.0
1634,0.1608822899599111,0.0
1635,-0.03795447332184977,0.0
1636,0.07363934861919585,0.0
1637,0.04173875701721131,0.0
1638,0.04117518130784854,0.0
1639,0.0926762950111259,0.0
1640,0.3327488675960939,0.0
1641,3.8076806095645823,0.0
1642,6.763951712273154,0.0
1643,-0.6338933204714389,0.0
1644,-1.6750123523125882,0.0
1645,1.4883381352586524,0.0
1646,-0.7300773143864473,0.0
1647,0.19541866920355133,0.0
1648,0.01841112345320179,0.0
1649,-0.04768173458385846,0.0
1650,0.024727456677509238,0.0
1651,0.0011586630317373808,0.0
1652,0.02965741659601602,0.0
1653,0.03900750591946834,0.0
1654,0.17868602925206878,0.0
1655,-0.022592777006754803,0.0
1656,-0.029142209288065216,0.0
1657,-0.008290575122483674,0.0
1658,0.07217653745449923,0.0
1659,0.006021741901327211,0.0
1660,0.2695367641806427,0.0
1661,3.819113654115164,0.0
1662,6.807708449383127,0.0
1663,-0.6852989521962932,0.0
1664,-1.536103407479042,0.0
1665,1.510127035045261,0.0
1666,-0.826897607060443,0.0
1667,0.1848069214363335,0.0
1668,0.08055541902073493,0.0
1669,-0.1062617197058946,0.0
1670,0.06539545437642981,0.0
1671,-0.03353367467661758,0.0
1672,-0.02457373095878996,0.0
1673,0.04980429740299972,0.0
1674,0.013605401836623392,0.0
1675,0.11908144428771998,0.0
1676,0.0769561861087591,0.0
1677,0.12564057200892265,0.0
1678,0.15704560471751824,0.0
1679,0.12849486499883195,0.0
1680,0.5623914331930675,0.0
1681,4.050231957003789,0.0
1682,6.906199630045491,0.0
1683,-0.5208332111840118,0.0
1684,-1.5193539523169335,0.0
1685,1.764538433231732,0.0
1686,-0.5667316913982161,0.0
1687,0.41562273757915713,0.0
1688,0.046999000607347824,0.0
1689,0.15803532564583478,0.0
1690,0.07031181555897541,0.0
1691,0.05674777139685663,0.0
1692,0.020160594945599415,0.0
1693,0.14685218982803677,0.0
1694,0.06553246419670983,0.0
1695,-0.007777698712485494,0.0
1696,0.03143654048633353,0.0
1697,0.059723361110836704,0.0
1698,0.0925735330628511,0.0
1699,0.05318954061048763,0.0
1700,0.41284429559792957,0.0
1701,3.9107636360429856,0.0
1702,6.900534617284324,0.0
1703,-0.6895069810019651,0.0
1704,-1.71343760692525,0.0
1705,1.5013901999220303,0.0
1706,-0.7518905467499415,0.0
1707,0.21957008873633788,0.0
1708,0.024208455962035785,0.0
1709,-0.033247971149689054,0.0
1710,0.034083901779591856,0.0
1711,-0.12866589089888816,0.0
1712,-0.1336398601078213,0.0
1713,0.06425407065562916,0.0
1714,0.010131643921582521,0.0
1715,0.023669973457419856,0.0
1716,0.08409297706169234,0.0
1717,0.05259204939232061,0.0
1718,0.1580610998089873,0.0
1719,0.006061541705285257,0.0
1720,0.41789988601538325,0.0
1721,3.794983346029867,0.0
1722,6.778777942510754,0.0
1723,-0.7420439925797764,0.0
1724,-1.640037388802596,0.0
1725,1.5714528178088545,0.0
1726,-0.6767931518761836,0.0
1727,0.1877504326937516,0.0
1728,0.06396483006859381,0.0
1729,-0.06943682932420756,0.0
1730,0.07223077278099141,0.0
1731,0.08827161936971295,0.0
1732,0.012835148915834982,0.0
1733,0.05383725771387361,0.0
1734,-0.009484308084861098,0.0
1735,-0.04877338424833533,0.0
1736,0.10187856143420623,0.0
1737,-0.026920428907818785,0.0
1738,0.06964728722097249,0.0
1739,0.060552567561210066,0.0
1740,0.23609668112711432,0.0
1741,3.916652000675287,0.0
1742,6.851382525577666,0.0
1743,-0.6711162319049994,0.0
1744,-1.6890055328428786,0.0
1745,1.4560373750375935,0.0
1746,-0.7455390430657053,0.0
1747,0.14914973853274763,0.0
1748,0.002590755647417571,0.0
1749,-0.022697486814445673,0.0
1750,0.061556499469512235,0.0
1751,0.02701036781745366,0.0
1752,-0.000807745018020993,0.0
1753,-0.025495231274970595,0.0
1754,0.0961308099447998,0.0
1755,0.059530715319461316,0.0
1756,-0.05488940025852741,0.0
1757,0.0627621631079511,0.0
1758,0.05470096916842515,0.0
1759,0.052311668275040635,0.0
1760,0.33293429463124047,0.0
1761,3.808791237658789,0.0
1762,6.705010906898103,0.0
1763,-0.7652758263699488,0.0
1764,-1.7052166529020074,0.0
1765,1.5640457441971705,0.0
1766,-0.6092613027907728,0.0
1767,0.16316306141995232,0.0
1768,-0.012471807175169939,0.0
1769,0.01496300144106398,0.0
1770,0.08957061468302187,0.0
1771,0.059278194821783786,0.0
1772,0.09178471806717425,0.0
1773,-0.018062923521935968,0.0
1774,0.04734989506524974,0.0
1775,0.17407319475696445,0.0
1776,-0.09876800996138514,0.0
1777,-0.07627520518011488,0.0
1778,-0.05025536601974034,0.0
1779,-0.01024877441860072,0.0
1780,0.4083075504114213,0.0
1781,3.847989066143567,0.0
1782,6.734741095183933,0.0
1783,-0.7685645120529426,0.0
1784,-1.632161913868743,0.0
1785,1.4488583377396231,0.0
1786,-0.7240914306191805,0.0
1787,0.14513635370440625,0.0
1788,-0.024993146765455818,0.0
1789,0.011106699743625312,0.0
1790,0.01618266858332319,0.0
1791,-0.04476084810646597,0.0
1792,-0.06378905053902846,0.0
1793,-0.024542453639440534,0.0
1794,-0.024953260560948768,0.0
1795,-0.05801251287312259,0.0
1796,0.003623152710531728,0.0
1797,-0.02323239259547541,0.0
1798,-0.009893250805859635,0.0
1799,0.0032666664316772648,0.0
1800,0.37800587622695847,0.0
1801,3.850402348523863,0.0
1802,6.7537543069168455,0.0
1803,-0.7662525161821332,0.0
1804,-1.7464479463473888,0.0
1805,1.599006243492945,0.0
1806,-0.773790221179377,0.0
1807,0.15945716081409542,0.0
1808,-0.08691456639546191,0.0
1809,0.01797644613678001,0.0
1810,0.01425033083820922,0.0
1811,-0.09170809617491105,0.0
1812,0.012265100879997302,0.0
1813,0.04278506555860684,0.0
1814,0.00246336995566244,0.0
1815,0.08808730290421879,0.0
1816,-0.0027420747878649067,0.0
1817,0.01377654116639037,0.0
1818,-0.017104090577223074,0.0
1819,0.07555215922106065,0.0
1820,0.32299428130085783,0.0
1821,3.807898516204439,0.0
1822,6.717927928972892,0.0
1823,-0.8216530213964982,0.0
1824,-1.6986913613344865,0.0
1825,1.4189249557775603,0.0
1826,-0.7169794224023537,0.0
1827,0.17244723803882997,0.0
1828,0.012165939265620785,0.0
1829,-0.03307950105014804,0.0
1830,0.04131682870728703,0.0
1831,-0.07666774511697959,0.0
1832,-0.0395567048395241,0.0
1833,0.027018073987832434,0.0
1834,0.036234676045317944,0.0
1835,-0.07192113577306548,0.0
1836,-0.03975178440604919,0.0
1837,0.04346828677118399,0.0
1838,-0.06616297133596992,0.0
1839,-0.04098294886584914,0.0
1840,0.2239817150828055,0.0
1841,3.8357381128044006,0.0
1842,6.733943406875873,0.0
1843,-0.7974823066085481,0.0
1844,-1.7360381736559003,0.0
1845,1.433354449719083,0.0
1846,-0.7028762042396967,0.0
1847,0.08574211555673669,0.0
1848,-0.03329068528488289,0.0
1849,0.059284296099512857,0.0
1850,-0.02990781156111244,0.0
1851,-0.030111143770140993,0.0
1852,-0.08523819839118055,0.0
1853,0.12008137548627601,0.0
1854,-0.012588296737543496,0.0
1855,-0.024067014262240876,0.0
1856,-0.005513811462266729,0.0
1857,-0.029338678272369578,0.0
1858,-0.050361505597537284,0.0
1859,-0.11661440330941372,0.0
1860,0.2733894356715961,0.0
1861,3.7166594437103173,0.0
1862,6.606701136948379,0.0
1863,-0.7854192509706521,0.0
1864,-1.7448753495100429,0.0
1865,1.4088869358905662,0.0
1866,-0.7105621087681113,0.0
1867,0.12421523845790665,0.0
1868,0.012952713311464602,0.0
1869,-0.14436632803624416,0.0
1870,-0.010697406208573913,0.0
1871,0.04411054897464116,0.0
1872,-0.08323140193002046,0.0
1873,-0.029612307982434614,0.0
1874,-0.007347553332404368,0.0
1875,0.045185003033704034,0.0
1876,-0.031848116700741426,0.0
1877,-0.08118103221698074,0.0
1878,-0.10812713234428693,0.0
1879,-0.038203191175368134,0.0
1880,0.3483271402588205,0.0
1881,3.6892182505246147,0.0
1882,6.654686371241483,0.0
1883,-0.8678201215917237,0.0
1884,-1.7443396344295374,0.0
1885,1.4844235178148344,0.0
1886,-0.7154380615122896,0.0
1887,0.19326494879362,0.0
1888,0.10101334979769869,0.0
1889,-0.012479872206746442,0.0
1890,0.013935104112230912,0.0
1891,-0.09242227160985209,0.0
1892,-0.144965193500179,0.0
1893,-0.05233401444015054,0.0
1894,-0.08745646925200229,0.0
1895,-0.0442192884214816,0.0
1896,0.005775419746124021,0.0
1897,0.011399462549137741,0.0
1898,-0.04796227684062465,0.0
1899,-0.054001599281352924,0.0
1900,0.3248590304192164,0.0
1901,3.764026589869701,0.0
1902,6.676423042158549,0.0
1903,-0.8318440221021128,0.0
1904,-1.6976234197083748,0.0
1905,1.4897705065182434,0.0
1906,-0.8402962657711577,0.0
1907,0.11967084446034124,0.0
1908,-0.07928138113420685,0.0
1909,-0.022476630361825442,0.0
1910,-0.025045787442709543,0.0
1911,-0.1545677408482247,0.0
1912,-0.06599873275435009,0.0
1913,-0.015422262404261328,0.0
1914,-0.09849558687582152,0.0
1915,-0.04747761446849068,0.0
1916,-0.0898309142124471,0.0
1917,-0.11066244151679844,0.0
1918,0.002447530195083661,0.0
1919,-0.09200800264556167,0.0
1920,0.25409581022901573,0.0
1921,3.7683847341304415,0.0
1922,6.653504189496294,0.0
1923,-0.8957748091995206,0.0
1924,-1.783338381455516,0.0
1925,1.3736596428079655,0.0
1926,-0.787050215896482,0.0
1927,0.07552754777397216,0.0
1928,-0.1277111566020921,0.0
1929,-0.06761842235628464,0.0
1930,-0.07480742547251741,0.0
1931,-0.12291546925857663,0.0
1932,-0.11334942982805024,0.0
1933,-0.03353213972186662,0.0
1934,-0.06581357003035684,0.0
1935,-0.05292523715289297,0.0
1936,0.05873036389393141,0.0
1937,-0.08599799409029671,0.0
1938,-0.03552229878661114,0.0
1939,-0.08954377152767411,0.0
1940,0.39305324295256067,0.0
1941,3.824500422292045,0.0
1942,6.762659063337597,0.0
1943,-0.8174201864196896,0.0
1944,-1.5633753355699873,0.0
1945,1.4661015939100126,0.0
1946,-0.7378984504303225,0.0
1947,0.12683010271556236,0.0
1948,0.08462966518048087,0.0
1949,-0.03649045953757721,0.0
1950,-0.007824059680834033,0.0
1951,0.020783303269830022,0.0
1952,0.11472528916252055,0.0
1953,0.04888715193745816,0.0
1954,-0.04941690254490941,0.0
1955,0.042274418140155604,0.0
1956,-0.014424298930481201,0.0
1957,0.010795578922749297,0.0
1958,0.06086107504404366,0.0
1959,-0.02223189079457758,0.0
1960,0.386876465336252,0.0
1961,3.8413451243610086,0.0
1962,6.770460332937427,0.0
1963,-0.6573769415939136,0.0
1964,-1.5782623413849401,0.0
1965,1.4120413051673923,0.0
1966,-0.8217153062510884,0.0
1967,0.1860426376583971,0.0
1968,0.07306971775937865,0.0
1969,-0.08466025188890186,0.0
1970,0.05560719134461914,0.0
1971,-0.005064921337619184,0.0
1972,-0.03480331521420703,0.0
1973,0.10170879598666614,0.0
1974,-0.05512609770236662,0.0
1975,-0.0242554422915892,0.0
1976,-0.16518538462712457,0.0
1977,0.006213410119845693,0.0
1978,0.05359707615435462,0.0
1979,-0.01612664663771226,0.0
1980,0.4552697151406217,0.0
1981,3.840879190550051,0.0
1982,6.753695052867016,0.0
1983,-0.7156024403042728,0.0
1984,-1.6812400622896915,0.0
1985,1.3789592968046027,0.0
1986,-0.9088290456992839,0.0
1987,0.12232543201726054,0.0
1988,-0.03396783073059971,0.0
1989,-0.11485702732218944,0.0
1990,-0.0019321723254334174,0.0
1991,0.03587289090098796,0.0
1992,-0.11946211385736971,0.0
1993,0.006069169673581322,0.0
1994,0.08584097020703471,0.0
1995,-0.05732359845661333,0.0
1996,-0.029624140446576214,0.0
1997,0.0017647164400170223,0.0
1998,-0.042513050946636835,0.0
1999,0.009167781387781255,0.0
2000,0.32963434117023976,0.0
2001,3.77971674295541,0.0
2002,6.697806696197497,0.0
2003,-0.8411677737971883,0.0
2004,-1.6477608948764102,0.0
2005,1.4907666229876484,0.0
2006,-0.7447693882018319,0.0
2007,0.07672182051417398,0.0
2008,0.11167075411108357,0.0
2009,-0.05279262727775267,0.0
2010,-0.05932208344316421,0.0
2011,-0.05121478002008788,0.0
2012,-0.09033199787834023,0.0
2013,-0.03262225453353886,0.0
2014,-0.02768490236794826,0.0
2015,0.019596345296419126,0.0
2016,0.05898516375411348,0.0
2017,-0.00384181822179858,0.0
2018,0.011432057680515372,0.0
2019,-0.02654883925971998,0.0
2020,0.41156239026617447,0.0
2021,3.935578300891567,0.0
2022,6.79961212254927,0.0
2023,-0.7578612853251411,0.0
2024,-1.5909504697908987,0.0
2025,1.567860417916916,0.0
2026,-0.7467544270459637,0.0
2027,0.21667535338528296,0.0
2028,-0.03549998874648905,0.0
2029,-0.09697972517800943,0.0
2030,-0.058561291949409705,0.0
2031,-0.02820193283924871,0.0
2032,-0.06506311294675252,0.0
2033,-0.02529978076794024,0.0
2034,-0.09254253322844294,0.0
2035,0.007060170958981711,0.0
2036,-0.011567329481224346,0.0
2037,-0.04680225483833864,0.0
2038,0.01667424250238575,0.0
2039,-0.10535573483511136,0.0
2040,0.2868431542001544,0.0
2041,3.86283314531374,0.0
2042,6.6425185358729975,0.0
2043,-0.8494695707455203,0.0
2044,-1.6651992358374281,0.0
2045,1.4525434187258346,0.0
2046,-0.6943977899737025,0.0
2047,0.23975530251726362,0.0
2048,0.06932045683385785,0.0
2049,-0.003709535552047012,0.0
2050,-0.055638930698607675,0.0
2051,0.0630958209991437,0.0
2052,0.05750460456866299,0.0
2053,0.061504996813847974,0.0
2054,-0.0028410386511375646,0.0
2055,0.02924068219787189,0.0
2056,-0.057833484913768496,0.0
2057,0.05265862074871594,0.0
2058,-0.04497632040356723,0.0
2059,-0.04956083526175582,0.0
2060,0.3294539986191229,0.0
2061,3.8522064425187352,0.0
2062,6.63264485221575,0.0
2063,-0.8921459271018115,0.0
2064,-1.5331932793509992,0.0
2065,1.509837796084666,0.0
2066,-0.8051528468010354,0.0
2067,0.1421041557281924,0.0
2068,-0.047642224148804105,0.0
2069,-0.06602191317801746,0.0
2070,-0.11384496879563008,0.0
2071,0.03522001127833223,0.0
2072,-0.05673127361815915,0.0
2073,0.0400392081826903,0.0
2074,0.06283403875668638,0.0
2075,0.05545534994330052,0.0
2076,-0.0613390701588361,0.0
2077,-0.0021202165045518754,0.0
2078,0.04391238684280966,0.0
2079,0.03852295229668052,0.0
2080,0.40988649186843923,0.0
2081,3.8807432320827937,0.0
2082,6.770193928104735,0.0
2083,-0.8487936523033792,0.0
2084,-1.5330010357734951,0.0
2085,1.4484442935937503,0.0
2086,-0.7569199634735323,0.0
2087,0.17403173434994074,0.0
2088,-0.08531059723595333,0.0
2089,0.00817301110246943,0.0
2090,0.056496159520261865,0.0
2091,0.01769687276647617,0.0
2092,0.04558369136027683,0.0
2093,-0.08294153384237311,0.0
2094,-0.07718174171991903,0.0
2095,-0.047156033272214466,0.0
2096,-0.007449397791463565,0.0
2097,-0.061296621042581115,0.0
2098,-0.02012903848026703,0.0
2099,-0.060706419643654794,0.0
2100,0.19652259821078824,0.0
2101,3.832441278284162,0.0
2102,6.611217061761669,0.0
2103,-0.798722751584886,0.0
2104,-1.6867916792637125,0.0
2105,1.4501444938135528,0.0
2106,-0.7895317614175339,0.0
2107,0.11527559869315243,0.0
2108,-0.0014762048886335817,0.0
2109,0.04558795317663829,0.0
2110,-0.02535006227265421,0.0
2111,-0.01055206286451954,0.0
2112,0.0376445234600504,0.0
2113,-0.07998467549562605,0.0
2114,-0.09270071243860603,0.0
2115,-0.027963967623698748,0.0
2116,-0.015979952692865177,0.0
2117,0.05211692087986657,0.0
2118,0.03250415177640697,0.0
2119,-0.03609216829313328,0.0
2120,0.2902650409456381,0.0
2121,3.901788772958122,0.0
2122,6.703535283129491,0.0
2123,-0.8422056733865818,0.0
2124,-1.6848091823032492,0.0
2125,1.382606556105333,0.0
2126,-0.7899232565777325,0.0
2127,0.1435437570909608,0.0
2128,-0.08213056702754473,0.0
2129,-0.11511373762013968,0.0
2130,-0.08321027851816282,0.0
2131,-0.005557435444136186,0.0
2132,0.016443116145863933,0.0
2133,-0.09095500271702107,0.0
2134,-0.09931105452917988,0.0
2135,-0.14093339018873713,0.0
2136,-0.1259019905455043,0.0
2137,-0.05941625239531099,0.0
2138,-0.0874459998041189,0.0
2139,-0.09859293639606928,0.0
2140,0.3929777709637967,0.0
2141,3.877586029129405,0.0
2142,6.6794252006837125,0.0
2143,-0.7960969545289026,0.0
2144,-1.6161440200933845,0.0
2145,1.502876999567189,0.0
2146,-0.7975034205673607,0.0
2147,0.23388205120140615,0.0
2148,0.08650943734585796,0.0
2149,-0.10470694296219034,0.0
2150,-0.02438995881313795,0.0
2151,-0.05876870244655963,0.0
2152,-0.08098435349253372,0.0
2153,-0.02420437610659227,0.0
2154,-0.06642241459202435,0.0
2155,0.07261309371542035,0.0
2156,-0.13965095826728685,0.0
2157,0.07595481582563687,0.0
2158,0.03451601555123432,0.0
2159,-0.037815393216492035,0.0
2160,0.3400152211545332,0.0
2161,3.884538713587338,0.0
2162,6.744492326400029,0.0
2163,-0.7798635777455528,0.0
2164,-1.5981619511100211,0.0
2165,1.5399705867372806,0.0
2166,-0.8407741432141583,0.0
2167,0.17414710828712834,0.0
2168,-0.10118458641205906,0.0
2169,-0.018837136832091084,0.0
2170,0.021603516378481943,0.0
2171,-0.05285193690588766,0.0
2172,-0.012603193896376656,0.0
2173,-0.0862257677109905,0.0
2174,-0.014021525275852834,0.0
2175,0.027481478450501817,0.0
2176,-0.03754075327256338,0.0
2177,-0.05771402294484923,0.0
2178,-0.010550051259244235,0.0
2179,-0.016809562394741018,0.0
2180,0.381555382440619,0.0
2181,3.929407278640038,0.0
2182,6.6710006812746965,0.0
2183,-0.7945276360499798,0.0
2184,-1.6679663067111645,0.0
2185,1.539417584889792,0.0
2186,-0.7456119974994398,0.0
2187,0.22747633937477207,0.0
2188,0.015140467708104004,0.0
2189,0.020513348399298297,0.0
2190,-0.09921125770379913,0.0
2191,-0.029180464204973652,0.0
2192,0.0806384365735691,0.0
2193,0.003153725316877541,0.0
2194,-0.01988404061368429,0.0
2195,0.005450925537398,0.0
2196,0.045287302977963045,0.0
2197,-0.08977322749531735,0.0
2198,-0.0671523482352046,0.0
2199,-0.02870214008844966,0.0
2200,0.32713284843796436,0.0
2201,3.843229556767891,0.0
2202,6.734400503897648,0.0
2203,-0.8693025865814981,0.0
2204,-1.609019360924068,0.0
2205,1.5174345928932174,0.0
2206,-0.7622839931233993,0.0
2207,0.13398244255410707,0.0
2208,-0.01702787976239454,0.0
2209,-0.0064120809131720646,0.0
2210,0.06663650582960555,0.0
2211,0.043983622207356854,0.0
2212,0.06939835354589745,0.0
2213,0.02844158446648368,0.0
2214,0.02302841530279214,0.0
2215,-0.05648904499969139,0.0
2216,0.026758496253864346,0.0
2217,0.02938852423315517,0.0
2218,0.05299257133901411,0.0
2219,0.03419565793145061,0.0
2220,0.31315668440560523,0.0
2221,3.8663489199398025,0.0
2222,6.671960493727838,0.0
2223,-0.8118250358904391,0.0
2224,-1.5418094300345426,0.0
2225,1.5250186276949425,0.0
2226,-0.7796987254113448,0.0
2227,0.14342984776532874,0.0
2228,0.025588137604459958,0.0
2229,0.11980098298344011,0.0
2230,0.11489994538431765,0.0
2231,0.021713001540346295,0.0
2232,0.0563464106371742,0.0
2233,-0.011755507612944943,0.0
2234,0.009352472808635964,0.0
2235,-0.03249093158731214,0.0
2236,-0.04653612740630175,0.0
2237,0.06971544696174703,0.0
2238,-0.0058598160386779535,0.0
2239,0.14490544104352726,0.0
2240,0.2829230155957263,0.0
2241,3.923766025048598,0.0
2242,6.686983168751442,0.0
2243,-0.7956101398482738,0.0
2244,-1.5997538160820244,0.0
2245,1.6712950985293635,0.0
2246,-0.7759214940805523,0.0
2247,0.3543297917311342,0.0
2248,-0.0781247933887845,0.0
2249,-0.07215623524821183,0.0
2250,0.030049263377431423,0.0
2251,0.015988219899984037,0.0
2252,0.05288524962572318,0.0
2253,0.0829598304280125,0.0
2254,0.08169869315476816,0.0
2255,0.11571475130392508,0.0
2256,0.033113336069464906,0.0
2257,0.06431156849273167,0.0
2258,0.060386851822709336,0.0
2259,0.10199251554771308,0.0
2260,0.3620495879963278,0.0
2261,3.960774433291886,0.0
2262,6.813895678178476,0.0
2263,-0.8491071133124797,0.0
2264,-1.6090586977602304,0.0
2265,1.587653335899073,0.0
2266,-0.7902717380447821,0.0
2267,0.1584328668151733,0.0
2268,0.08480874112427492,0.0
2269,-0.03952798130693065,0.0
2270,-0.02675124840532764,0.0
2271,0.05902083899380212,0.0
2272,0.006368441996845786,0.0
2273,0.04147698867944377,0.0
2274,0.018707462352906018,0.0
2275,0.12449157728991846,0.0
2276,0.000796731873349903,0.0
2277,0.019017418579003156,0.0
2278,-0.06573696387423607,0.0
2279,0.024888711702470763,0.0
2280,0.4032525019917146,0.0
2281,3.910763215180544,0.0
2282,6.740771068800667,0.0
2283,-0.7016424318553198,0.0
2284,-1.5305338114854168,0.0
2285,1.556076441200584,0.0
2286,-0.7521976763625339,0.0
2287,0.2409042356627591,0.0
2288,0.19320904706568437,0.0
2289,0.057089635428421735,0.0
2290,0.03973421241066484,0.0
2291,0.029766345794266295,0.0
2292,0.002676384855632964,0.0
2293,0.05171450513508157,0.0
2294,0.06991921467942479,0.0
2295,0.02546360884691217,0.0
2296,0.04915898882541992,0.0
2297,0.04815745751350617,0.0
2298,0.03862660460501589,0.0
2299,0.08515827080235283,0.0
2300,0.2777369787791792,0.0
2301,3.99358674525614,0.0
2302,6.722568336781554,0.0
2303,-0.7811696644314065,0.0
2304,-1.561003204592945,0.0
2305,1.4837648510124628,0.0
2306,-0.6291863761094098,0.0
2307,0.27013698175822176,0.0
2308,0.031557178056963515,0.0
2309,-0.00882159261789014,0.0
2310,0.09046260478040308,0.0
2311,0.006742839117408091,0.0
2312,-0.03731819326352572,0.0
2313,0.010776527575992598,0.0
2314,0.09183905764321107,0.0
2315,0.003334457506948052,0.0
2316,0.17199790419092684,0.0
2317,0.09525350284050874,0.0
2318,0.06693463845790511,0.0
2319,0.054795357958434016,0.0
2320,0.44608137834033146,0.0
2321,4.013406425950814,0.0
2322,6.715771508688586,0.0
2323,-0.7102122169496394,0.0
2324,-1.539671239036144,0.0
2325,1.5591508151278706,0.0
2326,-0.7208646667942518,0.0
2327,0.2400057005670597,0.0
2328,0.13548677027600967,0.0
2329,0.03283920770779945,0.0
2330,0.05225075935477275,0.0
2331,0.07453785631668214,0.0
2332,-0.08526199547610419,0.0
2333,-0.003711060511355793,0.0
2334,0.01106523891695885,0.0
2335,0.009962110884214741,0.0
2336,0.03187723350082539,0.0
2337,-0.03400036018555667,0.0
2338,-0.07564106834518483,0.0
2339,0.11815591286924425,0.0
2340,0.42126690150179164,0.0
2341,3.959067022122932,0.0
2342,6.6820438449707105,0.0
2343,-0.9325461558334335,0.0
2344,-1.6090495105926121,0.0
2345,1.4767057110873232,0.0
2346,-0.7912465943893568,0.0
2347,0.27450230309045154,0.0
2348,-0.06362233576393961,0.0
2349,-0.021096800110913225,0.0
2350,0.06837603094263722,0.0
2351,-0.017309884807466737,0.0
2352,0.018983403260328675,0.0
2353,0.026374039139909444,0.0
2354,0.04063674585556378,0.0
2355,0.19623358606374558,0.0
2356,0.13280553790288752,0.0
2357,0.03301234263538082,0.0
2358,0.08326537346773223,0.0
2359,0.06851914900199153,0.0
2360,0.36507332913569585,0.0
2361,3.9423996707984363,0.0
2362,6.685976486220236,0.0
2363,-0.9468810438611872,0.0
2364,-1.5696009090116088,0.0
2365,1.559325371701843,0.0
2366,-0.7148326283614534,0.0
2367,0.2892185296933329,0.0
2368,0.01309858027444722,0.0
2369,-0.09697212705865281,0.0
2370,0.07907045108645103,0.0
2371,0.022100963764750448,0.0
2372,0.11904972256792486,0.0
2373,0.0645774630044889,0.0
2374,0.09860132188555895,0.0
2375,0.09462243836687573,0.0
2376,0.06406406859733677,0.0
2377,-0.020086820188610133,0.0
2378,0.06477026055647028,0.0
2379,0.08434733310962703,0.0
2380,0.4037593825897965,0.0
2381,3.943993192532959,0.0
2382,6.804996056472691,0.0
2383,-0.7927180842582812,0.0
2384,-1.4129511876611687,0.0
2385,1.4671169931555217,0.0
2386,-0.7323600717370273,0.0
2387,0.24207681564717964,0.0
2388,0.003923709293941431,0.0
2389,-0.02424141001630462,0.0
2390,0.09586503040421622,0.0
2391,0.03869521560952399,0.0
2392,-0.04716933433142623,0.0
2393,0.05962543361997115,0.0
2394,0.019453213345301326,0.0
2395,0.034241555532155854,0.0
2396,-0.10417195221698033,0.0
2397,0.04851608822260333,0.0
2398,0.1259779992145621,0.0
2399,-0.005548314795012305,0.0
2400,0.4838225088652575,0.0
2401,3.943250942738786,0.0
2402,6.7327839402138,0.0
2403,-0.8776439430797492,0.0
2404,-1.5926830152605054,0.0
2405,1.4880484618629974,0.0
2406,-0.7700792336264967,0.0
2407,0.11470176198471246,0.0
2408,0.06037371739652916,0.0
2409,-0.07810036770035861,0.0
2410,-0.08103140607456055,0.0
2411,-0.0016447043531537808,0.0
2412,-0.04600219628378822,0.0
2413,0.04219879961988023,0.0
2414,-0.03645777768614647,0.0
2415,-0.04468126223700975,0.0
2416,-0.0898609600314693,0.0
2417,0.029478936363805698,0.0
2418,-0.07671663167491374,0.0
2419,-0.010060697394971736,0.0
2420,0.3760296782929028,0.0
2421,3.9660851393290426,0.0
2422,6.827527229303287,0.0
2423,-0.7983835625437479,0.0
2424,-1.5131332626232017,0.0
2425,1.5387007548403397,0.0
2426,-0.7121649945800037,0.0
2427,0.259147783741882,0.0
2428,0.016810419390947955,0.0
2429,-0.012468510058449754,0.0
2430,0.042366062738176065,0.0
2431,-0.08639244492819148,0.0
2432,0.13991019744712935,0.0
2433,0.061210844324465066,0.0
2434,0.06345224647276322,0.0
2435,0.05788335350539705,0.0
2436,0.04248632979427462,0.0
2437,-0.049920346636383325,0.0
2438,0.028095976430765772,0.0
2439,0.034609184103701465,0.0
2440,0.3945621371829577,0.0
2441,3.8680736532536195,0.0
2442,6.73127394292453,0.0
2443,-0.9744306375217034,0.0
2444,-1.5655177647510603,0.0
2445,1.6198196985775608,0.0
2446,-0.6623187107535312,0.0
2447,0.24272115366777078,0.0
2448,0.01626179120864368,0.0
2449,-0.011993208332726869,0.0
2450,0.1739960075690392,0.0
2451,0.09407008298620219,0.0
2452,0.058770889137742394,0.0
2453,-0.004389194588396289,0.0
2454,-0.1251125317687916,0.0
2455,0.0009737668815946524,0.0
2456,-0.01625726782132391,0.0
2457,-0.03098539024340511,0.0
2458,-0.07278618143233535,0.0
2459,-0.03458307690755552,0.0
2460,0.4662442403738886,0.0
2461,3.9622316386838836,0.0
2462,6.70328785086766,0.0
2463,-0.8721556192562463,0.0
2464,-1.6646978805160741,0.0
2465,1.415798992775916,0.0
2466,-0.8112950776792077,0.0
2467,0.16473917845460553,0.0
2468,0.021386044423756204,0.0
2469,0.03201649884815822,0.0
2470,0.04120699521123603,0.0
2471,0.006212299880145211,0.0
2472,0.036401749682018016,0.0
2473,0.0772020944506007,0.0
2474,0.004792785670088118,0.0
2475,0.05008920320398591,0.0
2476,0.048108245484611525,0.0
2477,0.047868885641279585,0.0
2478,0.02788663593928169,0.0
2479,-0.03384474077256297,0.0
2480,0.4255983922378255,0.0
2481,3.9596640464815502,0.0
2482,6.761443434093705,0.0
2483,-0.9629975418795155,0.0
2484,-1.5526475843388172,0.0
2485,1.4334121837007845,0.0
2486,-0.7791076887333247,0.0
2487,0.2491083402707885,0.0
2488,-0.056154383824144616,0.0
2489,-0.04730273679704102,0.0
2490,-0.07145977831762437,0.0
2491,-0.03589231416968892,0.0
2492,0.029864939097113033,0.0
2493,0.07559857726266349,0.0
2494,0.04262263080573755,0.0
2495,0.034960858440898156,0.0
2496,0.06352585286150836,0.0
2497,0.05337200422180419,0.0
2498,-0.08123173924121832,0.0
2499,-0.008634852047718668,0.0
2500,0.25945311983392255,0.0
2501,3.940423112458614,0.0
2502,6.6138945355126,0.0
2503,-0.8684304277923206,0.0
2504,-1.6146287015554674,0.0
2505,1.4096213228629717,0.0
2506,-0.8144355691963103,0.0
2507,0.1310717341875283,0.0
2508,-0.05692266585704722,0.0
2509,-0.0016811911024235404,0.0
2510,0.038317780412573874,0.0
2511,-0.019296729022169466,0.0
2512,0.03667079633053734,0.0
2513,-0.005339728943027686,0.0
2514,-0.0631685382314989,0.0
2515,0.02784164604001272,0.0
2516,-0.03962705458533015,0.0
2517,0.11075800775916506,0.0
2518,0.06820287889380328,0.0
2519,-0.03656375153119263,0.0
2520,0.34662770276385524,0.0
2521,3.9794798564501894,0.0
2522,6.702895251997106,0.0
2523,-0.9064479171488393,0.0
2524,-1.487074322101628,0.0
2525,1.4457976318254273,0.0
2526,-0.7689187251597367,0.0
2527,0.2770757451692989,0.0
2528,-0.039753707327598274,0.0
2529,-0.09171991045554746,0.0
2530,0.10618913785166065,0.0
2531,0.0503277212019996,0.0
2532,0.10162043501061524,0.0
2533,0.015845821472229737,0.0
2534,-0.013436601558424377,0.0
2535,0.08974255106181826,0.0
2536,0.04960659325532162,0.0
2537,-0.022871946523432923,0.0
2538,-0.08329836536584194,0.0
2539,0.05348236782262607,0.0
2540,0.36523639789859785,0.0
2541,3.9376227937773245,0.0
2542,6.664080357872016,0.0
2543,-0.946828711772727,0.0
2544,-1.5360260133305115,0.0
2545,1.3803232199238185,0.0
2546,-0.8002278362011405,0.0
2547,0.2525467388021318,0.0
2548,-0.07785416525280905,0.0
2549,-0.04190446607540717,0.0
2550,-0.02505523223367158,0.0
2551,0.012225284021738132,0.0
2552,-0.013174249217067214,0.0
2553,-0.0021724425483637816,0.0
2554,0.04150840165963858,0.0
2555,0.007752545337676229,0.0
2556,0.06665339526713175,0.0
2557,-0.03724574339009012,0.0
2558,-0.048701878719380046,0.0
2559,0.04034599463742551,0.0
2560,0.37997843417968635,0.0
2561,3.955614827085885,0.0
2562,6.606837641311984,0.0
2563,-0.9350956080999143,0.0
2564,-1.5184269533285704,0.0
2565,1.4409775236256694,0.0
2566,-0.7538169449997104,0.0
2567,0.23922061952523108,0.0
2568,-0.018679134509819464,0.0
2569,-0.063500247957812,0.0
2570,-0.04599846666764976,0.0
2571,0.06956719252312775,0.0
2572,-0.11189487555981963,0.0
2573,-0.04330670373700435,0.0
2574,-0.037134843652044516,0.0
2575,-0.04017661637267502,0.0
2576,-0.06571191700462672,0.0
2577,0.07290357342824826,0.0
2578,-0.058653555904312225,0.0
2579,-0.0041929597426783195,0.0
2580,0.3775025943443589,0.0
2581,3.9582664512053025,0.0
2582,6.655135865899976,0.0
2583,-0.7909694354811169,0.0
2584,-1.562179799608544,0.0
2585,1.4589003555592348,0.0
2586,-0.7073228561931326,0.0
2587,0.18995261552170167,0.0
2588,0.04432262482309236,0.0
2589,-0.1044172806676868,0.0
2590,0.012839056175607995,0.0
2591,0.035340913851050634,0.0
2592,0.15489309954522645,0.0
2593,-0.010019994692066478,0.0
2594,0.009238050324068284,0.0
2595,0.0241492901449065,0.0
2596,0.09743574448754491,0.0
2597,0.07696736149668337,0.0
2598,0.11312860588371851,0.0
2599,0.060008586565152816,0.0
2600,0.320486607897508,0.0
2601,4.021949447135632,0.0
2602,6.692482209133606,0.0
2603,-0.989992993409316,0.0
2604,-1.5904735110605233,0.0
2605,1.5342744145145866,0.0
2606,-0.795596128874054,0.0
2607,0.19236581189786853,0.0
2608,-0.05221267683577647,0.0
2609,0.01431755766286073,0.0
2610,0.023548237431269086,0.0
2611,0.02413794477915509,0.0
2612,0.08112608350459616,0.0
2613,0.009344561340826342,0.0
2614,-0.026961675616224496,0.0
2615,-0.09749935721761106,0.0
2616,0.003392796422338447,0.0
2617,0.06536225160591519,0.0
2618,-0.054143651996121506,0.0
2619,-0.03225274842647631,0.0
2620,0.29990383349660604,0.0
2621,4.019675434818614,0.0
2622,6.675530742984945,0.0
2623,-0.9478701757947274,0.0
2624,-1.5323297514412513,0.0
2625,1.457428415493988,0.0
2626,-0.8327950915686798,0.0
2627,0.1372038188224864,0.0
2628,-0.0031093068618750566,0.0
2629,0.0053522640223022284,0.0
2630,0.025342920339598524,0.0
2631,0.08604183847960482,0.0
2632,0.03631307996379261,0.0
2633,0.013360501086007273,0.0
2634,0.10656158950093585,0.0
2635,0.02349798924823506,0.0
2636,-0.08099360657770453,0.0
2637,0.020261362176006645,0.0
2638,0.006381102023236204,0.0
2639,-0.026469477286834395,0.0
2640,0.3976119693303044,0.0
2641,4.0449292728216095,0.0
2642,6.593892823592847,0.0
2643,-0.9903434876655693,0.0
2644,-1.4472946050735047,0.0
2645,1.4672365931405735,0.0
2646,-0.7434274386098629,0.0
2647,0.25038879177803963,0.0
2648,0.05239644807227703,0.0
2649,0.15735538500013402,0.0
2650,0.05353125521500418,0.0
2651,0.03697613606359498,0.0
2652,0.11518051498451065,0.0
2653,0.047966585890628397,0.0
2654,0.00806391826525392,0.0
2655,0.13379231445944106,0.0
2656,0.1395546138445628,0.0
2657,0.07862540177983697,0.0
2658,-0.02945075523645111,0.0
2659,-0.04921941934342543,0.0
2660,0.34380259597579677,0.0
2661,4.096553448019138,0.0
2662,6.720831845450271,0.0
2663,-0.9623029927235651,0.0
2664,-1.6043702410777425,0.0
2665,1.3279553450458992,0.0
2666,-0.8589711884878535,0.0
2667,0.161119729694758,0.0
2668,-0.09916867961439135,0.0
2669,-0.10881495865907997,0.0
2670,-0.04274355899668312,0.0
2671,-0.04829892266691076,0.0
2672,0.0421956588055175,0.0
2673,-0.07868933992758177,0.0
2674,-0.11847508228706302,0.0
2675,-0.0736678076485483,0.0
2676,-0.15467443615320337,0.0
2677,-0.029008823397225502,0.0
2678,-0.08103651260866682,0.0
2679,-0.08923733191792982,0.0
2680,0.380366490938047,0.0
2681,3.9465472515469657,0.0
2682,6.5983791441288675,0.0
2683,-0.9882107298014972,0.0
2684,-1.5121261543206321,0.0
2685,1.504290921558286,0.0
2686,-0.8506914264246104,0.0
2687,0.2801652143908067,0.0
2688,0.05144867910463477,0.0
2689,0.013135104916002949,0.0
2690,0.03174230032640735,0.0
2691,-0.08320359659499005,0.0
2692,-0.043741414825974136,0.0
2693,-0.005243799442163426,0.0
2694,-0.04516314754797971,0.0
2695,0.03586898639221629,0.0
2696,0.03912613475813924,0.0
2697,0.08970631024222275,0.0
2698,-0.013257066773105649,0.0
2699,-0.006947849141369658,0.0
2700,0.35052681992366846,0.0
2701,3.931510588354746,0.0
2702,6.668056487340545,0.0
2703,-1.074972150189677,0.0
2704,-1.550151517661942,0.0
2705,1.4549375374750266,0.0
2706,-0.8525016219779925,0.0
2707,0.20147126160419787,0.0
2708,-0.07989316869248028,0.0
2709,-0.09438614206983839,0.0
2710,0.018861341044864935,0.0
2711,0.06732913039366557,0.0
2712,0.1274479937226523,0.0
2713,-0.01091753946680352,0.0
2714,0.038213365383930796,0.0
2715,0.030293129571664214,0.0
2716,-0.07772738254783765,0.0
2717,0.016641554435278573,0.0
2718,-0.11616427829394789,0.0
2719,0.013071294666991836,0.0
2720,0.3670927372008532,0.0
2721,3.9780883541431096,0.0
2722,6.64502365420018,0.0
2723,-1.0493623513509498,0.0
2724,-1.5989657319504753,0.0
2725,1.4218178561099788,0.0
2726,-0.7921324204448477,0.0
2727,0.12116838710769356,0.0
2728,-0.16532082921708496,0.0
2729,-0.08292507879969627,0.0
2730,-0.03438798770694772,0.0
2731,-0.1327544375795101,0.0
2732,-0.06644189551781483,0.0
2733,-0.060434984640046714,0.0
2734,-0.05618584238570968,0.0
2735,-0.021121933782884558,0.0
2736,-0.13310017416742437,0.0
2737,-0.12010379963328804,0.0
2738,-0.04649807621645679,0.0
2739,-0.0010857212282852496,0.0
2740,0.46563054619797645,0.0
2741,3.8992690299099726,0.0
2742,6.754669869627061,0.0
2743,-1.0005806765126553,0.0
2744,-1.504313553887098,0.0
2745,1.381256850902521,0.0
2746,-0.7940064331584059,0.0
2747,0.19062539266124023,0.0
2748,-0.05205793904841957,0.0
2749,0.005389341117468811,0.0
2750,0.02774847949630728,0.0
2751,-0.03725671246329233,0.0
2752,-0.037346135187603366,0.0
2753,-0.004850946219376248,0.0
2754,-0.03492793196883658,0.0
2755,-0.06734808518081013,0.0
2756,-0.04738391242323935,0.0
2757,0.026381512162182097,0.0
2758,-0.007328783699623934,0.0
2759,-0.1129120126084464,0.0
2760,0.3997446954557022,0.0
2761,3.961130462608024,0.0
2762,6.5516533806797925,0.0
2763,-0.9495598020972569,0.0
2764,-1.5717437540080146,0.0
2765,1.4117572261981142,0.0
2766,-0.7159250443869927,0.0
2767,0.19642397672610792,0.0
2768,-0.07387351967658876,0.0
2769,-0.007777133434370739,0.0
2770,0.013899067893243671,0.0
2771,-0.04848903753797849,0.0
2772,-0.050711190750668114,0.0
2773,-0.12449434976318516,0.0
2774,-0.0015301505886010508,0.0
2775,-0.028389431545749175,0.0
2776,-0.03416569560835767,0.0
2777,-0.0525668283188304,0.0
2778,0.0795498741729733,0.0
2779,0.02751881640285852,0.0
2780,0.22096742409854497,0.0
2781,3.951228454834681,0.0
2782,6.575353083156269,0.0
2783,-1.0714580650531047,0.0
2784,-1.542141331728274,0.0
2785,1.311106350656681,0.0
2786,-0.7514292541147951,0.0
2787,0.21942182966033547,0.0
2788,-0.0409903062091666,0.0
2789,-0.06475454341135548,0.0
2790,-0.05963890086891317,0.0
2791,-0.004378486537193693,0.0
2792,-0.002484982342914145,0.0
2793,-0.0954221929070952,0.0
2794,-0.10073450577589078,0.0
2795,-0.04363833256645796,0.0
2796,-0.03452568428162272,0.0
2797,0.006670113134905543,0.0
2798,-0.12608245359386763,0.0
2799,0.009815236826196734,0.0
2800,0.4827326070875725,0.0
2801,3.947286837883104,0.0
2802,6.702949385656609,0.0
2803,-0.9936289337321489,0.0
2804,-1.4277807820719213,0.0
2805,1.5316122710569322,0.0
2806,-0.7386442863902638,0.0
2807,0.18849686614660074,0.0
2808,-0.050731163424965746,0.0
2809,-0.08743957519023252,0.0
2810,-0.07666206668957509,0.0
2811,-0.07190084328839821,0.0
2812,-0.011095299956859456,0.0
2813,-0.11245030503359181,0.0
2814,-0.034522960247954745,0.0
2815,-0.09243731656466597,0.0
2816,0.00969794514129424,0.0
2817,-0.10321641594241401,0.0
2818,-0.11065123312440422,0.0
2819,-0.0630467401733881,0.0
2820,0.3857420147385196,0.0
2821,3.945699516379536,0.0
2822,6.617624143935598,0.0
2823,-1.067165097273758,0.0
2824,-1.4650529809649204,0.0
2825,1.3729408861412806,0.0
2826,-0.8206026969472222,0.0
2827,0.022161417571883307,0.0
2828,0.003941382992245196,0.0
2829,-0.11729605311290559,0.0
2830,0.08225464808939315,0.0
2831,0.017984461340934683,0.0
2832,-0.08152914651403911,0.0
2833,-0.11132000353432363,0.0
2834,-0.03634029586556761,0.0
2835,0.03142415387738095,0.0
2836,-0.03402107380249766,0.0
2837,0.007458730879474455,0.0
2838,0.058748762789149596,0.0
2839,0.0032064777636287983,0.0
2840,0.3549062035239788,0.0
2841,3.911755877691511,0.0
2842,6.657791361055683,0.0
2843,-1.0125073152802713,0.0
2844,-1.5732460335733427,0.0
2845,1.3667024433277828,0.0
2846,-0.7951742190029053,0.0
2847,0.2541017764603378,0.0
2848,0.003477523844380482,0.0
2849,0.018688460230871076,0.0
2850,0.012716772277492565,0.0
2851,-0.16151275726620162,0.0
2852,-0.022815877919528525,0.0
2853,0.023375681682983124,0.0
2854,0.00975483714287986,0.0
2855,0.00767827298157783,0.0
2856,0.07865755822516318,0.0
2857,0.03457881017628074,0.0
2858,0.05595502050934637,0.0
2859,-0.03201924759356264,0.0
2860,0.3932028537420398,0.0
2861,4.050968018194471,0.0
2862,6.683360608491777,0.0
2863,-0.9194831676808181,0.0
2864,-1.4397294647888825,0.0
2865,1.4521728006872172,0.0
2866,-0.7535551684279743,0.0
2867,0.22127477098732315,0.0
2868,-0.004135748391736487,0.0
2869,-0.13233531381591707,0.0
2870,-0.022547354183132848,0.0
2871,-0.08295151222746032,0.0
2872,-0.06259522195203415,0.0
2873,-0.12403837993407757,0.0
2874,-0.11029141093139753,0.0
2875,0.02283048696963702,0.0
2876,0.08196424313914559,0.0
2877,-0.0034404903358203794,0.0
2878,-0.057790776942735586,0.0
2879,-0.028366584421697243,0.0
2880,0.399910489511581,0.0
2881,3.928855604750634,0.0
2882,6.620089792199627,0.0
2883,-1.0479002023284707,0.0
2884,-1.5377084975192727,0.0
2885,1.4930690368818238,0.0
2886,-0.8334854256681006,0.0
2887,0.16825173643647698,0.0
2888,-0.04700110532841287,0.0
2889,-0.07539214244504067,0.0
2890,0.03282318058653411,0.0
2891,0.0004992364664199792,0.0
2892,-0.06830651295966222,0.0
2893,-0.023865505270809526,0.0
2894,-0.06099306911471507,0.0
2895,-0.023811420850565264,0.0
2896,-0.0023613374248387525,0.0
2897,-0.0007674975814584498,0.0
2898,-0.1000272895057389,0.0
2899,-0.019862223270606875,0.0
2900,0.30376606380714566,0.0
2901,4.059726698891517,0.0
2902,6.59393509999222,0.0
2903,-0.9999122032582336,0.0
2904,-1.4397785139072097,0.0
2905,1.3904515077515551,0.0
2906,-0.7083088370020822,0.0
2907,0.2204547067932028,0.0
2908,0.009987702187527037,0.0
2909,-0.013153190289599319,0.0
2910,0.04804381690858946,0.0
2911,0.05703029169450623,0.0
2912,0.06482736304476427,0.0
2913,0.11521412035077604,0.0
2914,0.14635218705928965,0.0
2915,0.032223957682598184,0.0
2916,0.03985684775240056,0.0
2917,0.03561459039677768,0.0
2918,0.0041976168899469455,0.0
2919,-0.04738925433239417,0.0
2920,0.4046547938084295,0.0
2921,3.984754165743466,0.0
2922,6.751328074997792,0.0
2923,-1.0418344683110659,0.0
2924,-1.355327456671203,0.0
2925,1.4677183327438965,0.0
2926,-0.806994174283877,0.0
2927,0.18952212359437648,0.0
2928,0.03377289989892461,0.0
2929,0.035296577197453716,0.0
2930,0.034171271894502135,0.0
2931,0.011808815586788098,0.0
2932,0.06210325850587714,0.0
2933,-0.04982844266029,0.0
2934,0.09809015706430035,0.0
2935,0.00751384111046189,0.0
2936,0.08763150148425053,0.0
2937,0.05476494537905673,0.0
2938,0.06540166058543065,0.0
2939,0.05595827806626524,0.0
2940,0.4440066082698869,0.0
2941,4.072247132423293,0.0
2942,6.582419940834892,0.0
2943,-1.0970242239565964,0.0
2944,-1.4465201593311299,0.0
2945,1.3830849084285792,0.0
2946,-0.82032349290454,0.0
2947,0.1711706687248238,0.0
2948,-0.03839552673027399,0.0
2949,-0.046112314964311056,0.0
2950,-0.05295811705490789,0.0
2951,0.029330391725229762,0.0
2952,0.046043642494071245,0.0
2953,0.11082215081745829,0.0
2954,0.07938514570270352,0.0
2955,0.02777971701878036,0.0
2956,0.08168000104059542,0.0
2957,-0.03651703149371597,0.0
2958,0.05040636033307615,0.0
2959,0.01528350158976494,0.0
2960,0.40294163109666414,0.0
2961,4.070715976898616,0.0
2962,6.652259546771359,0.0
2963,-1.0095405325823363,0.0
2964,-1.4389630448204003,0.0
2965,1.4294698920824023,0.0
2966,-0.7659234442382641,0.0
2967,0.22448374663224363,0.0
2968,-0.04992895946808684,0.0
2969,-0.0022767132063323155,0.0
2970,0.12327671782020087,0.0
2971,0.01538873532764121,0.0
2972,0.07331823979725906,0.0
2973,0.037808078040995834,0.0
2974,0.0726338001948412,0.0
2975,0.015760406681286986,0.0
2976,0.008318798478574198,0.0
2977,-0.10657556415219704,0.0
2978,0.03658439661322095,0.0
2979,0.04701044471268076,0.0
2980,0.30577735814754975,0.0
2981,4.060101312545006,0.0
2982,6.59883070546787,0.0
2983,-1.0898526875512786,0.0
2984,-1.5070061986310757,0.0
2985,1.5097581756380258,0.0
2986,-0.8273879540067411,0.0
2987,0.2651468266059311,0.0
2988,0.04378089898314516,0.0
2989,0.006986919065749914,0.0
2990,-0.011114692208128909,0.0
2991,-0.020869005446448985,0.0
2992,0.00563458035593186,0.0
2993,0.014080742130307439,0.0
2994,0.03151488019108761,0.0
2995,0.01438204926224137,0.0
2996,0.07774597429663382,0.0
2997,0.04179135542860599,0.0
2998,-0.044537532492530334,0.0
2999,0.05009425314983183,0.0
3000,0.3619357342693886,0.0
3001,3.9216810667075848,0.0
3002,6.6704639624555835,0.0
3003,-1.1536131586956704,0.0
3004,-1.4526212523467108,0.0
3005,1.361896425319796,0.0
3006,-0.8546357260599268,0.0
3007,0.26146036775570564,0.0
3008,0.01299698830202559,0.0
3009,-0.1834812940607339,0.0
3010,-0.003678644453965164,0.0
3011,0.03181467523527894,0.0
3012,-0.09553495863684001,0.0
3013,-0.017972735519952314,0.0
3014,-0.0835767024504621,0.0
3015,-0.0030035681086852378,0.0
3016,0.013431967340993218,0.0
3017,0.018199204485413296,0.0
3018,-0.03668436351450384,0.0
3019,0.014979539164979475,0.0
3020,0.3794048991581324,0.0
3021,4.010702951568824,0.0
3022,6.54882146582326,0.0
3023,-1.1010475343412278,0.0
3024,-1.467918235818967,0.0
3025,1.429949704524556,0.0
3026,-0.8005923201100643,0.0
3027,0.16817601666168058,0.0
3028,-0.1226650398174149,0.0
3029,0.02139480315414806,0.0
3030,-0.01877305099015516,0.0
3031,-0.02657496020042418,0.0
3032,-0.025867112350684188,0.0
3033,-0.044364138275757345,0.0
3034,-0.012575990017839399,0.0
3035,-0.0586117570097943,0.0
3036,0.016323549518210315,0.0
3037,-0.12166503394196833,0.0
3038,-0.013326775552203733,0.0
3039,0.05537549826646183,0.0
3040,0.4269947916719999,0.0
3041,4.101712931123255,0.0
3042,6.617924041758918,0.0
3043,-1.0666944632556108,0.0
3044,-1.5248621634806183,0.0
3045,1.4438835557481235,0.0
3046,-0.9339059195959668,0.0
3047,0.16932729957090303,0.0
3048,0.004797923107297063,0.0
3049,-0.06611479509785781,0.0
3050,-0.0730739295986845,0.0
3051,-0.11576390875887846,0.0
3052,0.03871482583567979,0.0
3053,0.029916646732943634,0.0
3054,-0.1613682270410802,0.0
3055,-0.04966012746346943,0.0
3056,-0.013852740807929202,0.0
3057,-0.017015237345310758,0.0
3058,-0.05227969401001639,0.0
3059,-0.06273109057772186,0.0
3060,0.35389474383354225,0.0
3061,4.12249638620071,0.0
3062,6.526893535841417,0.0
3063,-1.1132571776126798,0.0
3064,-1.4026774033790523,0.0
3065,1.3895560687756539,0.0
3066,-0.7395327370038399,0.0
3067,0.25941196782151155,0.0
3068,0.024926762094556982,0.0
3069,-0.07644500980995124,0.0
3070,0.05111519198829634,0.0
3071,0.049810940946923246,0.0
3072,-0.0578437850451465,0.0
3073,-0.057868049130554745,0.0
3074,-0.014997987178026126,0.0
3075,-0.09161987883540208,0.0
3076,0.03544834826839126,0.0
3077,-0.0539006154710112,0.0
3078,-0.022841432343794675,0.0
3079,0.014399052278819404,0.0
3080,0.3666078491442118,0.0
3081,4.021021786032216,0.0
3082,6.6328827230802485,0.0
3083,-1.1175904620527384,0.0
3084,-1.4111435983961222,0.0
3085,1.5091233690743926,0.0
3086,-0.8645662673935965,0.0
3087,0.17825014275533543,0.0
3088,-0.16002303345061927,0.0
3089,0.0015390023769847223,0.0
3090,-0.023314075701699813,0.0
3091,0.014702682903403378,0.0
3092,-0.018150059747668187,0.0
3093,-0.018910081156108267,0.0
3094,0.012891527298444455,0.0
3095,-0.07400640849819001,0.0
3096,-0.03984207378675707,0.0
3097,-0.036655998961501554,0.0
3098,0.06215037348136883,0.0
3099,0.03193419811494767,0.0
3100,0.40783982744783803,0.0
3101,4.071171959482803,0.0
3102,6.674249043601475,0.0
3103,-1.1437631595266406,0.0
3104,-1.4190084398486364,0.0
3105,1.4307617800684183,0.0
3106,-0.8327133137632947,0.0
3107,0.201402163227909,0.0
3108,-0.01596269950430599,0.0
3109,-0.1193892437598624,0.0
3110,0.03157498301234252,0.0
3111,0.045721285522066495,0.0
3112,-0.07225102547033352,0.0
3113,-0.04232198168887616,0.0
3114,0.0335797747230989,0.0
3115,0.0962472217511259,0.0
3116,-0.046966437514229395,0.0
3117,0.014125452568637072,0.0
3118,0.10387910972147715,0.0
3119,-0.008748372824415434,0.0
3120,0.3736023662104719,0.0
3121,4.129582042390862,0.0
3122,6.661334534180027,0.0
3123,-1.0439228284460276,0.0
3124,-1.4398282911799893,0.0
3125,1.4747242890027328,0.0
3126,-0.7936526883983204,0.0
3127,0.3190618220584868,0.0
3128,-0.05187499245999994,0.0
3129,0.08391926142748513,0.0
3130,-0.06002984836591642,0.0
3131,0.10054085640379318,0.0
3132,-0.03896921795617808,0.0
3133,-0.006815958846188401,0.0
3134,-0.0018205649164894887,0.0
3135,-0.0014253869131244934,0.0
3136,-0.043693601336347185,0.0
3137,0.019431733216425183,0.0
3138,-0.006752090250813641,0.0
3139,0.03433400671858099,0.0
3140,0.4111848939634143,0.0
3141,4.026054840371661,0.0
3142,6.581895978174043,0.0
3143,-1.0562790871497247,0.0
3144,-1.464826084227089,0.0
3145,1.5017739206175242,0.0
3146,-0.7859612634042847,0.0
3147,0.1759886590993788,0.0
3148,0.014056957659926577,0.0
3149,0.13578842740890062,0.0
3150,0.005568143634063272,0.0
3151,-0.08577553678214717,0.0
3152,0.0057585450363437304,0.0
3153,0.01239809334037395,0.0
3154,-0.00016560661474927796,0.0
3155,0.06676690398123239,0.0
3156,0.08545954029526248,0.0
3157,0.0013292702237415882,0.0
3158,0.0484516676981855,0.0
3159,-0.05572793500176821,0.0
3160,0.43224263785640665,0.0
3161,4.0704801085487565,0.0
3162,6.613244145489308,0.0
3163,-1.0695825750421701,0.0
3164,-1.4910528830107932,0.0
3165,1.512365688988121,0.0
3166,-0.6642410725904309,0.0
3167,0.2660569554381103,0.0
3168,0.12566638620866286,0.0
3169,0.053787453663450516,0.0
3170,0.12606600261501627,0.0
3171,0.007836179066775494,0.0
3172,-0.022257198702127508,0.0
3173,0.065814064001199,0.0
3174,0.10363687985875306,0.0
3175,0.023048319618814213,0.0
3176,0.03225717525688834,0.0
3177,0.08204825708983529,0.0
3178,0.08344482004325904,0.0
3179,0.06787061112788405,0.0
3180,0.4235960797661902,0.0
3181,4.107325076672703,0.0
3182,6.687700156925234,0.0
3183,-1.1007277856217137,0.0
3184,-1.3821495087992428,0.0
3185,1.457996449613946,0.0
3186,-0.7910787678727499,0.0
3187,0.2591243500184106,0.0
3188,0.10693452991101116,0.0
3189,0.061136119942846304,0.0
3190,0.017857550422270614,0.0
3191,0.07267820721986237,0.0
3192,0.09756420402354657,0.0
3193,0.0608153485943072,0.0
3194,0.06079629495307269,0.0
3195,0.06218513444968696,0.0
3196,0.1094641114541308,0.0
3197,0.0895855762545824,0.0
3198,0.06698240995546464,0.0
3199,0.1519262552008767,0.0
3200,0.4846875398698458,0.0
3201,4.228713449488885,0.0
3202,6.653811715581836,0.0
3203,-0.9928738546086431,0.0
3204,-1.4400796370085762,0.0
3205,1.4879850602916684,0.0
3206,-0.784790974722315,0.0
3207,0.3790259734670423,0.0
3208,0.0739474732785303,0.0
3209,-0.015232279579003652,0.0
3210,0.09191900831769692,0.0
3211,0.08744266732666986,0.0
3212,0.08646290585637219,0.0
3213,0.1519725934138265,0.0
3214,0.1524237673618618,0.0
3215,0.1369514206108146,0.0
3216,0.13871475545868742,0.0
3217,0.10659647377264077,0.0
3218,0.17360181796102295,0.0
3219,0.09826646095294717,0.0
3220,0.4502454666632388,0.0
3221,4.167363802096902,0.0
3222,6.771200701236703,0.0
3223,-0.9670631283482696,0.0
3224,-1.4005192504075734,0.0
3225,1.528343561106798,0.0
3226,-0.5903571619208892,0.0
3227,0.3876860234117645,0.0
3228,0.13308529805937422,0.0
3229,-0.004710754553407789,0.0
3230,0.12425988123294963,0.0
3231,0.2032721479503743,0.0
3232,0.14703767520686456,0.0
3233,0.026418849664415794,0.0
3234,0.04735333361742553,0.0
3235,0.13797326012487868,0.0
3236,0.14392313396835596,0.0
3237,0.0778277236909548,0.0
3238,0.1311486577119047,0.0
3239,0.14244348040470858,0.0
3240,0.5116330344899008,0.0
3241,4.248445942492937,0.0
3242,6.71840716265444,0.0
3243,-1.0665229416950175,0.0
3244,-1.304741026869041,0.0
3245,1.5565303828919697,0.0
3246,-0.6297454965022158,0.0
3247,0.30918154865283365,0.0
3248,0.17481802867739404,0.0
3249,0.007732622536508943,0.0
3250,0.1237385327745418,0.0
3251,0.11285302662299808,0.0
3252,0.06519359871219403,0.0
3253,0.1685323952347626,0.0
3254,0.152718017643504,0.0
3255,0.15610203122296556,0.0
3256,0.18177696713572838,0.0
3257,0.10733015429196445,0.0
3258,0.09616610415832606,0.0
3259,0.18654774724536288,0.0
3260,0.5579202191501209,0.0
3261,4.200963999918696,0.0
3262,6.776683341355522,0.0
3263,-1.0823800039423621,0.0
3264,-1.2926852436894116,0.0
3265,1.5468811408376515,0.0
3266,-0.6744502339790337,0.0
3267,0.3639839079773472,0.0
3268,0.10261831436202012,0.0
3269,-0.022076825672887684,0.0
3270,0.11166277810182938,0.0
3271,-0.009411579763732109,0.0
3272,0.09620796947250279,0.0
3273,0.14065169248957637,0.0
3274,0.13927795843633967,0.0
3275,0.18811892943210975,0.0
3276,0.09272406675312098,0.0
3277,-0.0032216862256148754,0.0
3278,0.05382681218174146,0.0
3279,0.13391907675986214,0.0
3280,0.5922147356734783,0.0
3281,4.204347949371197,0.0
3282,6.704836260707155,0.0
3283,-1.0606958558085504,0.0
3284,-1.2671417188805572,0.0
3285,1.601696207149248,0.0
3286,-0.6776264944606996,0.0
3287,0.28661312599081085,0.0
3288,0.012872731891815786,0.0
3289,0.05671646170478068,0.0
3290,0.14505622279002683,0.0
3291,0.1020399540001916,0.0
3292,0.0021609836155774,0.0
3293,0.16070914790593643,0.0
3294,0.07063973058106447,0.0
3295,0.09710259482224487,0.0
3296,0.03498334354736143,0.0
3297,0.0730973809106702,0.0
3298,0.06600217693224117,0.0
3299,0.06208846651080159,0.0
3300,0.46677565285566447,0.0
3301,4.159055242873225,0.0
3302,6.720018385934584,0.0
3303,-1.0859759627422552,0.0
3304,-1.2996567524534954,0.0
3305,1.4762183093528882,0.0
3306,-0.6565103778532152,0.0
3307,0.29687079210952494,0.0
3308,0.08027367549112585,0.0
3309,0.07143973672522325,0.0
3310,0.14759300129810532,0.0
3311,0.11470774246746557,0.0
3312,0.11228951655330673,0.0
3313,0.09874489716854284,0.0
3314,0.05573592659554189,0.0
3315,0.007039954501247406,0.0
3316,0.10090493073311063,0.0
3317,0.10727207297522202,0.0
3318,0.13316534837965305,0.0
3319,0.05417763002894745,0.0
3320,0.5030625531720614,0.0
3321,4.2860881664499635,0.0
3322,6.669100893883052,0.0
3323,-1.0696796859154778,0.0
3324,-1.377125424531143,0.0
3325,1.5476783201469428,0.0
3326,-0.7200448544063004,0.0
3327,0.28583501192084854,0.0
3328,0.042896706736617926,0.0
3329,0.08150404518323434,0.0
3330,0.1365283010581217,0.0
3331,0.07307307460326845,0.0
3332,0.02182517571481412,0.0
3333,0.05448886040201273,0.0
3334,0.02623104981531245,0.0
3335,0.12219164336395752,0.0
3336,0.09688546806627289,0.0
3337,0.07472599382500157,0.0
3338,0.09496813494266976,0.0
3339,0.1441945330637687,0.0
3340,0.49166587959337943,0.0
3341,4.154126475747269,0.0
3342,6.676431986458105,0.0
3343,-1.1218846646830603,0.0
3344,-1.411343389673262,0.0
3345,1.46971971183999,0.0
3346,-0.7029983525970404,0.0
3347,0.380829553761295,0.0
3348,-0.07557968543309704,0.0
3349,-0.05037380955312238,0.0
3350,0.12460062149864295,0.0
3351,-0.0025164415489702732,0.0
3352,0.07258832037956986,0.0
3353,0.1017757598692555,0.0
3354,0.04136855312235098,0.0
3355,0.10854901693883737,0.0
3356,0.07186624468915385,0.0
3357,-0.0792718282779406,0.0
3358,-0.04539608911491897,0.0
3359,0.05924733343069143,0.0
3360,0.33561807766547563,0.0
3361,4.027990480709563,0.0
3362,6.57075155039774,0.0
3363,-1.0825301819271895,0.0
3364,-1.4039755256272355,0.0
3365,1.4152353550186363,0.0
3366,-0.7558279861128627,0.0
3367,0.2888982160268556,0.0
3368,0.06728418144220567,0.0
3369,0.1242948701446644,0.0
3370,0.12290950062407013,0.0
3371,0.11981200947216425,0.0
3372,0.1577183640406493,0.0
3373,0.06338963331123734,0.0
3374,0.14846785423371964,0.0
3375,0.12221104404820407,0.0
3376,0.07981509461624893,0.0
3377,0.006973745849837579,0.0
3378,0.012750559610785542,0.0
3379,0.03608085271496509,0.0
3380,0.5154542660917125,0.0
3381,4.117320057495249,0.0
3382,6.596381967983893,0.0
3383,-1.056604397296176,0.0
3384,-1.3778050257970256,0.0
3385,1.4114007805899658,0.0
3386,-0.7395336418852209,0.0
3387,0.2313780086895672,0.0
3388,0.005432404549390851,0.0
3389,0.02147020465612443,0.0
3390,-0.03377530495098739,0.0
3391,-0.02790101227292914,0.0
3392,0.03980022609522241,0.0
3393,0.02133926599832342,0.0
3394,0.004395595442948909,0.0
3395,-0.004286094238049279,0.0
3396,0.14203904221276314,0.0
3397,0.07695241726000596,0.0
3398,0.007624728438813035,0.0
3399,0.02877867726469343,0.0
3400,0.4590116796907149,0.0
3401,4.125729222157773,0.0
3402,6.615747311008773,0.0
3403,-1.1961229518737015,0.0
3404,-1.3394249421102256,0.0
3405,1.3378200925144699,0.0
3406,-0.8326508173741908,0.0
3407,0.3247821762580526,0.0
3408,0.03989192748865983,0.0
3409,-0.019369484592171284,0.0
3410,0.00359093790642067,0.0
3411,0.06804062622530198,0.0
3412,0.10301267385862206,0.0
3413,0.06608089737750382,0.0
3414,0.06762888644012617,0.0
3415,0.08949100809122237,0.0
3416,0.061033073636292824,0.0
3417,-0.013039168064556572,0.0
3418,-0.05456952553550464,0.0
3419,0.042042502639069425,0.0
3420,0.4588133309067669,0.0
3421,4.205583865335817,0.0
3422,6.598374133915909,0.0
3423,-1.1887250718112108,0.0
3424,-1.380673841354157,0.0
3425,1.395239733902166,0.0
3426,-0.7981423891403204,0.0
3427,0.2241955266135288,0.0
3428,-0.02159388141382081,0.0
3429,-0.03139373363056585,0.0
3430,0.13078651351376003,0.0
3431,-0.013923333976520194,0.0
3432,-0.0025833516758247818,0.0
3433,-0.07243215425642546,0.0
3434,0.010545115578851147,0.0
3435,0.03845893740374707,0.0
3436,-0.026145872228545843,0.0
3437,-0.008041329963454427,0.0
3438,0.032816437476541095,0.0
3439,0.015638715984327492,0.0
3440,0.4556339892583666,0.0
3441,4.08562792123678,0.0
3442,6.614948859666828,0.0
3443,-1.2026156578669427,0.0
3444,-1.2844186673577425,0.0
3445,1.462779563155887,0.0
3446,-0.798342129704235,0.0
3447,0.16850927012394273,0.0
3448,0.02034590854269761,0.0
3449,-0.059530273722536595,0.0
3450,0.00902421595366297,0.0
3451,-0.012339234643401188,0.0
3452,0.0017289237147817098,0.0
3453,-0.03015871640061702,0.0
3454,0.0016625151086811334,0.0
3455,0.025081781260819565,0.0
3456,0.05476564788455675,0.0
3457,0.03768153238030724,0.0
3458,-0.005181891791345116,0.0
3459,0.04157759291442903,0.0
3460,0.436879388755878,0.0
3461,4.195825624694699,0.0
3462,6.554375264559565,0.0
3463,-1.187326246579219,0.0
3464,-1.3767665038190364,0.0
3465,1.5108541736529935,0.0
3466,-0.7810229633658158,0.0
3467,0.3075669703190286,0.0
3468,0.0066269222614907825,0.0
3469,-0.03327999376595067,0.0
3470,-0.019267693636270775,0.0
3471,-0.03311268997589941,0.0
3472,0.13872693947144182,0.0
3473,0.010354488737637887,0.0
3474,-0.01632646095313034,0.0
3475,-0.0023473746516051884,0.0
3476,-0.05280402875983287,0.0
3477,-0.0032375445228019,0.0
3478,0.06354531384205575,0.0
3479,0.02951028162589262,0.0
3480,0.3985744437875514,0.0
3481,4.145905575381004,0.0
3482,6.620926450726935,0.0
3483,-1.1501283129409459,0.0
3484,-1.3832342371443571,0.0
3485,1.4674227622100813,0.0
3486,-0.8480675386184293,0.0
3487,0.26204547914011467,0.0
3488,0.011250237825522313,0.0
3489,-0.011798419644496547,0.0
3490,0.021877448087211294,0.0
3491,0.012558675115169286,0.0
3492,-0.010486989833924796,0.0
3493,0.09892095608032138,0.0
3494,-0.03787270725255008,0.0
3495,0.016719688424026987,0.0
3496,0.0540217862479406,0.0
3497,0.053501006695861525,0.0
3498,0.0025473673657648924,0.0
3499,0.070802183354711,0.0
3500,0.5121646306642361,0.0
3501,4.215437347468053,0.0
3502,6.601734515883445,0.0
3503,-1.1102635987927914,0.0
3504,-1.346229852674232,0.0
3505,1.4884695879210128,0.0
3506,-0.6976816854714124,0.0
3507,0.20217789028281147,0.0
3508,0.031354394515559124,0.0
3509,0.06287993671806819,0.0
3510,0.017123899462244054,0.0
3511,0.039375956811004795,0.0
3512,0.07026217905803926,0.0
3513,0.08964900987738181,0.0
3514,0.032139973274341316,0.0
3515,-0.016520572271929837,0.0
3516,-0.008676329632628085,0.0
3517,-0.06656529546595519,0.0
3518,0.054808493500810816,0.0
3519,-0.007736863834840416,0.0
3520,0.4077484777384575,0.0
3521,4.159722878786683,0.0
3522,6.607795248286064,0.0
3523,-1.1896127341040057,0.0
3524,-1.3708890647362004,0.0
3525,1.3452930562783474,0.0
3526,-0.8084147707387792,0.0
3527,0.2783227654090572,0.0
3528,-0.026092179377924702,0.0
3529,-0.08691205408729456,0.0
3530,0.006933022714193826,0.0
3531,0.004744072586561513,0.0
3532,0.11982223561520446,0.0
3533,-0.04135725493354673,0.0
3534,0.05532922957820732,0.0
3535,0.08047235168194562,0.0
3536,-0.019584411353172244,0.0
3537,0.11820529889536519,0.0
3538,0.05963929715316353,0.0
3539,0.028471017277198175,0.0
3540,0.48430784501470786,0.0
3541,4.245098851388099,0.0
3542,6.647559354243541,0.0
3543,-1.0770947549524506,0.0
3544,-1.2287474652361416,0.0
3545,1.3821809298863719,0.0
3546,-0.705208196333452,0.0
3547,0.30199629886449575,0.0
3548,0.08563069854464342,0.0
3549,0.007802367662580446,0.0
3550,0.1579082106352047,0.0
3551,0.0941200870422065,0.0
3552,0.036177319264954766,0.0
3553,0.03214236508326538,0.0
3554,0.03606517093666927,0.0
3555,-0.0031418414557883093,0.0
3556,0.048025307569296155,0.0
3557,-0.016151335452028733,0.0
3558,0.037334569448112635,0.0
3559,0.008001865768861416,0.0
3560,0.4110017759605175,0.0
3561,4.167294605833284,0.0
3562,6.522100005561356,0.0
3563,-1.2077040192388668,0.0
3564,-1.4110703027758968,0.0
3565,1.3190910006058836,0.0
3566,-0.7124331745045751,0.0
3567,0.2340384850186204,0.0
3568,0.040551876311623714,0.0
3569,-0.06094913178513565,0.0
3570,0.07206672432007508,0.0
3571,-0.01422478525212463,0.0
3572,0.07624341386473904,0.0
3573,-0.050891233587442526,0.0
3574,0.05568526089470362,0.0
3575,-0.10247226499143283,0.0
3576,0.0803871886728525,0.0
3577,0.03349605133712243,0.0
3578,-0.034732473124954304,0.0
3579,-0.06283969856720836,0.0
3580,0.2842189975883802,0.0
3581,4.152387810941916,0.0
3582,6.593664895582941,0.0
3583,-1.1827935251050914,0.0
3584,-1.3548369520277057,0.0
3585,1.4012155228102696,0.0
3586,-0.7720599631029724,0.0
3587,0.25365315200670274,0.0
3588,0.038747366323823806,0.0
3589,-0.07854332888141365,0.0
3590,0.1101102390297744,0.0
3591,0.10061099405372567,0.0
3592,-0.045918763204742225,0.0
3593,-0.043653142834219144,0.0
3594,0.041660824577139335,0.0
3595,-0.03077105558521812,0.0
3596,-0.013114100659979266,0.0
3597,-0.011847138109607244,0.0
3598,-0.03764243384207072,0.0
3599,0.05042960734668525,0.0
3600,0.5444212916497951,0.0
3601,4.097610641023394,0.0
3602,6.65652075983791,0.0
3603,-1.1976768159132043,0.0
3604,-1.4097312348371576,0.0
3605,1.350975344905094,0.0
3606,-0.8687256600984842,0.0
3607,0.22383149374339034,0.0
3608,-0.08477382964544294,0.0
3609,-0.018378166417890765,0.0
3610,-0.07666124012871911,0.0
3611,-0.03554919015634103,0.0
3612,-0.03952564948412581,0.0
3613,-0.09032642794388451,0.0
3614,0.011259308643646666,0.0
3615,-0.04803267132793836,0.0
3616,-0.048560221920014995,0.0
3617,0.050586510761552746,0.0
3618,-0.0061680099797702045,0.0
3619,-0.02631390171497059,0.0
3620,0.3781668069683253,0.0
3621,4.118268653668789,0.0
3622,6.53998015965942,0.0
3623,-1.222769893863175,0.0
3624,-1.3307596548348308,0.0
3625,1.3724858213686475,0.0
3626,-0.7854528726744345,0.0
3627,0.29472989220739776,0.0
3628,-0.0556249578109876,0.0
3629,-0.0016238134141193308,0.0
3630,0.10012750703297738,0.0
3631,0.004387231140125322,0.0
3632,0.02143639916748526,0.0
3633,0.01629092055050301,0.0
3634,-0.03751753187792742,0.0
3635,-0.00012165300226358103,0.0
3636,0.005145598508359314,0.0
3637,-0.03635647410232313,0.0
3638,0.06553904832911336,0.0
3639,0.052447613133134716,0.0
3640,0.48588253744121374,0.0
3641,4.1740447505578855,0.0
3642,6.527673868213827,0.0
3643,-1.239421475248583,0.0
3644,-1.396751841303691,0.0
3645,1.39091372384942,0.0
3646,-0.6755702688031817,0.0
3647,0.21871523085502392,0.0
3648,-0.03898247216169024,0.0
3649,0.07401532043892677,0.0
3650,0.024056518622854718,0.0
3651,0.09234600583638838,0.0
3652,0.06624342490813938,0.0
3653,-0.05829053350587327,0.0
3654,0.028384888994226747,0.0
3655,-0.033945862128211865,0.0
3656,-0.011808697001556963,0.0
3657,-0.04132510451946491,0.0
3658,0.056827834349598316,0.0
3659,-0.010856500796611155,0.0
3660,0.4079028111506885,0.0
3661,4.220780571367572,0.0
3662,6.49453185686057,0.0
3663,-1.2669942653879716,0.0
3664,-1.3332639409145777,0.0
3665,1.378423298544694,0.0
3666,-0.767504780003332,0.0
3667,0.32832296642715064,0.0
3668,-0.06618332655915736,0.0
3669,0.013104087942517356,0.0
3670,0.05859682943537291,0.0
3671,0.00381458958116024,0.0
3672,-0.05133090644987391,0.0
3673,-0.01833211896091635,0.0
3674,-0.07067371339985308,0.0
3675,0.07021169684924143,0.0
3676,0.14500303262212139,0.0
3677,0.12075099559687362,0.0
3678,0.042288697198995404,0.0
3679,0.03330646875138121,0.0
3680,0.39005026996190195,0.0
3681,4.22312253090715,0.0
3682,6.490560358195663,0.0
3683,-1.1809562045133422,0.0
3684,-1.2349544111281234,0.0
3685,1.4763967676141252,0.0
3686,-0.7175273229832009,0.0
3687,0.2039413027241831,0.0
3688,-0.036065316861466835,0.0
3689,-0.047251039531027605,0.0
3690,-0.034367615768348736,0.0
3691,-0.022218627484196413,0.0
3692,0.1011089838346165,0.0
3693,0.023800327587700128,0.0
3694,-0.026078996479698163,0.0
3695,0.013005762887312707,0.0
3696,-0.04718615969233341,0.0
3697,0.07644846349085363,0.0
3698,0.02225599086768868,0.0
3699,-0.05323477399110287,0.0
3700,0.40245686522906077,0.0
3701,4.152213614158067,0.0
3702,6.561397839003027,0.0
3703,-1.2221237772048041,0.0
3704,-1.3466341121499872,0.0
3705,1.4175289616933737,0.0
3706,-0.8102475116322555,0.0
3707,0.246209143088642,0.0
3708,-0.018239324518916383,0.0
3709,-0.11013140030269145,0.0
3710,0.05705764086046927,0.0
3711,-0.04313636022666675,0.0
3712,0.09032115226468308,0.0
3713,0.10500019988529335,0.0
3714,0.07193198607563095,0.0
3715,-0.018994385553817522,0.0
3716,0.07976279893304888,0.0
3717,0.06939706685227742,0.0
3718,0.0059475524049560635,0.0
3719,0.012550666120163211,0.0
3720,0.5174673432071645,0.0
3721,4.151255340498023,0.0
3722,6.544366033461373,0.0
3723,-1.2148694133061222,0.0
3724,-1.2769838516562393,0.0
3725,1.397022314930005,0.0
3726,-0.724573830010303,0.0
3727,0.25055170250690956,0.0
3728,0.00019462382486630167,0.0
3729,-0.05740008133481208,0.0
3730,0.038158482209270976,0.0
3731,0.009982337330432306,0.0
3732,0.012092631096688362,0.0
3733,-0.013377564428834579,0.0
3734,0.037177669692818015,0.0
3735,-0.04435355410850361,0.0
3736,-0.0061033999010522075,0.0
3737,0.08270049746192044,0.0
3738,-0.0032327590318758648,0.0
3739,-0.009486506658461808,0.0
3740,0.4893629083285463,0.0
3741,4.162447520017907,0.0
3742,6.509653087040327,0.0
3743,-1.1968531574351315,0.0
3744,-1.3199051691168173,0.0
3745,1.3572611845532037,0.0
3746,-0.8468699049382029,0.0
3747,0.1996748082059509,0.0
3748,0.023698225845957148,0.0
3749,-0.023778104665682094,0.0
3750,-0.10357240788586905,0.0
3751,-0.09421600145416523,0.0
3752,-0.07529257082633166,0.0
3753,-0.018133935878273506,0.0
3754,0.010559239646857925,0.0
3755,0.06441015277432556,0.0
3756,0.01887589992321131,0.0
3757,0.029678317120184938,0.0
3758,0.0002491854634493751,0.0
3759,0.010915947508991143,0.0
3760,0.56060928122775,0.0
3761,4.2267628071026,0.0
3762,6.6089871757985,0.0
3763,-1.1583880498995744,0.0
3764,-1.245047525175598,0.0
3765,1.5102410500988415,0.0
3766,-0.6841080487546947,0.0
3767,0.30937501032250203,0.0
3768,0.09134100661498236,0.0
3769,0.013944914895274305,0.0
3770,0.10880255674508878,0.0
3771,0.09291580993581461,0.0
3772,0.01710929529020655,0.0
3773,0.03684939591755869,0.0
3774,0.1331254937817574,0.0
3775,0.046046411290205314,0.0
3776,0.007064782108083197,0.0
3777,0.07948091356849367,0.0
3778,-0.07417227382916378,0.0
3779,0.09425319786264215,0.0
3780,0.5227295857837299,0.0
3781,4.184008093552644,0.0
3782,6.563124720852546,0.0
3783,-1.207496406541208,0.0
3784,-1.2577581071410373,0.0
3785,1.426508658155395,0.0
3786,-0.6588396346511144,0.0
3787,0.2879870906312353,0.0
3788,0.02770273888607852,0.0
3789,0.039351763666805664,0.0
3790,0.0789719983282889,0.0
3791,-0.06241412457331222,0.0
3792,0.10946139268261157,0.0
3793,0.002146244289757633,0.0
3794,-0.010896574241249943,0.0
3795,-0.015159994977651647,0.0
3796,0.07306160019103014,0.0
3797,0.055644753167419764,0.0
3798,0.003578662006610729,0.0
3799,0.043702247455770844,0.0
3800,0.5589358546528796,0.0
3801,4.246449445237854,0.0
3802,6.607506944799534,0.0
3803,-1.210758865171703,0.0
3804,-1.2027335558445895,0.0
3805,1.4448199610405645,0.0
3806,-0.802645943742868,0.0
3807,0.18117956868960156,0.0
3808,0.032543059044766925,0.0
3809,-0.023245005654496696,0.0
3810,-0.047149282179627876,0.0
3811,-0.04642386312944108,0.0
3812,-0.06509641611243072,0.0
3813,-0.03244241317133256,0.0
3814,-0.03271428114876268,0.0
3815,0.015745447888842225,0.0
3816,-0.0967099760668634,0.0
3817,-0.04472645821769135,0.0
3818,-0.02502599094862532,0.0
3819,0.026154917563240336,0.0
3820,0.36484422934354244,0.0
3821,4.162676738653059,0.0
3822,6.477422596739658,0.0
3823,-1.269769307706506,0.0
3824,-1.3153316911301878,0.0
3825,1.4445236859012582,0.0
3826,-0.7779423454194396,0.0
3827,0.24775549211972717,0.0
3828,-0.049765219298279206,0.0
3829,-0.026038644541756847,0.0
3830,0.05109538217262731,0.0
3831,0.03983638131432553,0.0
3832,0.07868027568955677,0.0
3833,0.0893650394771264,0.0
3834,0.03442307422206406,0.0
3835,-0.03330500138387628,0.0
3836,-0.030249505345196673,0.0
3837,0.027652885219954997,0.0
3838,-0.020487027155238754,0.0
3839,-0.007740657055228094,0.0
3840,0.4174316573717876,0.0
3841,4.155318882108201,0.0
3842,6.5805887674661925,0.0
3843,-1.2103721969024122,0.0
3844,-1.2632652105038649,0.0
3845,1.4674693327750257,0.0
3846,-0.6388007157920623,0.0
3847,0.308492559590819,0.0
3848,-0.07531201957949166,0.0
3849,-0.08571914632752524,0.0
3850,0.011495123602081936,0.0
3851,-0.0077284593270265795,0.0
3852,0.10826509464525666,0.0
3853,0.06945348820350919,0.0
3854,-0.07158914129959307,0.0
3855,-0.051211745143447424,0.0
3856,-0.039369645322330366,0.0
3857,-0.07154652311339453,0.0
3858,-0.044748601814583955,0.0
3859,0.023087156867576397,0.0
3860,0.436386136617756,0.0
3861,4.152474110124545,0.0
3862,6.508448484485365,0.0
3863,-1.2876817307318185,0.0
3864,-1.3700302579303487,0.0
3865,1.3116861360208596,0.0
3866,-0.8362556527531416,0.0
3867,0.2140875341072256,0.0
3868,-0.026532695596626764,0.0
3869,-0.005106480366298578,0.0
3870,0.03713100611468901,0.0
3871,-0.004825616971542533,0.0
3872,-0.031935611229582696,0.0
3873,0.012065264733314485,0.0
3874,-0.04272427862629483,0.0
3875,-0.0027260659261499646,0.0
3876,-0.02403181842051724,0.0
3877,-0.04451500101603653,0.0
3878,-0.008172647583864559,0.0
3879,-0.049333439206808466,0.0
3880,0.3129900851006271,0.0
3881,4.071128297169947,0.0
3882,6.542919865236824,0.0
3883,-1.2966264763375845,0.0
3884,-1.4176213710970218,0.0
3885,1.3004071769354921,0.0
3886,-0.993503567761972,0.0
3887,0.15179672695524332,0.0
3888,-0.08604103865868272,0.0
3889,-0.10858021050249016,0.0
3890,-0.11655262939282976,0.0
3891,-0.059161569184577614,0.0
3892,-0.12363211188589454,0.0
3893,-0.14130994350039675,0.0
3894,-0.11315899691448347,0.0
3895,-0.08256676894345491,0.0
3896,-0.05947470377179205,0.0
3897,-0.058637716113016526,0.0
3898,0.008078513055116626,0.0
3899,0.1143752367290987,0.0
3900,0.4990801283579884,0.0
3901,4.229038072777213,0.0
3902,6.570001601487391,0.0
3903,-1.2992995552423379,0.0
3904,-1.2806685117399368,0.0
3905,1.3944487088625963,0.0
3906,-0.7441943408718567,0.0
3907,0.3060967668662847,0.0
3908,-0.051371461131131176,0.0
3909,-0.1293571347500255,0.0
3910,0.027988567778247077,0.0
3911,-0.11931982054788487,0.0
3912,-0.12614567400925147,0.0
3913,-0.161217172773004,0.0
3914,-0.0932669953397263,0.0
3915,-0.049270164061005706,0.0
3916,-0.2014302899691332,0.0
3917,-0.1592059285838291,0.0
3918,-0.16713289853353872,0.0
3919,-0.17795915269563328,0.0
3920,0.26021971076081757,0.0
3921,4.074532945486648,0.0
3922,6.399293134238187,0.0
3923,-1.4617096100768832,0.0
3924,-1.4299472175819448,0.0
3925,1.320463951759647,0.0
3926,-0.881371637397348,0.0
3927,0.14329162586454494,0.0
3928,0.013782445457468373,0.0
3929,-0.08622450733178762,0.0
3930,-0.04543319645438016,0.0
3931,-0.05563040827355656,0.0
3932,-0.0317435633203546,0.0
3933,-0.04084829509234083,0.0
3934,-0.15370658757745864,0.0
3935,-0.030380929259394673,0.0
3936,-0.036223998740622515,0.0
3937,-0.01498757205376263,0.0
3938,-0.048480704229764596,0.0
3939,-0.0758480311921211,0.0
3940,0.3620958869885694,0.0
3941,4.152502901750099,0.0
3942,6.4936897980938975,0.0
3943,-1.2344340280215382,0.0
3944,-1.2424656095506839,0.0
3945,1.3818743063091141,0.0
3946,-0.7810876483556123,0.0
3947,0.20807076328279459,0.0
3948,-0.02416450051751025,0.0
3949,-0.0983815454219607,0.0
3950,-0.0195259770720229,0.0
3951,-0.0919498299909656,0.0
3952,-0.052956116391555404,0.0
3953,-0.014628759081046641,0.0
3954,0.0068330270339582826,0.0
3955,-0.02910185492928887,0.0
3956,-0.08094168606715378,0.0
3957,-0.06928317885810378,0.0
3958,0.009428127430287325,0.0
3959,-0.12059808518753198,0.0
3960,0.41659970643547095,0.0
3961,4.13436698644093,0.0
3962,6.456930154884383,0.0
3963,-1.3535112597679573,0.0
3964,-1.3517219250128951,0.0
3965,1.371555160056508,0.0
3966,-0.8454779913816696,0.0
3967,0.17910729758508473,0.0
3968,-0.08702894342359052,0.0
3969,-0.10300334483961086,0.0
3970,-0.03413921420125309,0.0
3971,-0.1002327548180362,0.0
3972,0.039163940818312724,0.0
3973,-0.04406566222059366,0.0
3974,0.0028439159849881004,0.0
3975,-0.17882202657178164,0.0
3976,-0.023268888497952868,0.0
3977,-0.08514064793747543,0.0
3978,-0.09622874054679917,0.0
3979,-0.040891042857620706,0.0
3980,0.3856575660911831,0.0
3981,4.103054137876556,0.0
3982,6.410010260501113,0.0
3983,-1.4098599522535935,0.0
3984,-1.4186095212442704,0.0
3985,1.260561930146979,0.0
3986,-0.9591318638426002,0.0
3987,0.06496548356235005,0.0
3988,-0.11976822690745827,0.0
3989,-0.10796976633944035,0.0
3990,-0.17914046010353768,0.0
3991,-0.12516681367768243,0.0
3992,-0.07261480387188483,0.0
3993,-0.14101723290583054,0.0
3994,-0.12519358031662728,0.0
3995,-0.11158931845867734,0.0
3996,-0.16309150041060558,0.0
3997,-0.15494203976791968,0.0
3998,-0.036812559351855276,0.0
3999,-0.16208615520859676,0.0
4000,0.401576193908109,0.0
4001,4.173479731512747,0.0
4002,6.349024268463434,0.0
4003,-1.2327868080153968,0.0
4004,-1.322669593074789,0.0
4005,1.402588287039553,0.0
4006,-0.7701069153670635,0.0
4007,0.1374279327825874,0.0
4008,-0.021092336030436275,0.0
4009,-0.057273698450652576,0.0
4010,-0.049421548193605655,0.0
4011,-0.012771601349749785,0.0
4012,-0.15601125468430288,0.0
4013,-0.0213273908806517,0.0
4014,-0.004069758546734574,0.0
4015,-0.03638692900220561,0.0
4016,-0.0466184581324456,0.0
4017,-0.01787743945762473,0.0
4018,-0.01010085391808141,0.0
4019,-0.06475660568250974,0.0
4020,0.4272484927335324,0.0
4021,4.190783799121198,0.0
4022,6.436543898030588,0.0
4023,-1.382461888432454,0.0
4024,-1.3636834153924298,0.0
4025,1.2952522758495073,0.0
4026,-0.8433962007910581,0.0
4027,0.1447676219947443,0.0
4028,-0.09467096342021052,0.0
4029,-0.057025168263832964,0.0
4030,-0.032896445402892494,0.0
4031,-0.11940660508447472,0.0
4032,0.008130893272424791,0.0
4033,-0.0067964055069591085,0.0
4034,-0.06140645178344011,0.0
4035,-0.05094583146507964,0.0
4036,-0.019299838031599847,0.0
4037,-0.08608137899165971,0.0
4038,-0.10969300410423628,0.0
4039,-0.054717585018879376,0.0
4040,0.41045970620461625,0.0
4041,4.1283160543093835,0.0
4042,6.4535074158233074,0.0
4043,-1.3379811563578115,0.0
4044,-1.3902466813138374,0.0
4045,1.328990950682707,0.0
4046,-0.8558264064292773,0.0
4047,0.2691635445366076,0.0
4048,-0.047089202136466814,0.0
4049,-0.11021955189317045,0.0
4050,0.01207572763185493,0.0
4051,-0.0021923254204716455,0.0
4052,-0.05414994021930118,0.0
4053,-0.03486208644943635,0.0
4054,-0.05739592845938302,0.0
4055,0.10309509605612704,0.0
4056,-0.0630562137393344,0.0
4057,-0.1093180990545566,0.0
4058,0.010238137126302834,0.0
4059,-0.0015369752756187148,0.0
4060,0.5267567245455969,0.0
4061,4.334909874192178,0.0
4062,6.485421886661315,0.0
4063,-1.3101059533068555,0.0
4064,-1.2478631745201865,0.0
4065,1.3814574679623575,0.0
4066,-0.6926838848007675,0.0
4067,0.2914554664642511,0.0
4068,0.00589405710404951,0.0
4069,0.067036970741649,0.0
4070,-0.0006299156714198364,0.0
4071,-0.021963185741720355,0.0
4072,-0.025657338950401346,0.0
4073,-0.01795600538698468,0.0
4074,0.011441880472544241,0.0
4075,-0.08927595135879624,0.0
4076,-0.07447972237377795,0.0
4077,-0.03398411929038355,0.0
4078,-0.046330624046238666,0.0
4079,-0.06379868012936173,0.0
4080,0.36747616291193486,0.0
4081,4.329099116509214,0.0
4082,6.40893827416526,0.0
4083,-1.3213849597599823,0.0
4084,-1.305614118950276,0.0
4085,1.4242430885509945,0.0
4086,-0.7185927055815445,0.0
4087,0.19957532812575826,0.0
4088,-0.040277415527169416,0.0
4089,-0.05850486409230847,0.0
4090,-0.004117584047754513,0.0
4091,-0.13477840154462117,0.0
4092,-0.07154227094676746,0.0
4093,-0.1300254998130166,0.0
4094,-0.05565814238793106,0.0
4095,-0.031752855393271696,0.0
4096,-0.08089366885585836,0.0
4097,0.003544660746724132,0.0
4098,-0.1531907145484204,0.0
4099,-0.0385543342709736,0.0
4100,0.41702460853912077,0.0
4101,4.202611764450658,0.0
4102,6.536852611507418,0.0
4103,-1.3808111940033845,0.0
4104,-1.367504666804025,0.0
4105,1.3061436895731928,0.0
4106,-0.8305519757998496,0.0
4107,0.1711634685993023,0.0
4108,-0.08021314277166244,0.0
4109,0.020375775592008233,0.0
4110,0.06216814554806755,0.0
4111,-0.013660412151923568,0.0
4112,-0.018816991144551213,0.0
4113,-0.10261937143508974,0.0
4114,-0.013161818842092603,0.0
4115,-0.07975924150335861,0.0
4116,-0.06630341740984286,0.0
4117,-0.02012535473523093,0.0
4118,0.11241539018880464,0.0
4119,-0.10939671983709744,0.0
4120,0.3024641110759961,0.0
4121,4.239315090735264,0.0
4122,6.461242943113789,0.0
4123,-1.3214795600355904,0.0
4124,-1.3106376298257003,0.0
4125,1.4156634547608156,0.0
4126,-0.8247490625408027,0.0
4127,0.15303582797047685,0.0
4128,-0.04390831956760396,0.0
4129,-0.07161496139052267,0.0
4130,-0.017134555059710115,0.0
4131,-0.020825897905497257,0.0
4132,0.053838765675765426,0.0
4133,-0.020363066117926525,0.0
4134,-0.07480253985401229,0.0
4135,-0.07872767123921234,0.0
4136,0.01622138444630627,0.0
4137,-0.019772411224167515,0.0
4138,0.0015831862570745842,0.0
4139,0.015984834382387694,0.0
4140,0.41363836944716587,0.0
4141,4.113625992706068,0.0
4142,6.427528590257817,0.0
4143,-1.4251925393199836,0.0
4144,-1.34755347192036,0.0
4145,1.3113243381099395,0.0
4146,-0.9787691246586312,0.0
4147,0.20710859308037796,0.0
4148,-0.10395048683117773,0.0
4149,-0.12371773489548268,0.0
