timestamp,value-0,is_anomaly
0,0.23870007681339217,0
1,3.5634010936586558,0
2,7.00801368451919,0
3,-0.28315667082463447,0
4,-2.0262716167992014,0
5,1.524811089477806,0
6,-0.720281090221056,0
7,0.12092449971560107,0
8,-0.07329423248461919,0
9,-0.09484921797222441,0
10,0.08293119675999314,0
11,-0.020646222405537665,0
12,-0.1073351690379479,0
13,-0.10440563493926017,0
14,-0.03679000633462247,0
15,-0.02833374436967964,0
16,0.0074985208436459325,0
17,-0.048741760577447425,0
18,0.013069378960355517,0
19,-0.05347571009497345,0
20,0.26414426895083665,0
21,3.4510977189098107,0
22,6.829930007479958,0
23,-0.17543092159817888,0
24,-1.9640986773507492,0
25,1.612014622426825,0
26,-0.7368586403037252,0
27,0.19600770652681274,0
28,0.09586694323819922,0
29,-0.01770952155615866,0
30,0.05400626224431043,0
31,0.019805411090512145,0
32,0.03027862909004241,0
33,0.06151412143908191,0
34,0.05397718454981602,0
35,-0.08812912729956783,0
36,0.07479885627700375,0
37,0.027514617657153163,0
38,-0.04318313192499463,0
39,0.009722225785117812,0
40,0.2817486720051664,0
41,3.437983170113482,0
42,6.902670829869331,0
43,-0.18964120979013377,0
44,-1.900611117076457,0
45,1.5239866787225573,0
46,-0.7766070839155419,0
47,0.058825498323930275,0
48,0.05742015410214702,0
49,0.0635827252126542,0
50,0.0263908226240888,0
51,-0.0006251386088626104,0
52,0.00396922025245157,0
53,0.029032379290556513,0
54,-0.04863636791957372,0
55,0.040091117882829444,0
56,-0.029128832648652507,0
57,-0.07557866888216196,0
58,0.029481531887450764,0
59,-0.06837458510515126,0
60,0.2481522718841069,0
61,3.5264220018901717,0
62,6.872597563828382,0
63,-0.26473276966668413,0
64,-1.8869010233427468,0
65,1.474736234093351,0
66,-0.6845425024278705,0
67,0.10675906826308622,0
68,0.0050146073327291645,0
69,-0.03995976638611525,0
70,-0.044930220437047905,0
71,-0.07168140866595174,0
72,0.009649089197356703,0
73,0.06309898271132312,0
74,0.03485643594688778,0
75,0.014678367912607442,0
76,-0.008827587541838084,0
77,-0.004646377923632092,0
78,-0.04260032039367202,0
79,-0.08438988977576282,0
80,0.2826774175532196,0
81,3.527775427604778,0
82,6.9334847789561005,0
83,-0.23677030770879368,0
84,-1.9237958977233849,0
85,1.5690491198116594,0
86,-0.6680185975345331,0
87,0.22096536890284846,0
88,0.15789729508570982,0
89,0.059334982990535926,0
90,0.08787575371294858,0
91,0.07194521988503351,0
92,-0.019475548123838858,0
93,0.14686222842107888,0
94,0.06252195205149476,0
95,0.08935451767088393,0
96,0.05231809760547447,0
97,-0.05753100689586477,0
98,0.04938939831644423,0
99,-0.09629306043002948,0
100,0.25174395691727863,0
101,3.594834093902411,0
102,6.825674792535129,0
103,-0.3784739977449937,0
104,-1.9336060917746904,0
105,1.439048843893902,0
106,-0.7630491477637614,0
107,0.057431130996386894,0
108,-0.050131767119924155,0
109,-0.0663616968314667,0
110,0.016414764469684276,0
111,0.008262195535503836,0
112,-0.12164911439109911,0
113,-0.010817993059077179,0
114,-0.12535723496680923,0
115,-0.07653529760218876,0
116,-0.12788203935471656,0
117,-0.05546739880118082,0
118,-0.05728630638638318,0
119,0.04549531366185192,0
120,0.22329529236879403,0
121,3.525982657413158,0
122,6.820128839541631,0
123,-0.2431858194013616,0
124,-1.8848551628020023,0
125,1.5830357687908565,0
126,-0.7687531399783157,0
127,0.17305184576236599,0
128,0.03875136497829099,0
129,-0.1558902581752587,0
130,0.004577513566748865,0
131,0.0026898203377345373,0
132,-0.041741886175487124,0
133,-0.02459480212316451,0
134,-0.0722333449168344,0
135,0.05889221835260891,0
136,-0.016015836645607982,0
137,-0.0817778487579731,0
138,-0.05413894707784743,0
139,0.03584321402994827,0
140,0.263601175136244,0
141,3.569194799397088,0
142,6.948735566255678,0
143,-0.16485492241211874,0
144,-1.991558077351864,0
145,1.6255980450257181,0
146,-0.7689111441996179,0
147,0.1658915348064602,0
148,0.018399833739368873,0
149,-0.07025498344410129,0
150,0.01740740866088695,0
151,-0.022648676230555075,0
152,-0.0020339389185575936,0
153,0.04751540378013924,0
154,0.05240654455290648,0
155,0.09902602889841966,0
156,0.012059439655940037,0
157,0.005656404959809178,0
158,-0.06385516935240733,0
159,0.02876028746460194,0
160,0.22784156364406147,0
161,3.5605673840399303,0
162,6.870799483573992,0
163,-0.2881614731971908,0
164,-1.9443652192025311,0
165,1.5163002399801058,0
166,-0.7025293563376953,0
167,-0.0017085215665335468,0
168,-0.005695328679349484,0
169,-0.10034490257360572,0
170,0.04026675961491391,0
171,-0.10976345430023779,0
172,0.02089859541867548,0
173,0.06500454658129418,0
174,0.0011401499002703496,0
175,0.027138412830606404,0
176,-0.01474614080516461,0
177,0.025117214119747665,0
178,0.050302180802891665,0
179,0.08289589047660985,0
180,0.31461020172926557,0
181,3.573138464996954,0
182,6.887614168443933,0
183,-0.20315668777328721,0
184,-1.8999464784289843,0
185,1.5560588563133448,0
186,-0.7530894458000063,0
187,0.17228778608859707,0
188,0.07542191475256371,0
189,0.020235378172026662,0
190,-0.04738289601147487,0
191,-0.023996510118432266,0
192,0.04229071367095896,0
193,0.007792726107794641,0
194,-0.07455104128276255,0
195,0.07735633160509499,0
196,-0.04299281272329199,0
197,-0.033493321764800965,0
198,0.05231583061529422,0
199,0.009376302215202376,0
200,0.2536901702878305,0
201,3.571076799477891,0
202,6.799597165879915,0
203,-0.3945403685949852,0
204,-1.8887865886267194,0
205,1.5478319315039024,0
206,-0.6622479503052419,0
207,0.1255959418450399,0
208,-0.04619647251587712,0
209,-0.1073127666325591,0
210,-0.04081946726200415,0
211,0.05498157368276691,0
212,0.0385372114447279,0
213,0.04026157388710618,0
214,-0.0009056996785958213,0
215,-0.08952830730888,0
216,-0.03076526925787373,0
217,0.06823508024435207,0
218,-0.018678663927683165,0
219,-0.08453071720992351,0
220,0.23033673746665115,0
221,3.4445074447821655,0
222,6.8062044188491395,0
223,-0.3361724016348872,0
224,-1.9164512014766333,0
225,1.6140911562380549,0
226,-0.75190515707044,0
227,0.06003717378350118,0
228,-0.00474228682862448,0
229,-0.059046451784718075,0
230,0.015556786665930461,0
231,-0.05800234799674554,0
232,0.03683983473858188,0
233,0.06854635296971763,0
234,-0.0025837468252524406,0
235,0.0766629871688724,0
236,0.1144367874063599,0
237,0.0629168418293026,0
238,-0.032959367932265005,0
239,-0.06483237224427044,0
240,0.2982399051069236,0
241,3.6600080012071503,0
242,6.984836121972332,0
243,-0.35644410040715185,0
244,-1.9140988637627794,0
245,1.5187163867720086,0
246,-0.6449380998401172,0
247,0.10311674720830641,0
248,0.003472462623368748,0
249,-0.012310904191403769,0
250,-0.011813347853989895,0
251,0.028088125609586196,0
252,0.03634855201912017,0
253,0.061707129442252505,0
254,0.043968428985964855,0
255,0.07020379588387907,0
256,0.11407968739056341,0
257,0.017109928721647086,0
258,0.09193278009367019,0
259,0.08766437552463821,0
260,0.3265103985926084,0
261,3.6278280191157486,0
262,6.9942844535088105,0
263,-0.26650846024869607,0
264,-1.9695336271862955,0
265,1.5447828060678948,0
266,-0.7112247641648336,0
267,0.24996315123679694,0
268,0.05638338093520129,0
269,-0.12271494829259405,0
270,0.03746501628164936,0
271,0.1367929613090324,0
272,-0.021488960574051842,0
273,-0.015713263236900168,0
274,-0.03099268590281607,0
275,-0.04123172191148141,0
276,0.016086946616858236,0
277,-0.03281464095684226,0
278,-0.017857310299992754,0
279,-0.00594306864058163,0
280,0.26516938560722914,0
281,3.6143147883236946,0
282,6.904246866257084,0
283,-0.275096728958562,0
284,-1.8852060128312578,0
285,1.5885212000575921,0
286,-0.695538124485382,0
287,0.13320646746724976,0
288,0.03163856962300103,0
289,-0.07347762063590635,0
290,0.08168060946980737,0
291,0.028433984347884547,0
292,0.02287454198224222,0
293,-0.07129709139477933,0
294,-0.10243830556789787,0
295,0.013650316700219232,0
296,0.047113503605458906,0
297,-0.03447471090254377,0
298,-0.037993724122501925,0
299,-0.03958544143190611,0
300,0.316302945735235,0
301,3.6208107141009522,0
302,6.972393880971216,0
303,-0.3095693197979628,0
304,-1.9246056222733734,0
305,1.6159062629241276,0
306,-0.6979230260039401,0
307,0.17061901859766448,0
308,0.1391405225966397,0
309,-0.017065502585303746,0
310,0.009733717349716385,0
311,-0.06842163474523766,0
312,0.00020636926393347553,0
313,-0.0013017995075255387,0
314,-0.0033139371107113206,0
315,-0.08571279189036099,0
316,-0.0037218819766584093,0
317,-0.07112922031655088,0
318,0.04711350582484056,0
319,-0.015320556986196738,0
320,0.3100655766155869,0
321,3.5660219466816474,0
322,6.794913456131666,0
323,-0.39532591344446893,0
324,-1.8989033312019754,0
325,1.509280067154555,0
326,-0.7484066968755223,0
327,0.1964700564760821,0
328,0.023874696054215785,0
329,-0.0469500242838658,0
330,-0.051524000157226454,0
331,0.012581002891648485,0
332,-0.018710333047545047,0
333,-0.02498470561461076,0
334,-0.04272766776900366,0
335,0.02566106199827337,0
336,0.059035363221024664,0
337,-0.030982320308339382,0
338,-0.10797797821408633,0
339,0.043233549025081044,0
340,0.2409078499438204,0
341,3.582684506251827,0
342,6.92992266632416,0
343,-0.4035518935465711,0
344,-1.9875056589134605,0
345,1.4488280737473163,0
346,-0.7254679287396926,0
347,0.13188595558137867,0
348,0.10183654356265404,0
349,-0.19365555058237405,0
350,-0.02221060250972872,0
351,0.04604479629834671,0
352,0.06969247842559569,0
353,-0.0018499222511081156,0
354,-0.09065226477040156,0
355,0.020600535568088257,0
356,-0.08449087139073656,0
357,0.004707390159998926,0
358,-0.14774467696630442,0
359,0.05028001611479128,0
360,0.1940113955641693,0
361,3.528897625659087,0
362,6.805334247587054,0
363,-0.40086115767447883,0
364,-2.0152381973933355,0
365,1.528671196404571,0
366,-0.7500484143413735,0
367,-0.0057818480201835,0
368,0.03815443326225519,0
369,-0.06009633802618093,0
370,-0.016251832786569536,0
371,-0.0672528199942119,0
372,-0.0743198363607056,0
373,-0.03230129333907555,0
374,-0.028991097992443076,0
375,-0.04389118340601264,0
376,-0.1135575319355517,0
377,-0.002771557072727547,0
378,-0.08955339280523,0
379,-0.007015929354731602,0
380,0.24741983425803724,0
381,3.4812683695255906,0
382,6.778916576182491,0
383,-0.44023182271430095,0
384,-1.955659028628931,0
385,1.3622772134699164,0
386,-0.7557134594385607,0
387,0.12946672323403657,0
388,0.027134309835959762,0
389,-0.05338403044940127,0
390,-0.14824599179162473,0
391,-0.059004930279379815,0
392,-0.07790308457836276,0
393,-0.1382408201511262,0
394,-0.10336986585246277,0
395,-0.02493605257328382,0
396,-0.01761074578500782,0
397,-0.07640047892262684,0
398,-0.043028907913632945,0
399,-0.09663843937930283,0
400,0.2988450079320139,0
401,3.5118557384222555,0
402,6.797297089103945,0
403,-0.42841453486306313,0
404,-1.9440146071709128,0
405,1.413492307243832,0
406,-0.7589247040674277,0
407,-0.0007665541973030376,0
408,-0.0327721238104646,0
409,-0.21449924766517342,0
410,-0.012017109552450222,0
411,-0.11640634606470476,0
412,-0.012255976425954343,0
413,-0.08728994888444719,0
414,-0.14024411779497187,0
415,-0.07191926436945403,0
416,-0.06378977061922692,0
417,-0.10165310283272547,0
418,-0.08343035336786367,0
419,0.03231442736182125,0
420,0.3063865503189416,0
421,3.4858654095692256,0
422,6.78563115558475,0
423,-0.46583310440197295,0
424,-1.9570375287103305,0
425,1.583931139750334,0
426,-0.7237035555373893,0
427,0.07970923697306447,0
428,-0.04465827034515814,0
429,-0.07488190713940547,0
430,0.00838056192919881,0
431,-0.10360263467662487,0
432,-0.08708401585585776,0
433,-0.11615824974261374,0
434,-0.08397582967636621,0
435,-0.032782072765762296,0
436,-0.027426693363985285,0
437,0.03549260567988795,0
438,-0.022263963443344213,0
439,-0.029622113520029775,0
440,0.13482429027943293,0
441,3.5222350982025206,0
442,6.816593211190528,0
443,-0.38734331652483545,0
444,-1.9111206299036474,0
445,1.5534629768229185,0
446,-0.8853974953289518,0
447,0.09716858983752312,0
448,-0.022654310446097857,0
449,-0.14243054856492343,0
450,-0.03551221077916016,0
451,0.03077558844238766,0
452,-0.09421299210469136,0
453,-0.09466250241363089,0
454,-0.0724553966312568,0
455,-0.03704136813930795,0
456,-0.009049202476915277,0
457,-0.1038826646324146,0
458,-0.0907494297141731,0
459,-0.052726313348454304,0
460,0.24912671346906148,0
461,3.514610769773706,0
462,6.82482874527511,0
463,-0.36978093244859855,0
464,-1.9533145334053723,0
465,1.507569660942909,0
466,-0.8148537339762484,0
467,0.07644877725278156,0
468,0.04976880952858222,0
469,-0.10146775295826138,0
470,-0.011795843240222238,0
471,-0.1723084524495962,0
472,-0.05182189468943869,0
473,0.01882502456823386,0
474,-0.14981161786266428,0
475,-0.020230884140561928,0
476,-0.12135355259597444,0
477,-0.1607609364786189,0
478,-0.09640275161375304,0
479,-0.17444477979440953,0
480,0.16313912882843734,0
481,3.4500680883462884,0
482,6.792735403197447,0
483,-0.41761092564974456,0
484,-2.0446809312909977,0
485,1.5562111937465843,0
486,-0.7262604236447414,0
487,0.11677485547690333,0
488,0.009057326713408658,0
489,-0.23209297930162143,0
490,-0.014460875635970143,0
491,-0.028781911643851306,0
492,-0.050141497189107403,0
493,0.01775589445556411,0
494,0.03837609270221072,0
495,-0.003495628259598437,0
496,-0.0333702809896091,0
497,-0.04701713713564275,0
498,-0.0652965158699883,0
499,-0.08635355083123417,0
500,0.19504752549511045,0
501,3.584703374788365,0
502,6.9269378588844965,0
503,-0.4529119682538551,0
504,-1.8421772896458481,0
505,1.5216755742887678,0
506,-0.6908667454747224,0
507,0.16898121704206748,0
508,0.03824565915022427,0
509,-0.14082963018794264,0
510,-0.017342188134841147,0
511,-0.042335322475628115,0
512,-0.007772428031478165,0
513,0.0900726383547242,0
514,0.10145745924282806,0
515,-0.0709986330858548,0
516,-0.06051952579770453,0
517,0.028912546778741513,0
518,-0.12186516986588647,0
519,-0.024065404408717003,0
520,0.2891690871658984,0
521,3.483384825133798,0
522,6.84715754923885,0
523,-0.34684995987643463,0
524,-1.898811410859965,0
525,1.5263686374128476,0
526,-0.7554505708040086,0
527,0.13152764489361318,0
528,0.06845413634168687,0
529,-0.07833736800879906,0
530,-0.06335885781916391,0
531,0.005880215116635369,0
532,-0.16134381564299705,0
533,-0.013116274614409559,0
534,-0.04425141463585973,0
535,0.011224458957332876,0
536,-0.022545454887708406,0
537,-0.06113400459545014,0
538,-0.0028632429534822534,0
539,-0.022118987388254307,0
540,0.11215608849690842,0
541,3.549098337721044,0
542,6.825055867085472,0
543,-0.44160920205017246,0
544,-1.9199661314348504,0
545,1.5007836229163698,0
546,-0.6948634871377143,0
547,0.1422408613948769,0
548,0.09413945008815303,0
549,-0.0363958255770923,0
550,0.05287151317405668,0
551,0.0379278128020252,0
552,0.014880236194681923,0
553,0.07813318242189715,0
554,0.06904181148880358,0
555,0.007435694204186199,0
556,0.07506845861651341,0
557,0.05055026380383195,0
558,0.16387369057058424,0
559,0.02988411674176683,0
560,0.44415283690063995,0
561,3.6267085076435235,0
562,6.981624796961741,0
563,-0.4301527729391838,0
564,-1.9203723536140105,0
565,1.5396979528994286,0
566,-0.6883745922281603,0
567,0.0662664369443342,0
568,-0.03171219977974699,0
569,-0.10605608527135264,0
570,-0.01743963225784688,0
571,-0.01518590601185121,0
572,-0.019682300868074157,0
573,-0.01328961101491253,0
574,0.06524046223687677,0
575,-0.12582492817659935,0
576,-0.048254210871651354,0
577,-0.039693995413297746,0
578,-0.033242019273293066,0
579,-0.031005944520748608,0
580,0.2674062996572725,0
581,3.52156513191834,0
582,6.898962474993089,0
583,-0.405179571315629,0
584,-1.9497174076494488,0
585,1.4884871470313448,0
586,-0.7436664871778598,0
587,0.1501568449486978,0
588,-0.019400242220267268,0
589,-0.14530592158258146,0
590,-0.12538266459640035,0
591,-0.09000969178107673,0
592,-0.003111847274750404,0
593,-0.02545093526112366,0
594,-0.12848164460045697,0
595,-0.03225430742979716,0
596,0.003006154874874944,0
597,-0.01938704104472744,0
598,-0.05930195328391573,0
599,0.015551370341544335,0
600,0.3464998547446753,0
601,3.5240473522082927,0
602,6.740007076596111,0
603,-0.4678943827517011,0
604,-1.8475630220659125,0
605,1.6179605107915531,0
606,-0.7389232296361604,0
607,0.07777343852138084,0
608,0.009800594513729373,0
609,-0.020918707161705213,0
610,-0.03674841401653907,0
611,0.023508912328751744,0
612,0.024370566065779805,0
613,0.020527326711735093,0
614,0.0011175543748627227,0
615,-0.02925055535183793,0
616,0.10552542705324819,0
617,0.0007352428451210813,0
618,-0.023764643909556897,0
619,-0.00520891424543999,0
620,0.4100019187112888,0
621,3.6726657162621614,0
622,6.825543445352359,0
623,-0.4700680907895506,0
624,-1.9341339058723683,0
625,1.5223066945463688,0
626,-0.7557845791402781,0
627,0.0957996974173433,0
628,-0.10278398868906577,0
629,-0.1778400884037971,0
630,-0.07522307719993876,0
631,-0.1249323706032043,0
632,-0.11801031279444925,0
633,-0.20204859366111333,0
634,-0.11245579135498009,0
635,-0.16281841754955204,0
636,-0.1064469577886505,0
637,-0.05286973981452774,0
638,0.007190786795240808,0
639,-0.10988996903283733,0
640,0.2630373500078081,0
641,3.5053918844386396,0
642,6.727426775235005,0
643,-0.4745754278746507,0
644,-1.8783198437651059,0
645,1.558224957358792,0
646,-0.6854326148183557,0
647,0.18776043237465537,0
648,-0.02111303274160692,0
649,-0.04480290326282178,0
650,0.04406877238167837,0
651,0.04153991584962134,0
652,0.09513013909831886,0
653,0.09776151724887541,0
654,0.011562150129762123,0
655,0.007999492921319584,0
656,-0.10292500471780845,0
657,0.03881239166262135,0
658,-0.04222768056335491,0
659,0.028311071400310216,0
660,0.28182754234893054,0
661,3.6617980434125372,0
662,6.919066049641907,0
663,-0.47612671992372224,0
664,-1.796284051508129,0
665,1.5749724195809238,0
666,-0.6448270777627106,0
667,0.12009572704910888,0
668,0.011183924515774202,0
669,-0.0038242504463325278,0
670,0.029142027656757115,0
671,0.029318449519984125,0
672,-0.1369801592508823,0
673,-0.03361641324831584,0
674,0.018435409682150967,0
675,0.0706619423086319,0
676,0.030945629223992233,0
677,0.061413813844563854,0
678,0.003315104656429011,0
679,0.0020654264968674486,0
680,0.3433157398772335,0
681,3.664250926882683,0
682,6.883490005402395,0
683,-0.4224883009779065,0
684,-1.8633300925134597,0
685,1.4392532745006759,0
686,-0.7671141546114979,0
687,0.17587461613968586,0
688,0.002944020829898114,0
689,-0.0720284561276672,0
690,-0.08252167115677472,0
691,0.014231806620761817,0
692,-0.12522704753815223,0
693,-0.07380697849428744,0
694,-0.051061768851162495,0
695,-0.11656909551877138,0
696,0.03729303873518039,0
697,-0.12328960768653813,0
698,-0.04578114446060639,0
699,0.04799345932425954,0
700,0.3426660187892945,0
701,3.74653981072765,0
702,6.823411108468095,0
703,-0.4229328517907742,0
704,-1.792236794987923,0
705,1.473529472417324,0
706,-0.6463487291223938,0
707,0.2153992986412345,0
708,0.004867281102495076,0
709,-0.01589912058407429,0
710,-0.07332245788869213,0
711,0.004804302104563353,0
712,0.062257790829142456,0
713,0.04649033888794725,0
714,0.048040452491931916,0
715,0.09232173307478014,0
716,0.04319362754006111,0
717,-0.04124889144485247,0
718,-0.08042935438612313,0
719,0.011950711860112574,0
720,0.24167639006401312,0
721,3.676343026185896,0
722,6.863213713523889,0
723,-0.41917367912299347,0
724,-1.8145262278383703,0
725,1.6019276377236265,0
726,-0.7952936603927764,0
727,0.07272067270396687,0
728,0.019437732485815113,0
729,-0.02887938662225431,0
730,0.06248732867588338,0
731,-0.03711341126164787,0
732,-0.01086856100620287,0
733,0.03772537662264379,0
734,-0.015463606158457672,0
735,-0.03430406649020228,0
736,-0.13492032712994373,0
737,-0.0036394486103382712,0
738,0.03464992044329841,0
739,0.02018845318196133,0
740,0.24269335645524734,0
741,3.611114348313316,0
742,6.785353181357986,0
743,-0.4844593773934385,0
744,-1.7640617287232656,0
745,1.5828325254927977,0
746,-0.7742066077105486,0
747,0.16179135738600542,0
748,0.11532378969917464,0
749,0.029406345565507627,0
750,0.10178893018540525,0
751,0.03751677947384375,0
752,0.07295816330301377,0
753,-0.0007580473519682093,0
754,-0.0030177059999357894,0
755,0.0691523531964601,0
756,-0.02306074466311131,0
757,-0.0015610519038362324,0
758,0.08235827053941601,0
759,0.018020426941403413,0
760,0.2254162028012944,0
761,3.6017322665009064,0
762,6.768503732241895,0
763,-0.48825650706943025,0
764,-1.916043344545648,0
765,1.5672477941348448,0
766,-0.7556790081791458,0
767,0.22141648908700473,0
768,-0.0511326575111464,0
769,-0.08861873292560121,0
770,0.09597639176363412,0
771,-0.07736004224090072,0
772,-0.022451011440385412,0
773,-0.049230074226113224,0
774,-0.048316889601324506,0
775,0.04742223381765095,0
776,0.056334776524675216,0
777,-0.02265732371822238,0
778,-0.08461236769647387,0
779,-0.0018669825457500572,0
780,0.3761386873728456,0
781,3.732754468619182,0
782,6.864844807126991,0
783,-0.5479562068790618,0
784,-1.7794176406445539,0
785,1.5655294116454763,0
786,-0.7408173631581773,0
787,0.14029795399634418,0
788,0.08159366832807463,0
789,-0.05107811374186437,0
790,0.021456614583878975,0
791,0.026916391539514584,0
792,0.09224484716991797,0
793,0.08881038251440111,0
794,0.0632841745196136,0
795,0.0969185042518552,0
796,0.05119526051556544,0
797,-0.06040389006183654,0
798,0.04637220640394814,0
799,-0.027970133519060504,0
800,0.2530623097760235,0
801,3.628035163674956,0
802,6.877444281233859,0
803,-0.3869061152389917,0
804,-1.855889132838886,0
805,1.6094469631527566,0
806,-0.7312301437539179,0
807,0.2079944464678161,0
808,0.10835155606145333,0
809,0.03712861663562311,0
810,0.04146748793315248,0
811,0.0294579357940202,0
812,-0.03139021950412507,0
813,-0.007976631504128202,0
814,0.008380101326324017,0
815,0.026479564966545355,0
816,-0.05180029419368575,0
817,0.1333721890856074,0
818,0.01628691169158801,0
819,-0.05823801745920065,0
820,0.35466338479691206,0
821,3.675202468838295,0
822,6.9031168040849265,0
823,-0.3838381284584441,0
824,-1.8817705851021567,0
825,1.5535547650601127,0
826,-0.6771423263688072,0
827,0.16227558147272805,0
828,0.04758025418957118,0
829,-0.05498047283960461,0
830,-0.032371566405186306,0
831,0.08091172833173717,0
832,0.013718712379088414,0
833,0.05387104396728902,0
834,0.015053406237347959,0
835,0.04859017356890138,0
836,0.1297988267411041,0
837,0.07159752868509305,0
838,-0.006631011032564183,0
839,-0.04599014430476075,0
840,0.37879468807505934,0
841,3.6428607046490056,0
842,6.887149098970925,0
843,-0.4554903653419328,0
844,-1.8082521233411035,0
845,1.4568421179478728,0
846,-0.7546583280819172,0
847,0.24831271991171192,0
848,0.010339320057226958,0
849,-0.06279475000549349,0
850,-0.04778251188750482,0
851,0.10115350942988241,0
852,0.11289148022561904,0
853,0.021604987101015133,0
854,-0.015014501439520433,0
855,0.015410832365915464,0
856,0.10897531774535618,0
857,0.06280748322377455,0
858,-0.08384135272986004,0
859,0.05118455634365887,0
860,0.26089027036236123,0
861,3.75035680895265,0
862,6.854425005454368,0
863,-0.40396955322011197,0
864,-1.7678781462914221,0
865,1.591402501829431,0
866,-0.6938661368009523,0
867,0.2055249524246425,0
868,0.011991119951303156,0
869,-0.034449606679730155,0
870,0.02829734151209564,0
871,0.06377881700505253,0
872,0.06973289741007369,0
873,0.14493269326897437,0
874,0.06975229621854498,0
875,-0.01589827710175832,0
876,0.023513157256758656,0
877,0.03798577288770228,0
878,-0.013600359471301539,0
879,-0.030282804026231288,0
880,0.33928055736009094,0
881,3.6914744720159693,0
882,6.785630606123003,0
883,-0.4185091823273136,0
884,-1.810111509218276,0
885,1.5449642852274919,0
886,-0.6481915687364265,0
887,0.12556921487600559,0
888,0.11734817962349661,0
889,-0.06271227295224314,0
890,-0.03275588755373497,0
891,-0.011755399114737608,0
892,0.002496412951032456,0
893,-0.006870033985993915,0
894,-0.10776225842801324,0
895,0.04327208169776299,0
896,-0.004781225329791559,0
897,-0.057654999734935694,0
898,0.012301316043441507,0
899,-0.035868351299514684,0
900,0.23943113019396411,0
901,3.570814773655002,0
902,6.696383039937349,0
903,-0.5139971636787135,0
904,-1.8910422237509108,0
905,1.5932412457503606,0
906,-0.8448419601296417,0
907,0.10520913552856107,0
908,0.033317410611692494,0
909,-0.06986228996478415,0
910,-0.01196000394604363,0
911,-0.00364841089783839,0
912,0.04548254521830068,0
913,-0.0058106344736881515,0
914,-0.02124039776660624,0
915,-0.050388829988040895,0
916,0.019134572043027702,0
917,0.04204190996455512,0
918,-0.11786350824507669,0
919,0.012608416924869702,0
920,0.26888893072832226,0
921,3.5763660577377516,0
922,6.733866996740487,0
923,-0.4995718339043086,0
924,-1.8485227064417318,0
925,1.585889299441091,0
926,-0.7907818859037012,0
927,0.15884867982322987,0
928,0.028151355565626493,0
929,-0.06254371709338581,0
930,0.01664006037001394,0
931,0.03777056115126777,0
932,0.047568902185526056,0
933,-0.013596998017587802,0
934,0.0759022196432797,0
935,-0.10932834897800363,0
936,0.032567277249884806,0
937,0.037415804127052234,0
938,0.10710273961996991,0
939,0.022167790739732428,0
940,0.2568536645395016,0
941,3.6377258507713677,0
942,6.9189350943160015,0
943,-0.5651011545709571,0
944,-1.8284465757923543,0
945,1.561986276113449,0
946,-0.7894633203941858,0
947,0.11055702362235295,0
948,-0.04527891866808785,0
949,-0.08877284364136856,0
950,0.05321503901035905,0
951,-0.05764813467521867,0
952,-0.02330435174989086,0
953,0.001500216159865092,0
954,-0.1323331164745861,0
955,-0.05261100270338191,0
956,0.023410729985012195,0
957,-0.098839865217554,0
958,-0.00029390781655158627,0
959,-0.04379060962041725,0
960,0.26289864714754996,0
961,3.5365413350609103,0
962,6.837381593723867,0
963,-0.5550700782762642,0
964,-1.7768290504309021,0
965,1.5538418256129582,0
966,-0.7232150530670813,0
967,0.07676673371562691,0
968,-0.007169796414852486,0
969,-0.10714808179639589,0
970,0.060411286197038755,0
971,-0.06410746600701925,0
972,-0.01636980816955131,0
973,-0.059741729118875195,0
974,-0.005112815371907043,0
975,-0.09880383735203147,0
976,-0.05440444026334178,0
977,-0.006544371281500261,0
978,0.011894309744898121,0
979,-0.07911385288297974,0
980,0.20246540838830496,0
981,3.662819974586543,0
982,6.762658327455614,0
983,-0.5302339299802848,0
984,-1.7433414096076694,0
985,1.3652464043850123,0
986,-0.7616931629351181,0
987,0.037649218586179464,0
988,-0.010075912988981972,0
989,-0.14008390190479103,0
990,-0.07337622338097749,0
991,0.05169651789383485,0
992,-0.05203235025634329,0
993,-0.16791339047001091,0
994,-0.08793945460463695,0
995,-0.04947040147037707,0
996,-0.14520583978206172,0
997,-0.10194253068827347,0
998,-0.057367358288079935,0
999,-0.1083469441743671,0
1000,0.22930232234278555,0
1001,3.644621364183766,0
1002,6.746074379866777,0
1003,-0.6153965236462187,0
1004,-1.8687198688432356,0
1005,1.387997701687569,0
1006,-0.7059917554109851,0
1007,0.1933801334858672,0
1008,-0.09310262501030103,0
1009,-0.18169543527001322,0
1010,-0.10076012418584884,0
1011,-0.09373944469038012,0
1012,-0.014940940523549495,0
1013,-0.05339027536721484,0
1014,-0.08318020213303924,0
1015,-0.019198178866517958,0
1016,0.018449122519545544,0
1017,-0.01569278810252249,0
1018,-0.055654620753382664,0
1019,-0.10816471160294615,0
1020,0.18509165673692896,0
1021,3.593724673298009,0
1022,6.717809493666119,0
1023,-0.5957955424227872,0
1024,-1.9615238499217091,0
1025,1.501511212070106,0
1026,-0.7690114624578086,0
1027,0.13460221554293475,0
1028,-0.09005365866886864,0
1029,-0.15004683499647403,0
1030,-0.12170024357185696,0
1031,-0.0848745193782935,0
1032,-0.030437682366783333,0
1033,-0.07971751856013627,0
1034,-0.09835175565999235,0
1035,-0.09241433161489529,0
1036,-0.17654846349064415,0
1037,-0.08380992904451184,0
1038,-0.10930370603337222,0
1039,-0.10920287362480463,0
1040,0.24372775290459542,0
1041,3.5745473295925048,0
1042,6.7358252431333625,0
1043,-0.6166567627702172,0
1044,-1.8855327891754978,0
1045,1.4166563119936768,0
1046,-0.7509053909153957,0
1047,0.10944345340770559,0
1048,0.00698358561471072,0
1049,-0.1451068799288981,0
1050,-0.005881866561976912,0
1051,-0.027236704993390884,0
1052,-0.08294602036841392,0
1053,0.0009231134761142068,0
1054,-0.0723641561769419,0
1055,-0.0019183412842205087,0
1056,0.0031780561733227193,0
1057,0.027415844748795083,0
1058,-0.031247346089066905,0
1059,-0.10674593745025432,0
1060,0.25505192683220884,0
1061,3.646069465622489,0
1062,6.819233039722718,0
1063,-0.6331542016033351,0
1064,-1.8651836534367654,0
1065,1.4424651566628655,0
1066,-0.7753259277835768,0
1067,0.17614300849543868,0
1068,-0.030239822856229753,0
1069,-0.19497441083650147,0
1070,-0.05737494670551303,0
1071,0.0008294133410450058,0
1072,-0.04496323785979941,0
1073,-0.029343167897254257,0
1074,-0.05549259228476672,0
1075,0.05200782352007878,0
1076,0.06672533590234261,0
1077,0.11643636558090699,0
1078,-0.003673147095090413,0
1079,-0.009966280093877348,0
1080,0.3696461248989362,0
1081,3.6896381020388493,0
1082,6.840769214932569,0
1083,-0.5308457638700521,0
1084,-1.742678375712258,0
1085,1.5038525351626861,0
1086,-0.7433336175700604,0
1087,0.20754895013203845,0
1088,-0.041926261449212875,0
1089,-0.059395530489135206,0
1090,0.0692489975622851,0
1091,-0.04311815893281725,0
1092,0.021995795275486923,0
1093,-0.0458550876858298,0
1094,-0.0451522161754557,0
1095,-0.0814072367680342,0
1096,-0.06374811827117183,0
1097,0.11546813641276121,0
1098,0.012516265677561325,0
1099,0.032668651993778434,0
1100,0.2876202918693006,0
1101,3.640669006220297,0
1102,6.82148545425274,0
1103,-0.6233211691378486,0
1104,-1.8728701764405191,0
1105,1.4561830305922059,0
1106,-0.7529942982391769,0
1107,0.09145210852833655,0
1108,0.0651571598579624,0
1109,0.026406561724584922,0
1110,0.007053646810896398,0
1111,-0.1245566249135724,0
1112,-0.01671237194104636,0
1113,-0.021388165641297762,0
1114,-0.01893866349264387,0
1115,-0.053292098530504664,0
1116,-0.03248741456572591,0
1117,-0.01945871613870808,0
1118,0.028706157595067266,0
1119,0.02160302763000057,0
1120,0.29464432933001283,0
1121,3.6369339876364783,0
1122,6.803589333461194,0
1123,-0.5574591576453081,0
1124,-1.8126523405644457,0
1125,1.5344421694553492,0
1126,-0.7663104363226816,0
1127,0.12423301226505268,0
1128,-0.09737458919668385,0
1129,-0.08570800146347633,0
1130,-0.06994110941899381,0
1131,-0.026457096637550054,0
1132,0.060579260932390966,0
1133,-0.005416912220544676,0
1134,-0.01476902769151966,0
1135,0.025192975522080836,0
1136,0.024729571329850486,0
1137,-0.002164822200975002,0
1138,0.020625709766891438,0
1139,0.05186705789940045,0
1140,0.3174605761521436,0
1141,3.625154837243702,0
1142,6.743960009104031,0
1143,-0.5548535438295894,0
1144,-1.8003049655630503,0
1145,1.4902936826166973,0
1146,-0.7656748894473746,0
1147,0.10249042452555125,0
1148,0.019666981654306824,0
1149,-0.11225174736900836,0
1150,0.035342612900398154,0
1151,-0.01437452323776782,0
1152,0.02098216941973303,0
1153,-0.021466360567684736,0
1154,-0.03309671967328165,0
1155,-0.026290093916286193,0
1156,0.0018505667258314554,0
1157,-0.18744962859456438,0
1158,-0.06493663323395196,0
1159,-0.05387782895123648,0
1160,0.2765696666248672,0
1161,3.737582535926876,0
1162,6.629062611338127,0
1163,-0.5118307432909869,0
1164,-1.784018579996238,0
1165,1.5467433756953097,0
1166,-0.7932617166945647,0
1167,0.03763190188399354,0
1168,0.0477348154305051,0
1169,-0.03816448430403231,0
1170,0.0758764673808737,0
1171,0.05098611827520019,0
1172,0.09338332684310605,0
1173,-0.015042165153731947,0
1174,-0.07158927736463869,0
1175,0.0685561694488479,0
1176,-0.061707778878072474,0
1177,-0.11410618689833363,0
1178,0.03921612258933857,0
1179,-0.12882469283011005,0
1180,0.11573065701287805,0
1181,3.6362752386186448,0
1182,6.690350070585806,0
1183,-0.7368750399710003,0
1184,-1.8751261994693404,0
1185,1.409464160770011,0
1186,-0.8186520820981412,0
1187,0.12411485012562738,0
1188,0.004304546927550572,0
1189,-0.03572652153355378,0
1190,-0.007554758056247788,0
1191,-0.09977273258474328,0
1192,0.024465673527780403,0
1193,-0.001185681974480362,0
1194,0.030076674340240583,0
1195,0.005961925840549376,0
1196,0.016226375731703643,0
1197,-0.11629103420045842,0
1198,-0.0822783686818616,0
1199,0.02937888809135778,0
1200,0.34250400961109734,0
1201,3.6627999725645184,0
1202,6.874619806145059,0
1203,-0.6390730473170582,0
1204,-1.7645351457234748,0
1205,1.5384595808897361,0
1206,-0.8649185800438375,0
1207,0.1794874317537992,0
1208,-0.033489320903520685,0
1209,-0.06821575456178111,0
1210,0.048528750238808614,0
1211,-0.10008498227011267,0
1212,0.019709044791553214,0
1213,-0.01240382833437342,0
1214,-0.02415379292991593,0
1215,-0.003071540846722674,0
1216,0.002833723429249266,0
1217,0.07730220384252219,0
1218,0.01716231072805732,0
1219,-0.026226125657445972,0
1220,0.26367264954752556,0
1221,3.8004360938663138,0
1222,6.754436387285088,0
1223,-0.6116147898367288,0
1224,-1.8581061260995797,0
1225,1.479547009215624,0
1226,-0.8678849310331989,0
1227,0.06877400119447921,0
1228,-0.11575945201241541,0
1229,-0.12304399134111142,0
1230,-0.05180274025337792,0
1231,-0.08810739947954133,0
1232,-0.11595436216541755,0
1233,-0.03626681645499844,0
1234,-0.06572481529910199,0
1235,0.0016983431403645652,0
1236,-0.029577623346033755,0
1237,-0.052032978530438125,0
1238,0.01772071128089959,0
1239,-0.005866136702121353,0
1240,0.22246275279025218,0
1241,3.770539128330462,0
1242,6.8172593629144025,0
1243,-0.4981184327595483,0
1244,-1.7599824938114264,0
1245,1.4885925402523428,0
1246,-0.7787038999896779,0
1247,0.1121816442631178,0
1248,0.02211761746338524,0
1249,-0.10105338114956196,0
1250,-0.11495607022018615,0
1251,-0.03295360857038865,0
1252,-0.06292737065964857,0
1253,-0.016742840766209896,0
1254,-0.03059952733522844,0
1255,0.01004581075185381,0
1256,-0.04298705078287311,0
1257,-0.026368487655510805,0
1258,-0.047874832446555785,0
1259,0.0011931625873106283,0
1260,0.31120284361589506,1
1261,2.0639605570200303,1
1262,3.81653515086243,1
1263,5.47891611418771,1
1264,5.9306481928259975,1
1265,2.1212952258384354,1
1266,-0.7928561656209022,1
1267,-1.3179161708664784,1
1268,-1.0615851709871869,1
1269,0.5708168340179076,1
1270,0.9587990315088598,1
1271,-0.28977133157552576,1
1272,-0.5526207939203425,1
1273,0.035481115264210765,1
1274,0.10960792019406088,1
1275,0.015052479177271663,1
1276,-0.11269085816020294,1
1277,-0.10218317573539892,1
1278,0.030861355632315117,1
1279,-0.022390884219076517,1
1280,-0.007582057652640448,1
1281,0.002411266173901517,1
1282,-0.01136777865418171,1
1283,-0.04720839518292319,1
1284,-0.03288058132212274,1
1285,0.002186797423458389,1
1286,0.01383886057872132,1
1287,-0.005993718114097086,1
1288,-0.01669642781281893,1
1289,-0.0779877530085957,1
1290,0.33431453437414577,1
1291,3.650359834304641,1
1292,6.71849042553267,1
1293,-0.6051545108339583,1
1294,-1.7410137463585902,1
1295,1.4908483954444802,1
1296,-0.7177140527306013,1
1297,0.1894823056718625,1
1298,0.06425899352967905,1
1299,0.03462961724258524,1
1300,0.03632170902239881,1
1301,-0.03033487723687614,1
1302,0.027903169029928492,1
1303,0.004701750754425325,1
1304,-0.03422715999036119,1
1305,0.012324995322379323,1
1306,0.0740421748548023,1
1307,0.10440594426278951,1
1308,0.02774611669991691,1
1309,-0.007160699769141115,1
1310,0.3126843030762095,1
1311,3.7279048518215436,1
1312,6.734866130426657,1
1313,-0.6541353624021438,1
1314,-1.7356437366102226,1
1315,1.5640784405940027,1
1316,-0.7145537539973686,1
1317,0.14714612637060337,1
1318,0.008573477529352426,1
1319,-0.0961739562005784,1
1320,0.03024299444827304,1
1321,0.04930197101374738,1
1322,-0.003662377569420204,1
1323,-0.011807948661143718,1
1324,0.024913881795894377,1
1325,-0.009735811623656266,1
1326,0.06676429207064763,1
1327,0.01105511879734284,1
1328,0.09938882196509163,1
1329,0.025877918202905845,1
1330,0.3611250192876351,1
1331,3.71980922490694,1
1332,6.76621012131006,1
1333,-0.6225434434095138,1
1334,-1.6856749840031762,1
1335,1.5151332042377648,1
1336,-0.8283315825887942,1
1337,0.1770182478701557,1
1338,-0.05027529084219419,1
1339,-0.14923184528945105,1
1340,0.009241404543189495,1
1341,-0.12466520784690055,1
1342,-0.19600298311720354,1
1343,-0.047598334418209765,1
1344,0.052008900986022344,1
1345,-0.05431445416482628,1
1346,-0.020542101757888138,1
1347,-0.06617353591972211,1
1348,0.02722162073956431,1
1349,-0.008017344879665664,1
1350,0.30074515409786284,1
1351,3.7383139955877067,1
1352,6.744006506640416,1
1353,-0.524168191798551,1
1354,-1.7238049650104958,1
1355,1.5073233693190629,1
1356,-0.6774822087243706,1
1357,0.12876114500930722,1
1358,0.024567135312413002,1
1359,0.045905691373807844,1
1360,0.3474298558772758,0
1361,3.7166788545054152,0
1362,6.71379075354055,0
1363,-0.6069187581235727,0
1364,-1.7504104729913788,0
1365,1.5087394456616785,0
1366,-0.7708329309338948,0
1367,0.23770436193567082,0
1368,0.04165412168513466,0
1369,-0.03125784501305545,0
1370,0.049164147765202795,0
1371,0.06965182475155043,0
1372,-0.009566508060124157,0
1373,0.10456781534116155,0
1374,-0.09712984327968033,0
1375,-0.048573295934526604,0
1376,0.028599996168047197,0
1377,0.041778977640126454,0
1378,0.014149232054512005,0
1379,-0.0366818564853568,0
1380,0.28862511086507614,0
1381,3.7821165739205616,0
1382,6.694222741888574,0
1383,-0.6062188103922105,0
1384,-1.6789361902612425,0
1385,1.5073628791882199,0
1386,-0.7031340530201156,0
1387,0.1545844645393088,0
1388,0.10196874397358169,0
1389,-0.10192478303352347,0
1390,0.029531332473451008,0
1391,-0.005116478697947527,0
1392,0.04127121941967986,0
1393,-0.044363197131555836,0
1394,0.0005933010705067333,0
1395,0.03916350584269244,0
1396,-0.017278399623223178,0
1397,-0.04362740452105569,0
1398,0.016235067936177256,0
1399,0.04390817005125135,0
1400,0.3511965528989835,0
1401,3.6538125040830023,0
1402,6.889126826252756,0
1403,-0.6505107729816079,0
1404,-1.727580493385025,0
1405,1.6025807598673179,0
1406,-0.7449234313277524,0
1407,0.1845391599615451,0
1408,0.09595186663366259,0
1409,-0.003575366736052365,0
1410,0.1178387065994181,0
1411,0.05151222826483909,0
1412,-0.06678979068084004,0
1413,-0.053745565713783035,0
1414,0.030485898043645585,0
1415,0.030755241137776744,0
1416,-0.029013184432661848,0
1417,-0.031046827945683572,0
1418,0.07504454360760315,0
1419,-0.011381220112359525,0
1420,0.37796485707215605,0
1421,3.7666468169853125,0
1422,6.753988010105664,0
1423,-0.6994415090971414,0
1424,-1.6870570449288043,0
1425,1.4621725304068331,0
1426,-0.7492902713874718,0
1427,0.14253625288909194,0
1428,0.09895165056849456,0
1429,-0.06828400863014977,0
1430,0.0382014759314763,0
1431,0.030289807004294574,0
1432,-0.04313390544325765,0
1433,0.14947634894830691,0
1434,-0.03425882002301123,0
1435,0.13951762055978184,0
1436,0.03636351539941801,0
1437,-0.003572302511848844,0
1438,-0.03525330811287756,0
1439,-0.024874363528532742,0
1440,0.34400823914953155,0
1441,3.7418112200028117,0
1442,6.787483508936493,0
1443,-0.776840805251165,0
1444,-1.724479497567021,0
1445,1.611574883280685,0
1446,-0.7571714081146731,0
1447,0.21176848251506916,0
1448,0.0459742290802007,0
1449,0.021249166856276057,0
1450,0.018056372378966325,0
1451,0.04517438713536069,0
1452,0.011044365269114344,0
1453,-0.015894822648287305,0
1454,-0.030957843199226003,0
1455,0.013614768000885865,0
1456,0.02139893369895414,0
1457,-0.03275518307001083,0
1458,0.03281835357961093,0
1459,0.01959134935208135,0
1460,0.3392316421203714,0
1461,3.7478433296298426,0
1462,6.811103853517381,0
1463,-0.7026056181329439,0
1464,-1.7862089271793904,0
1465,1.508111795359704,0
1466,-0.8168819648432366,0
1467,0.16790161077157018,0
1468,-0.05666180030860396,0
1469,-0.16765553029931338,0
1470,-0.03067958215281895,0
1471,-0.018093026521705483,0
1472,-0.04907044462546126,0
1473,-0.06846307342173505,0
1474,-0.02272561366237532,0
1475,-0.11468107846553341,0
1476,-0.03529047968829622,0
1477,0.007961357690103192,0
1478,0.001999356836721225,0
1479,0.007319438834638102,0
1480,0.30346372441726954,0
1481,3.8107422879160016,0
1482,6.738357188882335,0
1483,-0.6029137659541719,0
1484,-1.6739843125534366,0
1485,1.5449499659200763,0
1486,-0.6462301082989574,0
1487,0.13641938948186788,0
1488,-0.027063589444381832,0
1489,0.003112533662009649,0
1490,0.08164705200101002,0
1491,-0.07341011708806491,0
1492,0.03676269007396098,0
1493,0.0640745897154769,0
1494,0.014975714779073833,0
1495,0.06858499198774813,0
1496,-0.06991948368952972,0
1497,0.027437540729777797,0
1498,0.04065133771506582,0
1499,0.042971374150770014,0
1500,0.23942729727953627,0
1501,3.7904117982990675,0
1502,6.832540322148122,0
1503,-0.633052916961726,0
1504,-1.752392212041685,0
1505,1.5529463629077838,0
1506,-0.6819682702432897,0
1507,0.2058851117232815,0
1508,-0.01951339605600029,0
1509,-0.06732259004706781,0
1510,0.014956492322203956,0
1511,0.011027815855450146,0
1512,-0.011350387834212234,0
1513,0.05675701477089304,0
1514,-0.004429104727544535,0
1515,0.1916129864692509,0
1516,0.08761992813511649,0
1517,0.009262137210576074,0
1518,0.10623229764012618,0
1519,0.0285678597891353,0
1520,0.4031651397942677,0
1521,3.909045979577894,0
1522,6.873070190248623,0
1523,-0.6115787420101291,0
1524,-1.6247407107769443,0
1525,1.6755484054018361,0
1526,-0.7278731130987649,0
1527,0.28554339953508695,0
1528,0.044029120641474774,0
1529,0.09178250877284877,0
1530,0.13742256849151774,0
1531,0.004889596514787244,0
1532,-0.001398344239499319,0
1533,0.05224576474391738,0
1534,-0.022859045314775672,0
1535,0.09712798757727246,0
1536,-0.010339256028165853,0
1537,-0.05031358310052489,0
1538,0.0064791229922111695,0
1539,0.09555833065625238,0
1540,0.2953521559556207,0
1541,3.663072292554594,0
1542,6.782015313071348,0
1543,-0.6956796585964161,0
1544,-1.720386812901863,0
1545,1.4799040900891638,0
1546,-0.8001221096421531,0
1547,0.1678278694469325,0
1548,0.06464738663626599,0
1549,-0.1611262687423311,0
1550,-0.08560444330088589,0
1551,-0.052293493839073835,0
1552,0.05434150156594947,0
1553,0.08815900668635543,0
1554,-0.015121008683844937,0
1555,-0.04698532129621859,0
1556,0.045731425129398345,0
1557,-0.07802530442333876,0
1558,-0.012182339023757347,0
1559,-0.021229689998386307,0
1560,0.3501898870860367,0
1561,3.7636723632890057,0
1562,6.775208193644678,0
1563,-0.6427786280506997,0
1564,-1.7260274941773175,0
1565,1.4900242461865263,0
1566,-0.710506772074461,0
1567,0.2586086552793181,0
1568,-0.05167816744021567,0
1569,-0.08133681356316633,0
1570,0.06743020425700806,0
1571,0.09508820837423965,0
1572,-0.034844626922885785,0
1573,0.08886259778007911,0
1574,0.10010449559108411,0
1575,0.028947644120315016,0
1576,0.04119222674929658,0
1577,-0.02526866230029082,0
1578,-0.018208152183683532,0
1579,-0.017532646979409358,0
1580,0.3172892716944532,0
1581,3.781808331922697,0
1582,6.776913725733752,0
1583,-0.6698681291453188,0
1584,-1.663566646295453,0
1585,1.4725180427298104,0
1586,-0.7173985788885456,0
1587,0.22929832334977418,0
1588,-0.04361733939731913,0
1589,-0.06859433505749403,0
1590,0.05051499435841034,0
1591,0.09883130194331669,0
1592,0.07564905712244334,0
1593,0.00048633208076309664,0
1594,0.005129670895931231,0
1595,0.05955531873468321,0
1596,0.05326441795392267,0
1597,0.1029041496160815,0
1598,0.0988620464455493,0
1599,0.026956213336173047,0
1600,0.4039146747193498,0
1601,3.7341870406744078,0
1602,6.867768467636262,0
1603,-0.6511130153196883,0
1604,-1.5700366544743771,0
1605,1.4939169038554987,0
1606,-0.7519149823878897,0
1607,0.16944700159416187,0
1608,0.024598656580944348,0
1609,-0.043237112996166005,0
1610,0.0446570593976418,0
1611,-0.037787648805222826,0
1612,-0.0708197053549181,0
1613,0.04022878125031574,0
1614,0.0752883750570143,0
1615,0.08104090552015034,0
1616,0.01314462762866217,0
1617,-0.008233955657500364,0
1618,0.07867309348943695,0
1619,0.0554585567663225,0
1620,0.3671978409099634,0
1621,3.808146181593001,0
1622,6.852046983906716,0
1623,-0.65332256972296,0
1624,-1.6947279971028866,0
1625,1.5039395370854252,0
1626,-0.7520012560163175,0
1627,0.212271897507642,0
1628,-0.014824948314122115,0
1629,0.038968761806998035,0
1630,0.06489513341166327,0
1631,0.017229234694193043,0
1632,-0.04276285227721172,0
1633,0.09754312298346582,0
1634,0.15376631045043376,0
1635,-0.02359785101889137,0
1636,0.02438744850844353,0
1637,0.10905083182848396,0
1638,0.03786444086213345,0
1639,-0.04404135873875336,0
1640,0.348244181885653,0
1641,3.8909080371492935,0
1642,6.741624895485215,0
1643,-0.6673887391801203,0
1644,-1.663962479294193,0
1645,1.536613302020289,0
1646,-0.6826412489639039,0
1647,0.301517733316608,0
1648,0.09584927069730453,0
1649,-0.0746481274380379,0
1650,-0.017329496943226802,0
1651,0.010666133065678703,0
1652,0.007454520097650821,0
1653,0.1256035218752599,0
1654,0.07616539538994599,0
1655,0.0831779515241885,0
1656,0.13606417832104534,0
1657,-0.0764706202865781,0
1658,-0.004828766747522177,0
1659,-0.037663459285852366,0
1660,0.3183831349213996,0
1661,3.8008919203016522,0
1662,6.680909449561201,0
1663,-0.8521149307615039,0
1664,-1.7108725374615859,0
1665,1.4835485900701417,0
1666,-0.8088473587182207,0
1667,0.20596745565140273,0
1668,-0.027627545126522643,0
1669,-0.12269588020475082,0
1670,0.03277527391208809,0
1671,-0.09731731878316188,0
1672,-0.051970531874200504,0
1673,-0.027129619324842317,0
1674,0.06666370801930796,0
1675,0.05259389141544922,0
1676,-0.009496605063836728,0
1677,0.007478696546232476,0
1678,0.003771844399204631,0
1679,0.07815825526230276,0
1680,0.33408817846540323,0
1681,3.8353818981662786,0
1682,6.693350397233603,0
1683,-0.7296485884496645,0
1684,-1.7401814468081154,0
1685,1.484202185966764,0
1686,-0.7539427821618102,0
1687,0.142593042563532,0
1688,-0.1030634503214806,0
1689,-0.05406251641603385,0
1690,-0.01249071774600568,0
1691,0.02339523975573527,0
1692,-0.06339686674077549,0
1693,-0.04006284685734539,0
1694,-0.08517248996884137,0
1695,-0.028688097285963953,0
1696,-0.041748636009494126,0
1697,-0.006736757573867658,0
1698,0.12380545841970246,0
1699,-0.010370300558872232,0
1700,0.30603913296081,0
1701,3.767124080258167,0
1702,6.761995425271915,0
1703,-0.7630810172562629,0
1704,-1.6838449372020932,0
1705,1.4851098684689807,0
1706,-0.7827430577952684,0
1707,0.12196603452405648,0
1708,0.0004935779071312974,0
1709,-0.08135249846235909,0
1710,0.021692460810831083,0
1711,-0.008304177243416762,0
1712,0.015750866662657702,0
1713,-0.03748342895517184,0
1714,-0.023303384722274938,0
1715,-0.0804025949041845,0
1716,-0.022096666146978722,0
1717,-0.046796112569511814,0
1718,-0.06403896417524993,0
1719,-0.09015738945283737,0
1720,0.36038444299757205,0
1721,3.681332145919206,0
1722,6.704216645415955,0
1723,-0.7051047019843395,0
1724,-1.6794976878846057,0
1725,1.481307605344786,0
1726,-0.8590601564117313,0
1727,0.02894030031230696,0
1728,-0.10104251525201852,0
1729,0.044404794546065884,0
1730,0.0265656499011398,0
1731,-0.17232086365889218,0
1732,-0.00371434970840194,0
1733,-0.03868656755866093,0
1734,0.005631220030580308,0
1735,-0.028446580994026402,0
1736,0.007753499550039272,0
1737,0.028074305247981598,0
1738,-0.03737039501041467,0
1739,-0.04723495798858787,0
1740,0.25459527070015114,0
1741,3.861705469724048,0
1742,6.82726455572041,0
1743,-0.7486571902966545,0
1744,-1.666086497734509,0
1745,1.4996480707049378,0
1746,-0.7746916339512341,0
1747,0.16491598051190318,0
1748,-0.056366731188131736,0
1749,-0.020063600753696703,0
1750,-0.00892846606291669,0
1751,0.0204613924060658,0
1752,-0.025570374571031076,0
1753,0.08359314563636994,0
1754,-0.12380029907160287,0
1755,-0.10356151552765558,0
1756,-0.09937616053194173,0
1757,-0.09914771547099108,0
1758,-0.14533851324061992,0
1759,-0.05182477891967495,0
1760,0.1830205741209169,0
1761,3.783089939581,0
1762,6.691690369322957,0
1763,-0.7740275121681219,0
1764,-1.7104855303008657,0
1765,1.4632778873684151,0
1766,-0.8207392238360772,0
1767,0.14789887401680324,0
1768,-0.046124857363962095,0
1769,-0.13922536203007452,0
1770,-0.01527125886898393,0
1771,-0.050732477564265424,0
1772,-0.10575813379203626,0
1773,0.032770447476475846,0
1774,-0.03813895669183686,0
1775,0.043476570814231105,0
1776,0.013082491716798327,0
1777,0.009391182129567913,0
1778,-0.016619857076519563,0
1779,0.016623039492358365,0
1780,0.3623004285900937,0
1781,3.7236757682943997,0
1782,6.797194659463025,0
1783,-0.628967783282181,0
1784,-1.6507125443333777,0
1785,1.5372692964308226,0
1786,-0.6422394448824301,0
1787,0.1260983012846285,0
1788,-0.009385854253746304,0
1789,-0.0031358875944978576,0
1790,-0.03152765068929981,0
1791,0.01520815182335067,0
1792,0.051731429605735395,0
1793,-0.00723874277642179,0
1794,0.011205979900857546,0
1795,0.0007297257138176296,0
1796,-0.038144158473640714,0
1797,-0.0031160546413939606,0
1798,0.062231697652955296,0
1799,-0.06894940323702267,0
1800,0.30588717285840045,0
1801,3.764267632551235,0
1802,6.73408267767853,0
1803,-0.8123079963034009,0
1804,-1.727764210440841,0
1805,1.4773346593845906,0
1806,-0.8065748032033337,0
1807,0.200564151496098,0
1808,-0.0713878106488302,0
1809,-0.02928661956448879,0
1810,-0.04703212311550274,0
1811,-0.12215212963725305,0
1812,-0.09896676426197416,0
1813,-0.09825023994271787,0
1814,-0.05076707200381358,0
1815,-0.009782905133171454,0
1816,0.03980713453170473,0
1817,-0.05298287914820078,0
1818,0.12151830480284807,0
1819,-0.017817565906762457,0
1820,0.30041925427673777,0
1821,3.7993527560619946,0
1822,6.706958124626531,0
1823,-0.7275918504097123,0
1824,-1.6989300931718658,0
1825,1.5133110023557959,0
1826,-0.9310813646196099,0
1827,0.08222756189457057,0
1828,-0.03235735788870795,0
1829,-0.045147509427643645,0
1830,0.045413401336200074,0
1831,-0.16570107611792936,0
1832,-0.022014469702807606,0
1833,0.008883169489956058,0
1834,-0.05070867385062234,0
1835,0.02266311785420414,0
1836,-0.07444312324066527,0
1837,0.0023502974116703166,0
1838,0.02766869891271719,0
1839,-0.09213127419361952,0
1840,0.3465067272195946,0
1841,3.877349008473911,0
1842,6.807861737914043,0
1843,-0.7088033637923996,0
1844,-1.655138888074068,0
1845,1.5433832952605957,0
1846,-0.7977550992140824,0
1847,0.19347439427733687,0
1848,0.0493795910482829,0
1849,-0.07902649306773951,0
1850,-0.00214759339406228,0
1851,0.025240008613373624,0
1852,-0.0325382596364967,0
1853,0.021481304202372892,0
1854,-0.11201872906720725,0
1855,-0.022417971977521083,0
1856,-0.04318225220355325,0
1857,-0.006612246809646959,0
1858,-0.01964041569085228,0
1859,-0.11493257999439549,0
1860,0.14107777921208342,0
1861,3.8541416948985034,0
1862,6.732904803798343,0
1863,-0.753602872744938,0
1864,-1.6226238236450845,0
1865,1.4656393182832421,0
1866,-0.791698235676279,0
1867,0.17730886332496856,0
1868,0.03985332933820669,0
1869,-0.0801743961765651,0
1870,-0.04304819300772761,0
1871,-0.0002032857092836328,0
1872,-0.034546997108338987,0
1873,-0.03679606584557384,0
1874,0.04748523894700671,0
1875,0.0209281709621853,0
1876,0.021262836383498736,0
1877,-0.051969089546730796,0
1878,0.01597419268830498,0
1879,0.05174643622647127,0
1880,0.39269739986299856,0
1881,3.8004152639297075,0
1882,6.776608228577249,0
1883,-0.7438168642034139,0
1884,-1.7347205507873882,0
1885,1.5502373163654632,0
1886,-0.8474973903107199,0
1887,0.12192535571158301,0
1888,-0.030140846563204024,0
1889,-0.032152900616634936,0
1890,-0.012063321956864896,0
1891,-0.07599891916310383,0
1892,-0.05220347363295786,0
1893,-0.062369737293246894,0
1894,-0.09051468896861793,0
1895,-0.013457321539056426,0
1896,-0.1422358539427943,0
1897,0.012348872346138122,0
1898,0.023837040573404706,0
1899,-0.10748912175948304,0
1900,0.23246783282279562,0
1901,3.8097888653816763,0
1902,6.76158377055287,0
1903,-0.7172299796246038,0
1904,-1.6616871181485051,0
1905,1.4295245056930388,0
1906,-0.7780652815202566,0
1907,0.16428910996735674,0
1908,-0.06265973952493703,0
1909,-0.040787021029528886,0
1910,-0.05007410574354777,0
1911,-0.0027621969171148404,0
1912,0.022242762879061687,0
1913,0.09058173610750551,0
1914,0.011415580071483147,0
1915,0.041794850838688544,0
1916,-0.03939532458466336,0
1917,0.03826832021408935,0
1918,-0.11486010549340284,0
1919,0.11970974349664337,0
1920,0.3027688132316195,0
1921,3.769850784402438,0
1922,6.636058765791237,0
1923,-0.7153202751516434,0
1924,-1.666907758045741,0
1925,1.4849909703922388,0
1926,-0.693885792448077,0
1927,0.16242109960188988,0
1928,-0.0288484309305677,0
1929,-0.05261729108359472,0
1930,-0.00579905373608526,0
1931,-0.02211080519648427,0
1932,-0.001675052907804446,0
1933,-0.046121703937273176,0
1934,0.013748831052235597,0
1935,0.01275484399076087,0
1936,-0.11094031316280062,0
1937,-0.06813496350841783,0
1938,-0.03523895363448769,0
1939,0.022536242826089296,0
1940,0.30319774348335166,0
1941,3.8235221917579354,0
1942,6.774296543366517,0
1943,-0.842126864652165,0
1944,-1.6892312685466664,0
1945,1.4835679829255648,0
1946,-0.7236816734624587,0
1947,0.11805340378972504,0
1948,-0.01946118546313436,0
1949,-0.1031162888795159,0
1950,0.027116745021919766,0
1951,-0.0677465032924988,0
1952,-0.01695236181694522,0
1953,-0.058930069962596546,0
1954,-0.030659597644430398,0
1955,0.033921169134787155,0
1956,-0.033593461434188024,0
1957,-0.07595905289752805,0
1958,-0.1597535603519546,0
1959,0.005560311415560341,0
1960,0.32071603301329904,0
1961,3.8219205187261838,0
1962,6.713465678126407,0
1963,-0.8664900855101767,0
1964,-1.6635085032964343,0
1965,1.4573997517066726,0
1966,-0.8395378797092565,0
1967,0.16454672487172092,0
1968,0.08345746184349533,0
1969,-0.12960865185671983,0
1970,0.08244206564278427,0
1971,-0.036743337703582256,0
1972,0.00604050587563347,0
1973,-0.0077447972124224124,0
1974,0.03900156855299074,0
1975,-0.0688815148042938,0
1976,0.008193423674996397,0
1977,0.00701329196752226,0
1978,0.007165898036546962,0
1979,0.07851750621312316,0
1980,0.28801966683959707,0
1981,3.8250850848530313,0
1982,6.7115199289134715,0
1983,-0.8937856616761685,0
1984,-1.5902130070508211,0
1985,1.5011799183800278,0
1986,-0.727838205662957,0
1987,0.23333560054000452,0
1988,0.011264873597465336,0
1989,-0.0077605815836366155,0
1990,0.18160972813212206,0
1991,0.0068190686290815,0
1992,0.04653665618910571,0
1993,0.08629618917113893,0
1994,-0.0016524247457044214,0
1995,-0.022257992772330676,0
1996,-0.03692309625086785,0
1997,-0.059652821614765046,0
1998,-0.14191834802041858,0
1999,0.005724136766765038,0
2000,0.27061504729684,0
2001,3.809904990183803,0
2002,6.649337471875544,0
2003,-0.8080360759612906,0
2004,-1.7354423276576365,0
2005,1.5240401791339677,0
2006,-0.7279640934912331,0
2007,0.17811341777495993,0
2008,0.0036853762995773323,0
2009,-0.07014047850430594,0
2010,-0.02724624981677411,0
2011,-0.00060798801348989,0
2012,-0.09042482177156466,0
2013,-0.05972911145358842,0
2014,-0.07061110250230873,0
2015,0.025673323176309937,0
2016,-0.02103191145483211,0
2017,0.08502263056070677,0
2018,-0.0630877145964639,0
2019,-0.0016383461818898978,0
2020,0.3058505499044227,0
2021,3.799990355841039,0
2022,6.755639266387494,0
2023,-0.7968507634393069,0
2024,-1.7035116661276053,0
2025,1.5158534244518596,0
2026,-0.703053395622893,0
2027,0.13903926908506947,0
2028,0.003194636529143357,0
2029,0.003106551118676446,0
2030,0.13924147444927712,0
2031,0.06743964567887625,0
2032,-0.049205593824861164,0
2033,0.049428594297117295,0
2034,-0.022971578074805057,0
2035,0.014550004621751015,0
2036,0.0036848520876147472,0
2037,0.03346234236421986,0
2038,0.04459428921964813,0
2039,-0.11384073670606039,0
2040,0.3325937532962078,0
2041,3.8601659488635383,0
2042,6.727277571846219,0
2043,-0.8443776535174654,0
2044,-1.6500506765236902,0
2045,1.3762962758402872,0
2046,-0.7397123085212423,0
2047,0.166771451709144,0
2048,-0.07924096359559173,0
2049,-0.01715497516743101,0
2050,0.04575724947064144,0
2051,-0.09668536460062768,0
2052,0.07439758299301584,0
2053,-0.006964628426154803,0
2054,-0.08416693999910412,0
2055,-0.06389546415901727,0
2056,-0.044560671698368526,0
2057,-0.1024696737222659,0
2058,0.002937954963301414,0
2059,0.026840253503585758,0
2060,0.35419455297810326,0
2061,3.840803456929388,0
2062,6.710700003635792,0
2063,-0.8534840499544538,0
2064,-1.6827779981040096,0
2065,1.3490825847263852,0
2066,-0.7576412995623873,0
2067,0.22460866197728957,0
2068,0.030538265618587856,0
2069,-0.07201320504925711,0
2070,0.019725680470982054,0
2071,-0.05331458492564707,0
2072,-0.026220824930433494,0
2073,0.0687120872568498,0
2074,0.03440556650113591,0
2075,-0.038737411647111836,0
2076,-0.012111666608492468,0
2077,0.01294829634004635,0
2078,0.039357605456712116,0
2079,0.07754764754300922,0
2080,0.3035876741833129,0
2081,3.8766104932236565,0
2082,6.743723825775807,0
2083,-0.6744407591750785,0
2084,-1.5563483533816096,0
2085,1.5726649213416453,0
2086,-0.7968484451032718,0
2087,0.2183037381965135,0
2088,0.00020052102749081122,0
2089,-0.01986795882535422,0
2090,0.011918379383095704,0
2091,-0.08922641190485658,0
2092,0.0839088793889797,0
2093,0.024458572635687393,0
2094,-0.05236015902817219,0
2095,-0.01670210325929722,0
2096,-0.01821980975334332,0
2097,-0.015011233700153347,0
2098,-0.05461528954165929,0
2099,-0.04145463733273049,0
2100,0.3443739910461834,0
2101,3.8669241073209752,0
2102,6.7153607167808245,0
2103,-0.9452105978550494,0
2104,-1.6632418134032616,0
2105,1.50473230553268,0
2106,-0.812081625481451,0
2107,0.0861206472231166,0
2108,-0.027785884992503337,0
2109,-0.15069958540578765,0
2110,0.03492790264152311,0
2111,-0.08187595617715435,0
2112,0.04869351667070887,0
2113,-0.12809020213593497,0
2114,-0.07915948238528056,0
2115,-0.0026381484652660825,0
2116,-0.07672260100688412,0
2117,0.04554687644151163,0
2118,-0.013091104660392051,0
2119,-0.02797841128959587,0
2120,0.33130628400506884,0
2121,3.966871537584908,0
2122,6.705421088258019,0
2123,-0.8190055470586161,0
2124,-1.6288352172603766,0
2125,1.4649125878052496,0
2126,-0.8983160666441089,0
2127,0.21296756653037002,0
2128,-0.041890295468952024,0
2129,0.01061680569296463,0
2130,0.07007565377113006,0
2131,-0.1429532083319659,0
2132,-0.09219621452166273,0
2133,-0.04309868539140063,0
2134,-0.06567038962060673,0
2135,-0.008483186914644648,0
2136,-0.010504784114653946,0
2137,-0.04051534584933136,0
2138,-0.021684296909950128,0
2139,0.004262058143617235,0
2140,0.3220571725654289,0
2141,3.8378644089640144,0
2142,6.593136973003674,0
2143,-0.8644464612229075,0
2144,-1.6318777818641816,0
2145,1.482509618132765,0
2146,-0.7804201753198242,0
2147,0.190369968731891,0
2148,-0.012257656825162163,0
2149,0.0051533933937749216,0
2150,-0.037391515642082145,0
2151,-0.020144988499986263,0
2152,-0.03561559608588925,0
2153,0.010937696326040879,0
2154,0.0382233053209817,0
2155,-0.11745362455695664,0
2156,-0.016273435010570873,0
2157,-0.03839437269019744,0
2158,-0.05299662825538337,0
2159,-0.012911343323304694,0
2160,0.29283444540449066,0
2161,3.8716987010505015,0
2162,6.689171444921985,0
2163,-0.9842654607682328,0
2164,-1.6031067342491545,0
2165,1.414410734124016,0
2166,-0.9863070908073034,0
2167,0.08648634365861702,0
2168,0.04935185784971542,0
2169,-0.0996046257016297,0
2170,0.0006318902221229272,0
2171,-0.06714449810372494,0
2172,-0.02015913861781908,0
2173,-0.057531200512121336,0
2174,-0.025014794227683514,0
2175,-0.04010143806836889,0
2176,-0.08012550236191693,0
2177,-0.0760426243732151,0
2178,0.09943620743809853,0
2179,-0.06353091988382654,0
2180,0.33877498886866503,0
2181,3.910178342586761,0
2182,6.564596979139244,0
2183,-0.8433384405841882,0
2184,-1.6508582353313799,0
2185,1.4570415598351856,0
2186,-0.7205176083436231,0
2187,0.18608468258096453,0
2188,0.0015379671187238306,0
2189,-0.04508685216991537,0
2190,0.017931486077996987,0
2191,-0.09379397567005546,0
2192,-0.09717959239007999,0
2193,-0.06589793594358241,0
2194,-0.06994332809487831,0
2195,-0.09142118609633704,0
2196,-0.02821702994392184,0
2197,-0.00564047259943426,0
2198,-0.1311679501035843,0
2199,-0.12232424710213796,0
2200,0.19409593564757055,0
2201,3.8253048188233425,0
2202,6.617332037638637,0
2203,-0.9321233703778696,0
2204,-1.650057680963229,0
2205,1.4592698140270746,0
2206,-0.7672061690670324,0
2207,-0.021379884581857578,0
2208,-0.042286814666916486,0
2209,0.02735408087512886,0
2210,-0.01528701448751688,0
2211,-0.02867453002633661,0
2212,-0.13154930694927774,0
2213,0.0910609407715908,0
2214,-0.061173285879520735,0
2215,-0.08255867907722815,0
2216,-0.012377047134003937,0
2217,-0.00957479653756525,0
2218,0.0064337830127551635,0
2219,-0.031778712372568386,0
2220,0.3084495338827583,0
2221,3.8096144244096712,0
2222,6.717355006733875,0
2223,-0.8805247254517863,0
2224,-1.6436592385295727,0
2225,1.3235310095920638,0
2226,-0.8426125077283498,0
2227,0.17219977858288696,0
2228,-0.10907088246281349,0
2229,-0.02822821648785035,0
2230,0.030763974728349654,0
2231,0.031230507913279443,0
2232,0.06974629265648957,0
2233,-0.09262236233138144,0
2234,-0.04100035495961486,0
2235,-0.026891241010730593,0
2236,-0.040749981599920396,0
2237,-0.0244418341501749,0
2238,-0.05380662416643788,0
2239,-0.028204728025794976,0
2240,0.2623237847208193,0
2241,3.881396289810705,0
2242,6.741884176332272,0
2243,-0.8154673374641775,0
2244,-1.5750766706942116,0
2245,1.4350946384824912,0
2246,-0.7337011273978612,0
2247,0.2203633192152754,0
2248,-0.16652843984933177,0
2249,-0.050660951606872964,0
2250,0.028779927849831785,0
2251,0.09855125977555454,0
2252,-0.0605713726667944,0
2253,-0.04801645900285738,0
2254,-0.016768188165705758,0
2255,0.022357271332086082,0
2256,0.042438570570187004,0
2257,0.048592191318474476,0
2258,0.03268183886177533,0
2259,0.01341386932008031,0
2260,0.4035593155093333,0
2261,3.8871408274611388,0
2262,6.621987663027436,0
2263,-0.8694654650395517,0
2264,-1.607519486804057,0
2265,1.4816797428435902,0
2266,-0.6737439846863901,0
2267,0.18147830869962905,0
2268,0.06709054942618123,0
2269,0.08000826029463587,0
2270,0.014591007155308214,0
2271,0.06272989250828347,0
2272,0.10604046341643493,0
2273,0.08985425977108245,0
2274,0.0763412467824011,0
2275,0.11544364420868722,0
2276,0.05918752037078127,0
2277,0.08170835676045701,0
2278,0.028520641159045176,0
2279,0.060001896162056256,0
2280,0.4549776356162368,0
2281,3.8623951303540283,0
2282,6.749363347087009,0
2283,-0.8507984325037125,0
2284,-1.5117437035334789,0
2285,1.4264660568369751,0
2286,-0.6594646477255445,0
2287,0.22955189922780803,0
2288,0.026892187873605825,0
2289,0.01906757548638077,0
2290,0.13535213677119629,0
2291,0.06456478789641854,0
2292,-0.010505385874913398,0
2293,0.0490136787111425,0
2294,0.13846651796618398,0
2295,0.09104426193165609,0
2296,0.032691204439281356,0
2297,-0.029194535198215396,0
2298,0.03795941623127098,0
2299,0.0655093562188925,0
2300,0.5024785568291098,0
2301,3.9922270746848842,0
2302,6.753966611950725,0
2303,-0.8227581378998507,0
2304,-1.5467697291351734,0
2305,1.4573570118158006,0
2306,-0.7453943625783056,0
2307,0.27511376580317176,0
2308,0.10750359995599038,0
2309,-0.03132957091443448,0
2310,0.0381955005436936,0
2311,-0.006767110158634536,0
2312,0.03458599621466378,0
2313,-0.05291374407560635,0
2314,-0.004701479717920978,0
2315,0.09290038710397797,0
2316,0.0905598767176436,0
2317,0.15127088532006056,0
2318,0.10835893952453585,0
2319,0.056261885066060696,0
2320,0.4619175521442003,0
2321,3.9367991828276603,0
2322,6.78176930020335,0
2323,-0.8186178422648399,0
2324,-1.6236163285598673,0
2325,1.4921154235965985,0
2326,-0.6845331340734909,0
2327,0.3077028331924161,0
2328,0.026987735834348908,0
2329,0.016433338426045732,0
2330,0.04215598873019974,0
2331,0.15443446069204142,0
2332,0.17275233339718116,0
2333,0.1116519018979746,0
2334,0.07880883465754274,0
2335,-0.013762966352568691,0
2336,0.04031107815351822,0
2337,-0.0077004532140535695,0
2338,0.06037619171427304,0
2339,0.025259128805882422,0
2340,0.2953398530069949,0
2341,3.900390387064059,0
2342,6.780642507531183,0
2343,-0.9061785216319381,0
2344,-1.593210379158595,0
2345,1.4830028891655542,0
2346,-0.7441054167115313,0
2347,0.1677904923746259,0
2348,0.05641503508008655,0
2349,-0.07661478175257247,0
2350,0.09234907707119633,0
2351,0.060418713344595226,0
2352,0.028857714752752252,0
2353,0.06798980456986403,0
2354,0.1087280469329111,0
2355,0.0681563254428268,0
2356,0.03862171543300692,0
2357,0.06172597747742599,0
2358,0.06576771135642219,0
2359,0.032318121386784075,0
2360,0.3262586613134886,0
2361,3.9998445601439863,0
2362,6.667855473299449,0
2363,-0.8668111921847595,0
2364,-1.5703340540826303,0
2365,1.512888378081477,0
2366,-0.6793063059678485,0
2367,0.26935359528483066,0
2368,0.13144460815741268,0
2369,0.0665267836324241,0
2370,0.12499852127920746,0
2371,0.11759071940145893,0
2372,0.021085821116701667,0
2373,0.028479991102304744,0
2374,0.057468462520183915,0
2375,0.02244562362506939,0
2376,0.007537586421681758,0
2377,-0.032483100772619775,0
2378,0.042130601367895266,0
2379,-0.009252845032208301,0
2380,0.39696550891817073,0
2381,4.057304648208613,0
2382,6.682811592031545,0
2383,-0.8087236011309334,0
2384,-1.468028163580187,0
2385,1.5065897495526228,0
2386,-0.7822617743116479,0
2387,0.333086747036776,0
2388,0.026890677691546568,0
2389,0.049117008408399554,0
2390,0.06982712900041732,0
2391,-0.02304067248694356,0
2392,0.05392739439536733,0
2393,-0.016461363990843213,0
2394,0.01050953005692299,0
2395,0.08063699294107396,0
2396,0.023632501161588028,0
2397,0.08330697146127897,0
2398,-0.07697428910357941,0
2399,0.06790791692009246,0
2400,0.32488912324569996,0
2401,3.9371479199687136,0
2402,6.7111392322537196,0
2403,-0.9349570656947789,0
2404,-1.5344303624034255,0
2405,1.543197159491561,0
2406,-0.7174262033508364,0
2407,0.17873837744440704,0
2408,-0.05009981972845863,0
2409,-0.035067839025910666,0
2410,0.05572978588613946,0
2411,0.10260019369233753,0
2412,0.08589389615229175,0
2413,0.018336425310101913,0
2414,0.03987219118363179,0
2415,0.06712595437270281,0
2416,0.02058160786027713,0
2417,0.1126106795935931,0
2418,0.10468712632678423,0
2419,0.017641836082535597,0
2420,0.4269763416093057,0
2421,3.972257288787759,0
2422,6.718134817394826,0
2423,-0.8718476854042487,0
2424,-1.5447535424281913,0
2425,1.5145529451772621,0
2426,-0.6146360217226957,0
2427,0.1428819716624464,0
2428,-0.012418868779148311,0
2429,0.0066660874962942256,0
2430,0.011739999602171682,0
2431,-0.08102134118728367,0
2432,-0.01868530757209717,0
2433,-0.008362028381620767,0
2434,-0.009251764705749772,0
2435,0.0015745783029649865,0
2436,0.09308132552840595,0
2437,-0.03885127836536768,0
2438,0.0268100752219174,0
2439,0.016157419088403263,0
2440,0.4744687436359236,0
2441,4.0531218630382275,0
2442,6.736086662283297,0
2443,-0.9174618132538161,0
2444,-1.4882793667171283,0
2445,1.504141727072099,0
2446,-0.7400685296970362,0
2447,0.2299652102906326,0
2448,0.0835590731612918,0
2449,0.02635798278511551,0
2450,-0.036848638311625534,0
2451,-0.03942816439983799,0
2452,0.04501327180908895,0
2453,-0.0076216324464854456,0
2454,0.005786546439957817,0
2455,-0.02261581994368682,0
2456,-0.0311649647889417,0
2457,-0.1071000493430631,0
2458,-0.03794548088059797,0
2459,0.08498311678972463,0
2460,0.41499669569816167,0
2461,3.982039074992687,0
2462,6.670366218970316,0
2463,-0.8961404661918321,0
2464,-1.5293559293683396,0
2465,1.450594274308481,0
2466,-0.73774586704841,0
2467,0.20683493206616144,0
2468,-0.013134113464361906,0
2469,0.05008640186721748,0
2470,-0.04376457725594584,0
2471,0.02647608361100255,0
2472,-0.012169312451749681,0
2473,-0.0018498034249956052,0
2474,-0.01258407671070269,0
2475,0.002880881955762811,0
2476,0.09991428378944335,0
2477,0.04254263942132379,0
2478,0.021149245303127284,0
2479,0.1050154792125601,0
2480,0.3692056124094397,0
2481,4.031326927659046,0
2482,6.705001343447543,0
2483,-0.7909078753611671,0
2484,-1.5265285402820403,0
2485,1.6006206352785648,0
2486,-0.7995851958092992,0
2487,0.22321933932346072,0
2488,0.05314909831388253,0
2489,0.02498289368036681,0
2490,0.0622487022947984,0
2491,-0.004836693385457037,0
2492,0.055369253265717316,0
2493,0.05262385780925261,0
2494,-0.006802742973256809,0
2495,0.06535617865902832,0
2496,0.07164774677019058,0
2497,0.07622184096836053,0
2498,0.06101062459260627,0
2499,0.08691382552059733,0
2500,0.3725603419927797,0
2501,4.084066025785701,0
2502,6.744503474281059,0
2503,-0.8405505071738362,0
2504,-1.4605839445933493,0
2505,1.5242348430137322,0
2506,-0.6984132681655859,0
2507,0.2712111838344965,0
2508,0.1070046774728931,0
2509,0.051525945349891016,0
2510,-0.005753462397537018,0
2511,0.07681950678905862,0
2512,0.04373692190595548,0
2513,0.030223246743100673,0
2514,0.08711874870867095,0
2515,0.18065437571113996,0
2516,-0.041500352181805936,0
2517,0.12632209054133992,0
2518,0.10036551857942122,0
2519,0.0479949238568491,0
2520,0.41165428864516035,0
2521,3.9801654328790605,0
2522,6.634950261973301,0
2523,-0.8848264787417153,0
2524,-1.4984735974291312,0
2525,1.5482425727584042,0
2526,-0.7024012407490571,0
2527,0.4141104943538396,0
2528,0.020799150027594172,0
2529,-0.03358915733860972,0
2530,0.04507681652150625,0
2531,0.054711860181633556,0
2532,0.035317000452780314,0
2533,-0.05186841634588868,0
2534,0.05683335222891456,0
2535,0.1044451873401544,0
2536,0.0659321656136154,0
2537,0.12424438962591214,0
2538,0.07150723287478306,0
2539,0.08084769472036506,0
2540,0.39622577972413314,0
2541,4.018885386818757,0
2542,6.664701273061612,0
2543,-0.8686847860664821,0
2544,-1.4155778052089272,0
2545,1.5763442409084738,0
2546,-0.6687921108225695,0
2547,0.193639309733676,0
2548,0.0239268111322119,0
2549,0.06654499193971805,0
2550,0.08787853140073233,0
2551,0.011324683019294728,0
2552,0.025061543986943408,0
2553,0.05948755629800349,0
2554,-0.04144779729574911,0
2555,0.09084457173533175,0
2556,0.040488427043756395,0
2557,0.1684131787471596,0
2558,0.030771250740463642,0
2559,0.04801845051139174,0
2560,0.3732492506454631,0
2561,4.003561198988249,0
2562,6.668454473693628,0
2563,-0.8297581341185434,0
2564,-1.5400535263804231,0
2565,1.5106744439077107,0
2566,-0.7434033327697864,0
2567,0.25328350383787973,0
2568,0.11086863387419986,0
2569,0.10521272266918637,0
2570,0.010329653287362489,0
2571,0.05831628014175094,0
2572,0.0480415078559559,0
2573,0.006252456459868827,0
2574,0.06406867313190581,0
2575,-0.014562217657286734,0
2576,-0.04518780623879186,0
2577,0.10626438061061957,0
2578,0.05989989202788923,0
2579,0.09677489310228218,0
2580,0.339885114138293,0
2581,4.010238815819899,0
2582,6.688787592676752,0
2583,-0.8412884510387888,0
2584,-1.4410607032131368,0
2585,1.5586336558069736,0
2586,-0.7428822370451406,0
2587,0.1656178790525446,0
2588,-0.02570010255606373,0
2589,-0.08670244896114385,0
2590,0.04777430913848788,0
2591,0.04784092422528569,0
2592,-0.0033900555803398,0
2593,-0.030419355270297682,0
2594,0.01922447243570191,0
2595,0.0009461772642784423,0
2596,-0.06892873384996674,0
2597,-0.053310754688203135,0
2598,0.021223923186575396,0
2599,-0.011465517387963984,0
2600,0.3153446660784041,0
2601,4.059235437377063,0
2602,6.661622239327567,0
2603,-0.9152440269900027,0
2604,-1.5928419525054718,0
2605,1.3933482013264427,0
2606,-0.7803309661438308,0
2607,0.24579574159047526,0
2608,0.035660216622172246,0
2609,0.05073541248693056,0
2610,-0.08278603058997745,0
2611,-0.0423158318911539,0
2612,-0.017421437988910427,0
2613,-0.05365189421927866,0
2614,0.013982990013034345,0
2615,-0.03971408437067019,0
2616,-0.09213208566864096,0
2617,0.02649283497211987,0
2618,0.030376353271879437,0
2619,-0.04052018102463177,0
2620,0.4608847807763544,0
2621,4.049541989646578,0
2622,6.612223174562337,0
2623,-0.9386050872770568,0
2624,-1.5120024366682179,0
2625,1.4615716401518368,0
2626,-0.7800102291152397,0
2627,0.18585548915763872,0
2628,-0.033249697446679286,0
2629,-0.07714518404023768,0
2630,0.04132722528584705,0
2631,-0.011358117804452547,0
2632,0.03766488606265382,0
2633,-0.03836708023893216,0
2634,0.016557553571375984,0
2635,-0.04551886110567892,0
2636,-0.058744778986685106,0
2637,-0.03787371578959317,0
2638,-0.06990668202361253,0
2639,-0.050501822999947085,0
2640,0.36487488717942007,0
2641,3.939809361356044,0
2642,6.638952125812911,0
2643,-0.9990146976270979,0
2644,-1.526264006730847,0
2645,1.3376928385520972,0
2646,-0.8252982379492755,0
2647,0.19289500947088092,0
2648,-0.080656926145485,0
2649,-0.046574620680684145,0
2650,0.034222748241226814,0
2651,-0.034225212912890574,0
2652,0.024875382098166896,0
2653,-0.015155770556063621,0
2654,0.01792339795649015,0
2655,0.0343908875415769,0
2656,-0.031217443054394892,0
2657,0.051885365850059526,0
2658,0.03562405420606607,0
2659,0.014000978323959225,0
2660,0.40966382094724363,0
2661,3.9556069679116943,0
2662,6.640734075620563,0
2663,-0.943449896151085,0
2664,-1.5101545911623253,0
2665,1.414447601302975,0
2666,-0.7317379360823422,0
2667,0.23645262743872847,0
2668,0.01465353939754621,0
2669,-0.016622557621347237,0
2670,-0.031230539613206265,0
2671,-0.051786082437176154,0
2672,-0.022326289383145626,0
2673,0.0009418108753909849,0
2674,-0.0704282774241186,0
2675,-0.06128531841652556,0
2676,-0.01400293066114237,0
2677,-0.011636432216475978,0
2678,-0.09726891013830544,0
2679,0.032426740834208864,0
2680,0.3000436814192712,0
2681,3.9230891259414586,0
2682,6.573005408160701,0
2683,-1.0878382168406149,0
2684,-1.5516646240227066,0
2685,1.4076065913578188,0
2686,-0.8638753678053512,0
2687,0.1581030520442835,0
2688,-0.06330763152021421,0
2689,-0.11574917482312061,0
2690,0.02528129265151559,0
2691,0.026368848500239205,0
2692,0.037750022141540225,0
2693,0.09296487043221331,0
2694,-0.06207593565896878,0
2695,-0.014193548628138961,0
2696,0.09979117556513861,0
2697,-0.09230578046376349,0
2698,-0.026472130365654066,0
2699,0.04411704742924552,0
2700,0.3313372957372908,0
2701,4.024122575099325,0
2702,6.649634498802439,0
2703,-0.967724101898558,0
2704,-1.5172059576301025,0
2705,1.479977119685569,0
2706,-0.8287658604595506,0
2707,0.2698077173011007,0
2708,0.03735706157624453,0
2709,-0.005054001108670238,0
2710,-0.013233939534579735,0
2711,0.004466211514865984,0
2712,-0.05698793994974709,0
2713,-0.012525994058352714,0
2714,-0.03901114389062749,0
2715,0.08845872301197458,0
2716,-0.003944754959325843,0
2717,0.0771227273484023,0
2718,-0.05031281947265012,0
2719,-0.049067127914183384,0
2720,0.39244310690478573,0
2721,3.9826195234026165,0
2722,6.598915020142909,0
2723,-0.942402264027399,0
2724,-1.4885808899651833,0
2725,1.5156686440470728,0
2726,-0.7317523363427489,0
2727,0.2509323993598791,0
2728,-0.04335255188219968,0
2729,-0.0789557381889576,0
2730,-0.005738642566637737,0
2731,-0.07123013398864282,0
2732,-0.008472233694078044,0
2733,-0.07736446295126828,0
2734,0.053798057161091775,0
2735,-0.010648913921268939,0
2736,0.03178323203060525,0
2737,-0.0025063350195132766,0
2738,0.012567750169230512,0
2739,-0.03787506514392931,0
2740,0.444740854714207,0
2741,4.052278136867961,0
2742,6.673156630681021,0
2743,-0.9126627313562103,0
2744,-1.4283403348607526,0
2745,1.5697717642411755,0
2746,-0.7330252762384886,0
2747,0.21058436880652043,0
2748,0.035621459176285244,0
2749,-0.016802881122962507,0
2750,0.013498180895745733,0
2751,-0.036879370058717116,0
2752,0.027111189616650988,0
2753,0.036670978242751916,0
2754,0.050666158381305997,0
2755,0.009913873210512486,0
2756,0.06072105114829726,0
2757,-0.007032827753206669,0
2758,0.03520681962477662,0
2759,0.05858605581999148,0
2760,0.3654042100604512,0
2761,4.009796948437506,0
2762,6.684543652799475,0
2763,-0.9571850979878574,0
2764,-1.4647005886814137,0
2765,1.5057402176816397,0
2766,-0.7337264166898956,0
2767,0.14174031077562244,0
2768,-0.026491974517788848,0
2769,0.011160709365528178,0
2770,0.06464261530275993,0
2771,-0.08431413767876249,0
2772,-0.0188146559605744,0
2773,0.02446598272123887,0
2774,-0.018157774520390572,0
2775,-0.004978515392006744,0
2776,0.06878350425053562,0
2777,-0.0337496245564308,0
2778,0.03438323785201204,0
2779,-0.04742539362415371,0
2780,0.3729759679406067,0
2781,4.074863034294333,0
2782,6.629664932608273,0
2783,-0.9564309989469374,0
2784,-1.543439815286182,0
2785,1.490481251907888,0
2786,-0.6633661027126649,0
2787,0.20955444252787436,0
2788,0.03074987011662128,0
2789,-0.0471150112011402,0
2790,0.02076627782703728,0
2791,0.018650508099549927,0
2792,0.05123883872749357,0
2793,-0.08293971424886568,0
2794,0.15400092379125502,0
2795,-0.12648293909320907,0
2796,0.0035422491331092328,0
2797,0.03931313191431429,0
2798,-0.04062980225754845,0
2799,0.0012971756628729712,0
2800,0.3399991326626242,0
2801,4.00454145749735,0
2802,6.589884155058498,0
2803,-1.0391946796559295,0
2804,-1.5218941588465111,0
2805,1.4887194384085922,0
2806,-0.8507939974259046,0
2807,0.18640235156441642,0
2808,-0.008088166722053897,0
2809,-0.09599217897227011,0
2810,-0.15476344014377885,0
2811,0.04291110250149065,0
2812,-0.07439196819560003,0
2813,0.0879118956113324,0
2814,-0.0062121500044035015,0
2815,0.04175703585777872,0
2816,-0.06228300216648337,0
2817,0.06487139120628646,0
2818,-0.07883851498451477,0
2819,-0.04266075721620373,0
2820,0.39279270812118694,0
2821,4.037642588834449,0
2822,6.63638969185143,0
2823,-0.9670990966760369,0
2824,-1.5111189070445727,0
2825,1.4683674088421697,0
2826,-0.8957804406244901,0
2827,0.20292739999554976,0
2828,0.006175475497604652,0
2829,-0.12648862169692798,0
2830,-0.10491159845318497,0
2831,0.010099507223617347,0
2832,0.014800473285908292,0
2833,-0.03994770052665282,0
2834,-0.12362667494486247,0
2835,0.11035651792034712,0
2836,-0.036352567924737046,0
2837,-0.09656367275064191,0
2838,-0.014686745340345902,0
2839,-0.04766242253100261,0
2840,0.35319119178137137,0
2841,3.9391809977903107,0
2842,6.567507886252563,0
2843,-1.0110169778690505,0
2844,-1.5688099497160053,0
2845,1.4511139423161166,0
2846,-0.7749868726010012,0
2847,0.12609460306010986,0
2848,-0.07337456011416241,0
2849,-0.08072309270640492,0
2850,0.013584624904263438,0
2851,-0.09655505948265661,0
2852,-0.02138789910621717,0
2853,-0.07697188870103779,0
2854,-0.0290718200676076,0
2855,-0.018934748075581202,0
2856,0.002154349545667629,0
2857,-0.06264445682157592,0
2858,-0.06473251997307443,0
2859,0.0011150959923319978,0
2860,0.31414920372096894,0
2861,4.012745019906156,0
2862,6.6136232489321,0
2863,-1.0323622168711124,0
2864,-1.4533349921800751,0
2865,1.3691620297669638,0
2866,-0.82508946522042,0
2867,0.08049405863776116,0
2868,0.005372467714387843,0
2869,-0.04970851776726927,0
2870,0.0547585460623942,0
2871,0.05284259936655476,0
2872,-0.03760820693539267,0
2873,0.06290758079132117,0
2874,0.0183351309659241,0
2875,-0.045999650926230665,0
2876,-0.03558616750681125,0
2877,-0.01728670440483511,0
2878,-0.005588159333492628,0
2879,-0.0443138176550519,0
2880,0.3482935920969404,0
2881,4.14726382138499,0
2882,6.57045885167743,0
2883,-1.0465641976262228,0
2884,-1.4583901839512106,0
2885,1.3592093592943086,0
2886,-0.7570552866085216,0
2887,0.2465393661064652,0
2888,-0.043723191783645816,0
2889,0.02844086372881452,0
2890,0.006919922120229488,0
2891,0.030056702537784353,0
2892,0.008063651151215274,0
2893,0.020175509885460866,0
2894,-0.015479974139425692,0
2895,0.00457090961418254,0
2896,0.01198349615044603,0
2897,-0.016779549718615068,0
2898,0.0020364796094167747,0
2899,-0.08703381316370645,0
2900,0.4438092005475146,0
2901,4.022734743897711,0
2902,6.598165870132309,0
2903,-1.0477481654281773,0
2904,-1.474387588579737,0
2905,1.3865342342876246,0
2906,-0.7249257409982913,0
2907,0.22947804296505284,0
2908,0.008498241493719152,0
2909,0.01860221363289294,0
2910,0.09962226459942009,0
2911,0.041849426183856106,0
2912,0.10355206250600968,0
2913,-0.041438400318162566,0
2914,0.06262731664111504,0
2915,-0.014237520161748972,0
2916,0.10043024122479498,0
2917,0.006870452858091812,0
2918,-0.004297830367293589,0
2919,-0.07002803637003495,0
2920,0.316888267180487,0
2921,4.042672919573315,0
2922,6.595856407275549,0
2923,-1.0027199050615503,0
2924,-1.5595402877082172,0
2925,1.3708538134260508,0
2926,-0.80003000878827,0
2927,0.2176113987252042,0
2928,-0.11162482834731458,0
2929,-0.16165939446013544,0
2930,0.08295669348801339,0
2931,0.014243854012312969,0
2932,-0.002700678748351214,0
2933,-0.1420640752318981,0
2934,-0.05319794360121812,0
2935,0.03441141613747007,0
2936,-0.03572757904992256,0
2937,0.04431343779666686,0
2938,-0.005032149353192388,0
2939,0.04114502127719152,0
2940,0.46294240468322123,0
2941,4.110648688213597,0
2942,6.593810156923045,0
2943,-1.0171870828597596,0
2944,-1.4594951521584776,0
2945,1.40016549226125,0
2946,-0.9186287182662475,0
2947,0.2603552893017107,0
2948,-0.02152069937881876,0
2949,-0.019193794242645362,0
2950,-0.038328002071896274,0
2951,-0.009785742107480339,0
2952,-0.07350972489084971,0
2953,-0.00747942724944916,0
2954,-0.07294672856951391,0
2955,0.03830119109397631,0
2956,-0.04926923182282754,0
2957,0.04726508207234392,0
2958,-0.01743787259221113,0
2959,0.022120823964574973,0
2960,0.3921755394260384,0
2961,3.964340365947232,0
2962,6.591855848891276,0
2963,-0.9730829020590184,0
2964,-1.6064740587125699,0
2965,1.4134637380352135,0
2966,-0.8386489018648821,0
2967,0.16518956049609243,0
2968,0.017138667074074014,0
2969,-0.1320068452843383,0
2970,-0.059471604880430226,0
2971,-0.11921193518407924,0
2972,0.005583131471685085,0
2973,-0.014511992959509876,0
2974,-0.03457506722318139,0
2975,-0.08213339435626835,0
2976,-0.0217618361489251,0
2977,0.03135949055878603,0
2978,-0.02342636332725536,0
2979,-0.005998723573541278,0
2980,0.41671474825903915,0
2981,3.971562634862492,0
2982,6.6704805774087745,0
2983,-1.102339874517741,0
2984,-1.5348132592695205,0
2985,1.4807237569320486,0
2986,-0.794106348859245,0
2987,0.19507020315882687,0
2988,-0.040495187599133994,0
2989,-0.05423503193629664,0
2990,-0.034164049160619936,0
2991,0.06537536655250151,0
2992,0.07444359248294785,0
2993,0.07392526058247238,0
2994,-0.04127405636539347,0
2995,-0.028989093171283616,0
2996,0.02377656254435097,0
2997,0.08057157336415205,0
2998,0.056185027339869596,0
2999,0.0756356875633869,0
3000,0.3343649893458167,0
3001,3.9739057170181007,0
3002,6.513306082991911,0
3003,-1.0776407682750977,0
3004,-1.403788486813452,0
3005,1.3967801711194499,0
3006,-0.7885398067422376,0
3007,0.28147707015945445,0
3008,0.05994691999480125,0
3009,-0.022111219165383132,0
3010,-0.13418246840369577,0
3011,-0.03771488151637407,0
3012,-0.034450443637338006,0
3013,-0.042598864844113585,0
3014,0.0018832947959940526,0
3015,-0.07753565572983152,0
3016,-0.017358741159175833,0
3017,-0.0694756066918708,0
3018,-0.039443531941060386,0
3019,-0.11821919391522909,0
3020,0.3078961398093123,0
3021,3.9869796339260364,0
3022,6.6388776252636355,0
3023,-1.048946186554207,0
3024,-1.4667468087706461,0
3025,1.3620288867460484,0
3026,-0.8314401052520268,0
3027,0.16993087264708623,0
3028,-0.03762168048862672,0
3029,-0.09911994671313973,0
3030,0.07214421279744714,0
3031,-0.055052296053163814,0
3032,0.004128735425391335,0
3033,-0.08148076207851339,0
3034,0.035113389640924676,0
3035,-0.05360710834297585,0
3036,-0.0052777092551078465,0
3037,0.009661347180418233,0
3038,0.009473110944349291,0
3039,-0.01741905066450229,0
3040,0.47772101411336504,0
3041,4.130259857296013,0
3042,6.665591652444583,0
3043,-1.0174987823844912,0
3044,-1.3715693086679506,0
3045,1.4620614415809305,0
3046,-0.6741145917275859,0
3047,0.21247285524837134,0
3048,-0.05444210861501804,0
3049,0.07143145676769234,0
3050,-0.012860959433313626,0
3051,0.014134750239144369,0
3052,0.05128512084911366,0
3053,0.03805154604613692,0
3054,0.006995821616710279,0
3055,0.07063554449572927,0
3056,0.04705407878918144,0
3057,-0.0021170356461876066,0
3058,0.0974698821607283,0
3059,0.00399453507243645,0
3060,0.3994154512129145,0
3061,4.136565268816221,0
3062,6.641608562472251,0
3063,-1.0467348382346697,0
3064,-1.4707151779679022,0
3065,1.4667661415974247,0
3066,-0.8795906235074911,0
3067,0.16171967197951836,0
3068,-0.002939094565086786,0
3069,-0.07242911207150103,0
3070,-0.054036668186354386,0
3071,0.015092840288821505,0
3072,-0.11498733083992717,0
3073,0.07821065239374009,0
3074,-0.08204551411817243,0
3075,-0.048149915620549974,0
3076,-0.044010716021846,0
3077,0.024838447507217323,0
3078,0.02569774887176786,0
3079,0.029923583046590638,0
3080,0.4225454375828427,0
3081,4.037143508288034,0
3082,6.574641880493041,0
3083,-1.2017537601366504,0
3084,-1.450825367923704,0
3085,1.3791941576241613,0
3086,-0.8588651663665644,0
3087,0.1604224011962596,0
3088,0.03103787031593054,0
3089,0.03244333974504954,0
3090,-0.04833725992394202,0
3091,0.03097836769266273,0
3092,-0.02863630018334637,0
3093,0.059147394774690304,0
3094,-0.08601059819150138,0
3095,-0.11580997621964534,0
3096,0.010879501357790726,0
3097,0.010695172111237198,0
3098,0.004925438700712248,0
3099,0.030201875370673856,0
3100,0.3809377979580385,0
3101,4.098594658445328,0
3102,6.566311825631399,0
3103,-1.0852780177778365,0
3104,-1.4771138601435734,0
3105,1.460309463029196,0
3106,-0.8737933707180587,0
3107,0.27888232717132083,0
3108,0.024196415158683152,0
3109,-0.08622866502731756,0
3110,-0.005510609141755617,0
3111,-0.002787400754245139,0
3112,-0.009931675546618859,0
3113,-0.06392232755660726,0
3114,0.021593264378701602,0
3115,-0.06320069295566456,0
3116,-0.06508541830028863,0
3117,0.03537232370453593,0
3118,0.03273795266587051,0
3119,-0.05047879627036686,0
3120,0.3716648655737913,0
3121,4.057224507128826,0
3122,6.586570499022219,0
3123,-1.0724265663317707,0
3124,-1.572459295858817,0
3125,1.3438311541563983,0
3126,-0.7716873758776099,0
3127,0.15104095588796757,0
3128,-0.018716842907652458,0
3129,-0.05269825321694335,0
3130,0.03803748608416739,0
3131,-0.0916370310371024,0
3132,0.0020715482445512632,0
3133,0.01120361694290658,0
3134,0.012154205674494042,0
3135,-0.003033346975156278,0
3136,-0.013867261869818837,0
3137,0.012565541216096182,0
3138,0.03361100318203113,0
3139,0.04335496351736401,0
3140,0.4167075674196294,0
3141,4.069775532255059,0
3142,6.590866611617395,0
3143,-1.1756020190004228,0
3144,-1.3452490005962017,0
3145,1.3977944781011526,0
3146,-0.8036005579405167,0
3147,0.21588588833389302,0
3148,0.01580540944044738,0
3149,-0.0776401987723968,0
3150,-0.021854412337228377,0
3151,0.05567515118876614,0
3152,-0.058308605579878894,0
3153,-0.026358529241005936,0
3154,0.06318320549030491,0
3155,-0.011756628955202995,0
3156,-0.055098989232337345,0
3157,-0.09030061939598613,0
3158,-0.09619752980321426,0
3159,0.07122193359160812,0
3160,0.40325408583469846,0
3161,4.052567779950274,0
3162,6.55083995693956,0
3163,-1.1514829931059456,0
3164,-1.4567311891017367,0
3165,1.4022550420460178,0
3166,-0.7869237280011088,0
3167,0.16598642125148003,0
3168,-0.005127247962629967,0
3169,-0.05464942509621023,0
3170,-0.03264981635832519,0
3171,-0.05561323045775844,0
3172,-0.05243644937778082,0
3173,0.014066662518259297,0
3174,0.017894543045687935,0
3175,0.012866685268372008,0
3176,-0.03455773448209979,0
3177,-0.04652576859888686,0
3178,-0.04361129040896842,0
3179,-0.07160680661584905,0
3180,0.36781896004198567,0
3181,4.015002180062108,0
3182,6.5290537894446485,0
3183,-1.1843624068436525,0
3184,-1.4443255197117792,0
3185,1.414406274202257,0
3186,-0.8480382047623549,0
3187,0.18412820279547584,0
3188,-0.029073338006564142,0
3189,-0.05870594945287878,0
3190,-0.04578638953799967,0
3191,0.018372483600877506,0
3192,-0.061851137660189084,0
3193,-0.018135510712245707,0
3194,0.027850237748991556,0
3195,0.06353594081519655,0
3196,0.08298796857266343,0
3197,0.0033169054297663095,0
3198,-0.03074361946034609,0
3199,-0.052578861575444995,0
3200,0.40903348526586897,0
3201,4.109942875367337,0
3202,6.575527913903303,0
3203,-1.005752875992127,0
3204,-1.437173688408134,0
3205,1.323270624313992,0
3206,-0.8322487420972333,0
3207,0.1386302390390448,0
3208,0.04517999269505492,0
3209,-0.07081310314917873,0
3210,0.0476449274772514,0
3211,-0.033964217714364656,0
3212,0.04070186824162238,0
3213,0.03305484082292789,0
3214,0.011359587692264562,0
3215,-0.07047811442751684,0
3216,0.011513238140791252,0
3217,-0.026435918387503,0
3218,0.017108427378474424,0
3219,-0.03875043363637222,0
3220,0.40520564451913144,0
3221,4.0138831476722485,0
3222,6.586746995476164,0
3223,-1.1795160334637498,0
3224,-1.4197409536204801,0
3225,1.3766334301548617,0
3226,-0.8241507617550746,0
3227,0.18567693789664563,0
3228,-0.011089971377124672,0
3229,0.004144863753097763,0
3230,0.03504479574071917,0
3231,-0.01573407326204218,0
3232,-0.09108296395633528,0
3233,0.025643770085661263,0
3234,0.0029500612936702725,0
3235,0.0857409903838936,0
3236,-0.04875724558628718,0
3237,0.0035564565259469383,0
3238,0.010083188489319397,0
3239,-0.013021074810110611,0
3240,0.3351331502927656,0
3241,3.9487304897140123,0
3242,6.497793647819488,0
3243,-1.1920203781070389,0
3244,-1.5420222845926705,0
3245,1.3317535329396182,0
3246,-0.8898394142578361,0
3247,0.1845596081763897,0
3248,-0.06971475239642648,0
3249,-0.08101524926536187,0
3250,-0.029492614205460232,0
3251,-0.06891832407172131,0
3252,-0.07639488700894334,0
3253,0.007967063566122468,0
3254,-0.03188137899076944,0
3255,0.07667970384398415,0
3256,0.02076171332907082,0
3257,-0.011881953088345018,0
3258,0.11763144157121651,0
3259,0.08615442941405865,0
3260,0.40684394566880755,0
3261,4.0063225328726695,0
3262,6.571494940447542,0
3263,-1.121734182328749,0
3264,-1.3827209139523058,0
3265,1.3986903668330468,0
3266,-0.7611295625192166,0
3267,0.3085802390966317,0
3268,0.03158124783153739,0
3269,-0.10302321821548635,0
3270,0.022184593782280857,0
3271,-0.0034937132071733053,0
3272,0.03967659672506721,0
3273,0.06123867886759127,0
3274,0.12494560936260078,0
3275,0.06448440654928869,0
3276,-0.020781712466170367,0
3277,-0.04056257791165605,0
3278,0.04929750840707474,0
3279,0.0008080090420783184,0
3280,0.3522050162392926,0
3281,4.0633963807907865,0
3282,6.490605720201255,0
3283,-1.1663705342182122,0
3284,-1.5289086773418814,0
3285,1.376465550052869,0
3286,-0.7482261735435127,0
3287,0.20498060547879327,0
3288,-0.05750779314540819,0
3289,0.049394681639811866,0
3290,0.030916145798163007,0
3291,0.06523018165162377,0
3292,0.032516861936203394,0
3293,0.07306320734197638,0
3294,-0.044018855878081214,0
3295,0.0073921361985144875,0
3296,0.01720645232038207,0
3297,-0.019196567440786235,0
3298,0.021820222527957865,0
3299,-0.10446058018775922,0
3300,0.42104104415943167,0
3301,4.116514832828492,0
3302,6.503154839121871,0
3303,-1.2367752728996457,0
3304,-1.5346892913565617,0
3305,1.3775634088113988,0
3306,-0.7773333443695325,0
3307,0.17588657067916447,0
3308,-0.040252527403288524,0
3309,-0.12139142461858922,0
3310,-0.01616365014677801,0
3311,0.017779130121301445,0
3312,0.015326276746565181,0
3313,0.07498416773237651,0
3314,0.03850102029482843,0
3315,-0.0016879381605472482,0
3316,-0.04635460297236001,0
3317,0.040341142522321544,0
3318,-0.03160289213027496,0
3319,-0.11041315475432621,0
3320,0.38749682212401015,0
3321,4.0771455109460355,0
3322,6.497038463877174,0
3323,-1.1548745480961902,0
3324,-1.4774682388616527,0
3325,1.4490967555735312,0
3326,-0.8331274691727802,0
3327,0.2149073841405013,0
3328,-0.0011965244706312744,0
3329,-0.03494278773354701,0
3330,0.018037015409897324,0
3331,-0.047596182952841085,0
3332,-0.07501123637462348,0
3333,0.018755339993384666,0
3334,0.03304449603277192,0
3335,0.054241781508453664,0
3336,0.0323105172796555,0
3337,0.02961318521659275,0
3338,0.06884186435137502,0
3339,-0.09826157939768947,0
3340,0.450285800294027,0
3341,4.040951777371112,0
3342,6.555993385570261,0
3343,-1.1930226789910636,0
3344,-1.4365200630427624,0
3345,1.4154260984477423,0
3346,-0.8179238083599633,0
3347,0.16806065803583825,0
3348,-0.04363866056847854,0
3349,0.09024582624709249,0
3350,0.042803536743719825,0
3351,-0.05770388055806845,0
3352,-0.02572055968518024,0
3353,0.022376715049157954,0
3354,-0.026208127926897598,0
3355,0.06130835762045232,0
3356,0.05022738993363312,0
3357,-0.08271721772694263,0
3358,-0.03209840223668588,0
3359,-0.04947845910224799,0
3360,0.3846690318646109,0
3361,4.099155469827382,0
3362,6.552038114352326,0
3363,-1.1940109778909695,0
3364,-1.5428566526617757,0
3365,1.4942491153814212,0
3366,-0.8871549325248438,0
3367,0.14021212623238472,0
3368,-0.15757270054151656,0
3369,-0.031826353023021774,0
3370,0.012542845118737878,0
3371,-0.06462046302025684,0
3372,-0.13326783005214143,0
3373,-0.06592360955108931,0
3374,-0.023195725890100553,0
3375,-0.028775389760963232,0
3376,0.02598444161715441,0
3377,-0.0007920348805448632,0
3378,-0.043313033421162515,0
3379,0.019344851329400583,0
3380,0.5008550576631383,0
3381,4.1015558134126895,0
3382,6.575693655377948,0
3383,-1.1926757368828833,0
3384,-1.4881032414439652,0
3385,1.403400348063142,0
3386,-0.7734287161508928,0
3387,0.07352651489341602,0
3388,-0.15012763594938833,0
3389,-0.16653222614465904,0
3390,-0.050897689576615404,0
3391,-0.057818967997634516,0
3392,-0.046089381291091115,0
3393,-0.1653670090058669,0
3394,-0.09498508641603944,0
3395,-0.065698401591204,0
3396,-0.088466341277835,0
3397,-0.0739267979021413,0
3398,-0.09198222374791848,0
3399,-0.0727528474430191,0
3400,0.3766444049685109,0
3401,4.094261309989584,0
3402,6.661265344211804,0
3403,-1.1638603993626817,0
3404,-1.3299136972217631,0
3405,1.4031479048827766,0
3406,-0.8063499290385022,0
3407,0.3008490057948616,0
3408,0.003322244543621858,0
3409,-0.033192147138685645,0
3410,0.013763184760577127,0
3411,-0.06138957683641813,0
3412,-0.14642409190464267,0
3413,-0.1642295321462489,0
3414,0.004034400990127307,0
3415,0.02079214366173804,0
3416,-0.030529432296204563,0
3417,-0.037043647919636574,0
3418,-0.14129849528895813,0
3419,-0.05142793211487511,0
3420,0.3281089979422579,0
3421,4.035480977725433,0
3422,6.624818671134287,0
3423,-1.1600844212961297,0
3424,-1.420610431333206,0
3425,1.391923391496492,0
3426,-0.7885945489450316,0
3427,0.19122373221496858,0
3428,-0.06690729567036613,0
3429,0.004444944118712227,0
3430,-0.023111856382505604,0
3431,-0.03300105500406737,0
3432,-0.03152661145850187,0
3433,-0.034806436912806125,0
3434,-0.01888433701849624,0
3435,-0.035997568509946204,0
3436,0.07572241788903218,0
3437,-0.013222650288335316,0
3438,-0.00283909959696291,0
3439,-0.017768199230346574,0
3440,0.45854195530688135,0
3441,4.116496174300167,0
3442,6.638988984818697,0
3443,-1.1461725453051281,0
3444,-1.407548828027104,0
3445,1.364942047936523,0
3446,-0.7819388224537721,0
3447,0.19910998319339956,0
3448,0.05359662673455742,0
3449,-0.01766740919252485,0
3450,0.08714102235207304,0
3451,-0.04647298492874917,0
3452,-0.07393036301532527,0
3453,-0.03338147273261893,0
3454,-0.03783670180867226,0
3455,-0.04200388686637646,0
3456,-0.06871859340673214,0
3457,-0.011855156953924622,0
3458,0.01130401642723998,0
3459,-0.027521402012466365,0
3460,0.4025290577500817,0
3461,4.043290562159819,0
3462,6.588775899056045,0
3463,-1.2010854906324797,0
3464,-1.4462729231224942,0
3465,1.3551336873999742,0
3466,-0.8168970596207955,0
3467,0.17738891011443406,0
3468,0.013964761791110312,0
3469,-0.047755996242612106,0
3470,0.057296362958803665,0
3471,-0.03622965174009701,0
3472,0.09922307564090642,0
3473,0.062255515576548,0
3474,0.018189693573406093,0
3475,-0.07072355271434554,0
3476,0.021550067719554904,0
3477,-0.024676844972762412,0
3478,0.04308416585911198,0
3479,-0.0137376447574025,0
3480,0.3739260543367161,0
3481,4.185809934501305,0
3482,6.475606348240963,0
3483,-1.2583874423464756,0
3484,-1.4420550651760489,0
3485,1.5356214641194077,0
3486,-0.7561712121127611,0
3487,0.21457515163570706,0
3488,0.028853351778015245,0
3489,-0.03128965245696856,0
3490,0.04528169984659831,0
3491,-0.07311808866310793,0
3492,0.07590573487013627,0
3493,0.0452047170094969,0
3494,0.12253172340773066,0
3495,0.11544100850591868,0
3496,0.023648021402039678,0
3497,0.04405332997384528,0
3498,0.07641202935818794,0
3499,0.07668587676854557,0
3500,0.48560527702956463,0
3501,4.22259319664244,0
3502,6.544334905574029,0
3503,-1.1652745199946888,0
3504,-1.3060628543790613,0
3505,1.447924723181837,0
3506,-0.790635517352492,0
3507,0.24133152008123598,0
3508,0.016165198562075878,0
3509,-0.15530087016290425,0
3510,0.015576159215163227,0
3511,-0.014454392161646483,0
3512,0.025423475388732054,0
3513,-0.08000752165152614,0
3514,-0.07384092118660988,0
3515,-0.043039234817287414,0
3516,-0.10109935627948083,0
3517,-0.02804130725436299,0
3518,0.004338821908500962,0
3519,-0.06190339574961089,0
3520,0.402888621165711,0
3521,4.301234229000138,0
3522,6.524907468504185,0
3523,-1.0706343145854897,0
3524,-1.3289387118999811,0
3525,1.474498351478771,0
3526,-0.7433312603612279,0
3527,0.3081980724126901,0
3528,0.09487305356065388,0
3529,0.013246899765148083,0
3530,-0.08328953884988388,0
3531,-0.053335772376065134,0
3532,0.005818457727155358,0
3533,-0.013221596768489913,0
3534,-0.03632059353045315,0
3535,-0.004915559627774178,0
3536,0.023441256313589287,0
3537,0.035535280949692535,0
3538,-0.03287223458710812,0
3539,0.00977334549888607,0
3540,0.4116772500815141,0
3541,4.181888218563859,0
3542,6.561964617983266,0
3543,-1.2019436196984292,0
3544,-1.425951156252407,0
3545,1.4258166927357978,0
3546,-0.7867530412267284,0
3547,0.24550015061854633,0
3548,0.023310421156039266,0
3549,-0.05807440459248805,0
3550,0.14480454451019686,0
3551,-0.05030844540914085,0
3552,0.025873398474981085,0
3553,0.12717055644262143,0
3554,0.009385564071588718,0
3555,-0.03356272432605299,0
3556,-0.016840237604347226,0
3557,-0.061949494055802266,0
3558,-0.047248606444393354,0
3559,-0.01355179621205066,0
3560,0.3747754337494997,0
3561,4.148219084985316,0
3562,6.548358257396682,0
3563,-1.1922284985290976,0
3564,-1.364453610039138,0
3565,1.4451320382301027,0
3566,-0.8176787129740584,0
3567,0.15199778735615577,0
3568,0.04116966796966095,0
3569,-0.09787448219870933,0
3570,-0.053593547759912784,0
3571,-0.0005998726018731498,0
3572,-0.15940465543203802,0
3573,0.00468012812831186,0
3574,-0.0049923483266105795,0
3575,-0.0553976115640427,0
3576,-0.07491637193279707,0
3577,-0.05560772846403576,0
3578,-0.07698560177981642,0
3579,-0.09332398416395618,0
3580,0.3790156633927284,0
3581,4.185566944813326,0
3582,6.58443910584667,0
3583,-1.1829897110231158,0
3584,-1.4436217002899503,0
3585,1.3580453872576967,0
3586,-0.886353228145051,0
3587,0.2656698319757991,0
3588,-0.00594750497511129,0
3589,-0.05992179911510334,0
3590,-0.1560915408608337,0
3591,-0.08683493442470239,0
3592,-0.06348906546973068,0
3593,-0.0173531406840446,0
3594,-0.09282080792173661,0
3595,-0.045084690864521895,0
3596,-0.010013445899691463,0
3597,-0.04186109958088076,0
3598,-0.06990410167510736,0
3599,-0.023096115504899588,0
3600,0.3244975415542636,0
3601,4.1449998682984095,0
3602,6.592435809996107,0
3603,-1.2474859334844601,0
3604,-1.3925530127993526,0
3605,1.3314848159513717,0
3606,-0.8034677231166173,0
3607,0.17777955797752426,0
3608,-0.033100415440267206,0
3609,-0.042706211676737216,0
3610,0.026039062219517385,0
3611,-0.12454714169240583,0
3612,0.011212073235946758,0
3613,-0.011640178746896983,0
3614,-0.024165319071528777,0
3615,-0.09425318425761589,0
3616,-0.05790201328205922,0
3617,-0.11375355994535431,0
3618,-0.0020389924584366392,0
3619,-0.03657187663417156,0
3620,0.2695780661691317,0
3621,4.07761263151256,0
3622,6.431715681581268,0
3623,-1.2537248182469496,0
3624,-1.3229188596500736,0
3625,1.31926881724859,0
3626,-0.9541406761460387,0
3627,0.1773556560922565,0
3628,-0.0921782853586732,0
3629,-0.047781796499493726,0
3630,-0.10103238775448345,0
3631,-0.09039819148303961,0
3632,-0.08391475179993332,0
3633,-0.08793307271053655,0
3634,-0.13954939737662336,0
3635,-0.13569791819331625,0
3636,-0.034258987073140616,0
3637,-0.07014269102085655,0
3638,-0.11816821475264636,0
3639,-0.08351994811714543,0
3640,0.3599088886904771,0
3641,4.0843394126511345,0
3642,6.4149151993223725,0
3643,-1.3272775638362828,0
3644,-1.4866614018490214,0
3645,1.3716386706585486,0
3646,-0.8539040504003886,0
3647,0.15386577314802133,0
3648,-0.13609741830478236,0
3649,-0.14247069083637365,0
3650,-0.05609567182296005,0
3651,0.04943662445655263,0
3652,-0.19078168193559747,0
3653,-0.05694417388936361,0
3654,-0.02839900689004439,0
3655,-0.04667145209477278,0
3656,-0.03367432919003081,0
3657,-0.0280068503095827,0
3658,-0.08345996707779131,0
3659,-0.16952770261672573,0
3660,0.3690670506856857,0
3661,4.050213083871739,0
3662,6.396711379065472,0
3663,-1.3335764634929994,0
3664,-1.3947088025307446,0
3665,1.3230024588661766,0
3666,-0.7875030680352288,0
3667,0.20698609255965233,0
3668,-0.11049284606783569,0
3669,-0.1727792395354091,0
3670,0.07046964014819573,0
3671,-0.07991424599064352,0
3672,0.011468816394254469,0
3673,0.029292314400393732,0
3674,-0.06737817732599691,0
3675,-0.0028579785524795315,0
3676,-0.13292784231272275,0
3677,-0.045917018987502875,0
3678,-0.11311492216135388,0
3679,-0.006549831200805677,0
3680,0.3658644327005097,0
3681,4.219153332598512,0
3682,6.434161197734809,0
3683,-1.2584107749072884,0
3684,-1.279249788913202,0
3685,1.3932620553635793,0
3686,-0.8496647574118464,0
3687,0.25924280131642546,0
3688,-0.049794075038701785,0
3689,-0.04095284434566364,0
3690,0.0420596205658535,0
3691,0.013922220852177637,0
3692,0.044381088096102486,0
3693,-0.026938237078325468,0
3694,-0.0027282078527018348,0
3695,0.010978880962311597,0
3696,-0.028428139862127076,0
3697,0.02697925136722668,0
3698,-0.06703836095911439,0
3699,-0.02365741471573283,0
3700,0.2307263519034422,0
3701,4.119710557017157,0
3702,6.469002029074607,0
3703,-1.267818424067208,0
3704,-1.326103120998394,0
3705,1.376837456261005,0
3706,-0.8381731210270118,0
3707,0.23808029922299753,0
3708,-0.14268186445201603,0
3709,-0.06119604173414535,0
3710,0.0028286408145278396,0
3711,0.011235593074078065,0
3712,-0.08156311782772502,0
3713,-0.0619774332653669,0
3714,0.008315141775991183,0
3715,-0.03519999803926434,0
3716,-0.0037560265203132374,0
3717,-0.06412027881042147,0
3718,-0.03268088572392761,0
3719,-0.017732421052968007,0
3720,0.40714715982487676,0
3721,4.0992193749288015,0
3722,6.430736057091982,0
3723,-1.204827152648761,0
3724,-1.2737475308079607,0
3725,1.4134303347680874,0
3726,-0.820034716368804,0
3727,0.21580700015222568,0
3728,0.09457747366328786,0
3729,-0.052134898611139305,0
3730,-0.05050429611323014,0
3731,0.03336828070593763,0
3732,-0.05572907033948379,0
3733,0.02886489662486956,0
3734,-0.006270995908967622,0
3735,-0.0679638666492254,0
3736,0.07241612783854606,0
3737,-0.05031064494424183,0
3738,0.014766576827679746,0
3739,0.053286014011154265,0
3740,0.43979272030720695,0
3741,4.146232298411755,0
3742,6.463141066660915,0
3743,-1.307298393229749,0
3744,-1.2498522043893903,0
3745,1.4478980593403998,0
3746,-0.8742981300937076,0
3747,0.25890388448058266,0
3748,0.055609052112877186,0
3749,0.09833431333112713,0
3750,0.11088916386471703,0
3751,0.06145379563197394,0
3752,-0.010519731251472562,0
3753,-0.024891588029358605,0
3754,-0.011569788677557716,0
3755,0.04893237816541673,0
3756,-0.03721999341217202,0
3757,0.12277657499635238,0
3758,0.07989801480673006,0
3759,0.07845009136487659,0
3760,0.48929581176400605,0
3761,4.109520194680515,0
3762,6.548221199386055,0
3763,-1.266968327389828,0
3764,-1.239748701434573,0
3765,1.4577089291011045,0
3766,-0.7700188915254181,0
3767,0.28140308515758333,0
3768,-0.0018355805569247718,0
3769,-0.025350674659078046,0
3770,0.057256310968056966,0
3771,-0.006551132187249481,0
3772,0.028350300965294374,0
3773,0.06900853775963993,0
3774,0.1467627797243852,0
3775,-0.03556247484855585,0
3776,-0.0442182864917663,0
3777,0.07813717781118565,0
3778,0.03127121812728603,0
3779,-0.09092844678211513,0
3780,0.4263809130599281,0
3781,4.201951569896579,0
3782,6.560274514590918,0
3783,-1.2388325388280932,0
3784,-1.3624509726892382,0
3785,1.291749928115547,0
3786,-0.8352250638509044,0
3787,0.3067477850047926,0
3788,0.0324699866431803,0
3789,0.00891711519255386,0
3790,-0.018875062393588375,0
3791,0.10868063275215371,0
3792,-0.001136504273638244,0
3793,0.0004054968790321231,0
3794,0.07695169972864993,0
3795,0.10042341544404518,0
3796,0.034871181758635114,0
3797,0.0006590530487276605,0
3798,0.07420007020814613,0
3799,-0.06132955384675531,0
3800,0.43296243130132617,0
3801,4.144734500694554,0
3802,6.48839904481431,0
3803,-1.2351200464486245,0
3804,-1.354910928373143,0
3805,1.4446044901929482,0
3806,-0.7712591894335428,0
3807,0.28499048373013985,0
3808,-0.07952217846237658,0
3809,0.0019456273026277476,0
3810,0.007516924212805642,0
3811,0.017472233949415127,0
3812,0.024839666769271143,0
3813,0.006661145725796231,0
3814,-0.10858837034537987,0
3815,0.03612889631165478,0
3816,-0.052960248917949135,0
3817,0.023262793230019698,0
3818,0.03640973154158243,0
3819,0.056757095884632285,0
3820,0.46105810449124474,0
3821,4.241776317849602,0
3822,6.5937531661132525,0
3823,-1.2285218584190496,0
3824,-1.2559678271494807,0
3825,1.3940402058210188,0
3826,-0.872779092439169,0
3827,0.2362528425470373,0
3828,0.028357072404154453,0
3829,-0.03640451752686908,0
3830,0.026298891823404405,0
3831,0.02712938659661605,0
3832,0.030565303349565767,0
3833,0.08958760037544389,0
3834,0.00011133144995548183,0
3835,-0.026101040804860556,0
3836,0.007239109315143776,0
3837,0.026019768451501304,0
3838,0.05766829797477993,0
3839,-0.03616966427602426,0
3840,0.5347457117537349,0
3841,4.129744651113665,0
3842,6.546576386123239,0
3843,-1.2709293675475122,0
3844,-1.2318835299672015,0
3845,1.4074304983960022,0
3846,-0.8011249335682897,0
3847,0.26204725347782454,0
3848,0.002736808199975441,0
3849,-0.09470205176657889,0
3850,-0.0037368578910342634,0
3851,0.056107208215614116,0
3852,0.02674800072805545,0
3853,-0.04769559283841819,0
3854,0.059793441060175735,0
3855,0.05920371289405309,0
3856,0.08738488699530211,0
3857,0.06063899571397313,0
3858,0.016913091738908516,0
3859,0.04421224562782843,0
3860,0.4539035192399141,0
3861,4.274658583422878,0
3862,6.579748252748495,0
3863,-1.227790591028237,0
3864,-1.3015711321989643,0
3865,1.4786334677484343,0
3866,-0.7425182944407591,0
3867,0.3767610982217128,0
3868,0.07020296941817998,0
3869,0.03216405103818483,0
3870,0.15548532789825742,0
3871,0.01900661764322782,0
3872,-0.04031791348823524,0
3873,0.04164516022545554,0
3874,-0.0019301056921682044,0
3875,0.042980945562233,0
3876,0.03881972094691903,0
3877,-0.013165852755034615,0
3878,0.017863727010126604,0
3879,-0.08067564668912978,0
3880,0.5053467448098977,0
3881,4.19346667302976,0
3882,6.5829666264416,0
3883,-1.3154333125075104,0
3884,-1.3303209581005082,0
3885,1.4130610048061654,0
3886,-0.8061683804286902,0
3887,0.1860263791013449,0
3888,-0.051402216869891826,0
3889,-0.01380824719325117,0
3890,0.04812570547456737,0
3891,-0.012221067557885273,0
3892,-0.057932098731779486,0
3893,-0.029011644180690375,0
3894,0.0008143063839302703,0
3895,0.007237121546206599,0
3896,0.038663519542336426,0
3897,-0.018955563937821662,0
3898,0.037693755328859394,0
3899,-0.043822056406721974,0
3900,0.3401156411969446,0
3901,4.170714933035199,0
3902,6.630082488028443,0
3903,-1.1462520771564333,0
3904,-1.315879640716025,0
3905,1.3145467634216295,0
3906,-0.7934173366987106,0
3907,0.2830998476271645,0
3908,-0.014663247322384478,0
3909,0.0376837199488677,0
3910,0.012223013263768207,0
3911,0.055927992634224474,0
3912,0.12735575980106026,0
3913,0.03633347592659854,0
3914,-0.002126130174865671,0
3915,0.05126368879606384,0
3916,0.050711334719530515,0
3917,0.05174453515373938,0
3918,0.050696132210188,0
3919,0.08807488849985659,0
3920,0.3641038590897203,0
3921,4.207579415182698,0
3922,6.56701404968985,0
3923,-1.3135247927467306,0
3924,-1.1893690753499035,0
3925,1.3561809582444453,0
3926,-0.773354081254942,0
3927,0.24695634740561787,0
3928,-0.057805557644129736,0
3929,0.0769675543158807,0
3930,0.02719707134750391,0
3931,-0.03071607826685309,0
3932,-0.022793304627366204,0
3933,-0.005763086594811872,0
3934,0.011195872468525332,0
3935,-0.0879111101573556,0
3936,0.013884394177087365,0
3937,0.0615380840203377,0
3938,0.08864789861160885,0
3939,0.012161522593146307,0
3940,0.41175272415457864,0
3941,4.203082081973661,0
3942,6.513975274473873,0
3943,-1.2465691801793994,0
3944,-1.228242857103081,0
3945,1.3457154469940609,0
3946,-0.7176721357077449,0
3947,0.26569595789634354,0
3948,-0.008569607086079078,0
3949,-0.0195097889762744,0
3950,0.001181578061506542,0
3951,-0.03171889030038226,0
3952,-0.014768886086141516,0
3953,-0.017492899002758244,0
3954,0.06625999812469381,0
3955,-0.08258284615481844,0
3956,-0.017681303326484047,0
3957,0.04543953236956625,0
3958,-0.04884430541957239,0
3959,-0.010469429942745596,0
3960,0.3894612698768968,0
3961,4.238749480910049,0
3962,6.520078185185793,0
3963,-1.2013005694764833,0
3964,-1.2166796236325763,0
3965,1.4269422331212158,0
3966,-0.8224935661461694,0
3967,0.2434414730123285,0
3968,-0.02383122183860395,0
3969,0.0994565791780595,0
3970,0.10232803040029442,0
3971,-0.003678971684956678,0
3972,0.049112077185234214,0
3973,0.050099143663559054,0
3974,-0.015270543315929128,0
3975,-0.057472946462891104,0
3976,0.0529315167459779,0
3977,0.05695209404280642,0
3978,0.09100893222159097,0
3979,0.09608329118756666,0
3980,0.4850993459387537,0
3981,4.306091968574294,0
3982,6.507215409407621,0
3983,-1.2307085563641738,0
3984,-1.2218329693895558,0
3985,1.427053560992372,0
3986,-0.7133943399335665,0
3987,0.2820179026236573,0
3988,-0.024488777627615203,0
3989,-0.08414931091641101,0
3990,-0.0017047269537337345,0
3991,-0.0677245656223611,0
3992,0.07128600347681506,0
3993,0.021591645225018982,0
3994,0.08854434199403258,0
3995,0.06999411599197541,0
3996,-0.004856824115821289,0
3997,0.013669541335713862,0
3998,0.0022387157738681246,0
3999,-0.05613672816995462,0
4000,0.3590471567044455,0
4001,4.339940234802875,0
4002,6.586106336270749,0
4003,-1.335756912761569,0
4004,-1.1939406731206683,0
4005,1.4293173059044821,0
4006,-0.6768836704471352,0
4007,0.4295150752771175,0
4008,0.0628932383327211,0
4009,0.011223441314302432,0
4010,0.2087333832431816,0
4011,0.1090127916472132,0
4012,0.09720627020720729,0
4013,0.07823761584778718,0
4014,0.10969158900926487,0
4015,0.10436212673603021,0
4016,0.05450083459354385,0
4017,0.14156592274695118,0
4018,0.12421223418231486,0
4019,0.06850754115228556,0
4020,0.4588809023178694,0
4021,4.295036785335464,0
4022,6.514117139190667,0
4023,-1.351701162217073,0
4024,-1.2723103492690773,0
4025,1.4082541304205962,0
4026,-0.805278772802903,0
4027,0.20773742291921032,0
4028,-0.03503236234137147,0
4029,0.06588798355071154,0
4030,0.09166183595520544,0
4031,-0.03456717515681845,0
4032,-0.047631712528872786,0
4033,0.04506254050509573,0
4034,0.04609482999178784,0
4035,0.08724585053997881,0
4036,0.0333398437939066,0
4037,0.030411920890600214,0
4038,0.16644064609937975,0
4039,0.0011138966202232994,0
4040,0.5341676301455128,0
4041,4.300981564408127,0
4042,6.558146756430018,0
4043,-1.237983611766281,0
4044,-1.1748371640427715,0
4045,1.3263634635654449,0
4046,-0.6464397165890083,0
4047,0.35592515484319753,0
4048,0.09794602228123364,0
4049,0.055072868977123546,0
4050,0.09117752711329799,0
4051,0.13725076324641766,0
4052,0.06137594782702921,0
4053,0.0703395540843891,0
4054,0.046477683458203065,0
4055,0.00471695869736264,0
4056,0.07956648097192605,0
4057,-0.04185606371760726,0
4058,0.027859363079443283,0
4059,-0.031789130243545925,0
4060,0.4817833906812142,0
4061,4.318835656600048,0
4062,6.572057246877436,0
4063,-1.322119276449704,0
4064,-1.2605694146003852,0
4065,1.432675401879502,0
4066,-0.8090289284240223,0
4067,0.2579923555060795,0
4068,0.008201560075397582,0
4069,-0.0036968126459860553,0
4070,0.02455910346787541,0
4071,-0.008414687031308255,0
4072,0.01618795663772444,0
4073,0.15525755875466513,0
4074,0.0832472370013782,0
4075,0.05182891351847536,0
4076,0.065289779677453,0
4077,0.021619293362586098,0
4078,0.018856539519746342,0
4079,0.0057763992989580334,0
4080,0.5444806848055537,0
4081,4.224127515588099,0
4082,6.567020913204899,0
4083,-1.258961483404561,0
4084,-1.1838235414318274,0
4085,1.3915639153337822,0
4086,-0.6887304303387738,0
4087,0.3012803811865911,0
4088,0.007809131036299016,0
4089,0.07954346428325135,0
4090,0.08160492474774092,0
4091,0.07206636964133428,0
4092,0.06055136586142826,0
4093,0.07692710311227274,0
4094,0.06970491194450741,0
4095,0.04790958766640527,0
4096,0.1287327943721336,0
4097,-0.007292426887023487,0
4098,0.032034095355249176,0
4099,0.006295812647725142,0
4100,0.48962069033586564,0
4101,4.355280021908144,0
4102,6.480824363787669,0
4103,-1.2664811420195772,0
4104,-1.223618321737296,0
4105,1.4501743344575488,0
4106,-0.7170653106870831,0
4107,0.3457073522325745,0
4108,0.029747833760259943,0
4109,0.053188995247269825,0
4110,0.09547395005553047,0
4111,-0.010465285855319934,0
4112,-0.08126327431732336,0
4113,-0.02093382068458578,0
4114,0.06106795772475243,0
4115,0.0903008262601156,0
4116,0.03707284947325693,0
4117,0.06011731919393282,0
4118,0.1293369486182646,0
4119,0.11752514059094377,0
4120,0.48490849121338475,0
4121,4.347847378994897,0
4122,6.540994960027902,0
4123,-1.287122732997547,0
4124,-1.14811888438015,0
4125,1.4202018314784524,0
4126,-0.6536059775317477,0
4127,0.4070669507975119,0
4128,0.15990287932815433,0
4129,0.09204280197406461,0
4130,0.08952221947492026,0
4131,0.08547451671245294,0
4132,0.09943351138379529,0
4133,0.12083087890669143,0
4134,0.12258722528411059,0
4135,0.0422822792973586,0
4136,0.14455004708361482,0
4137,0.20187601929006957,0
4138,0.05440431965768164,0
4139,0.113205707924086,0
4140,0.5186181322975308,0
4141,4.33474848647115,0
4142,6.618040075221425,0
4143,-1.234821427732471,0
4144,-1.1188143159553372,0
4145,1.4273647122951891,0
4146,-0.854021481165974,0
4147,0.26007124397379017,0
4148,-0.004105349598256609,0
4149,0.05420964270964749,0
4150,0.02899724201093675,0
4151,0.1279091101947698,0
4152,-0.025438669542728748,0
4153,0.02526250291638451,0
4154,0.06436640630947718,0
4155,-0.014756561630116946,0
4156,0.004382626174465956,0
4157,0.023871805574936178,0
4158,0.08797231580085674,0
4159,0.045828834547573714,0
4160,0.5541719871941193,0
4161,4.316063274451819,0
4162,6.597784054099285,0
4163,-1.217843668606643,0
4164,-1.1972809511337206,0
4165,1.4307366309223704,0
4166,-0.7464189365957435,0
4167,0.36058576922615804,0
4168,0.02534360860756967,0
4169,-0.02925013272635934,0
4170,0.08201460840900109,0
4171,0.069267072373246,0
4172,0.07301584662408797,0
4173,0.10088539876896113,0
4174,0.1516699635321637,0
4175,0.06601103169760358,0
4176,0.058476658148114646,0
4177,0.08161299377813849,0
4178,0.0658020641405559,0
4179,-0.03092705734093696,0
4180,0.5066974635367276,0
4181,4.362089586822352,0
4182,6.607899748561892,0
4183,-1.260961597688973,0
4184,-1.2500628402350191,0
4185,1.3638766990061766,0
4186,-0.6847525101648123,0
4187,0.2841064141162226,0
4188,0.03896521157705286,0
4189,-0.027012821429499848,0
4190,0.10605620276234207,0
4191,-0.11517296260315682,0
4192,0.1336311505548013,0
4193,-0.050206914581005374,0
4194,0.03865574060984607,0
4195,0.10786574819051648,0
4196,-0.017518534118864393,0
4197,0.07678535785443845,0
4198,-0.018034832633680775,0
4199,0.10510005170997648,0
4200,0.4769438720267875,0
4201,4.322048589640382,0
4202,6.5548989784816625,0
4203,-1.3353482115885544,0
4204,-1.3170691918876027,0
4205,1.4320104575449937,0
4206,-0.8178336825166924,0
4207,0.28379016771290466,0
4208,-0.10976436603405895,0
4209,-0.10684728945906327,0
4210,0.06419504000993707,0
4211,-0.04292143448814412,0
4212,0.033671293972635644,0
4213,0.04124337623126803,0
4214,0.024525833999026067,0
4215,-0.04281083999994036,0
4216,0.011584260848437234,0
4217,0.009087923828751168,0
4218,0.031774627175322756,0
4219,-0.04980108607138724,0
4220,0.44488083908806975,0
4221,4.248184485760653,0
4222,6.45584878327339,0
4223,-1.335340742789376,0
4224,-1.204252546149831,0
4225,1.4118191867048064,0
4226,-0.6739709820382124,0
4227,0.1649024022684047,0
4228,-0.005927677734036126,0
4229,0.03159911494821747,0
4230,0.05471953889621335,0
4231,-0.08059107174851786,0
4232,-0.03304561481168443,0
4233,0.05758734003279358,0
4234,-0.002341188290636613,0
4235,0.006090267252626673,0
4236,0.03371424815086171,0
4237,0.09663317650069558,0
4238,-0.01778618363413641,0
4239,0.006989792562890219,0
4240,0.44627109610994947,0
4241,4.223707155813032,0
4242,6.4940827566256445,0
4243,-1.370908147114616,0
4244,-1.227886250247232,0
4245,1.3898088373853827,0
4246,-0.8045815719876133,0
4247,0.2954304786587274,0
4248,-0.0650563848614473,0
4249,-0.11645342872832076,0
4250,0.004130562525818945,0
4251,0.02963387476771952,0
4252,-0.08653406655875923,0
4253,0.008628625774465997,0
4254,-0.0018347825372735937,0
4255,-0.087911115220713,0
4256,-0.046278156416255586,0
4257,-0.004709859196099768,0
4258,-0.017881643088806014,0
4259,0.0906089443547671,0
4260,0.4559777916138281,0
4261,4.254764335221139,0
4262,6.512064752514606,0
4263,-1.365282739383275,0
4264,-1.205442217683613,0
4265,1.3646428278182063,0
4266,-0.8697564721191109,0
4267,0.2179703092482803,0
4268,-0.030233889085321028,0
4269,-0.054079874453459104,0
4270,0.0032663199597188722,0
4271,0.052237915504497315,0
4272,0.032533051579851584,0
4273,0.016719720770722462,0
4274,-0.004338358521931546,0
4275,0.04959743422390868,0
4276,-0.01177070106861182,0
4277,0.00041158459611015055,0
4278,-0.029623888781747685,0
4279,0.025874180618855172,0
4280,0.435968695949568,0
4281,4.271023335836745,0
4282,6.46103322460933,0
4283,-1.3362936500515672,0
4284,-1.138391522454826,0
4285,1.3523929322512047,0
4286,-0.7868253555727847,0
4287,0.22085790453365312,0
4288,0.018371481260223123,0
4289,-0.0557507267753019,0
4290,0.02607904370717458,0
4291,-0.017942833511464345,0
4292,-0.028678477501216874,0
4293,-0.06457257056499473,0
4294,0.07231106483459272,0
4295,0.03444479671672579,0
4296,-0.01565002483361771,0
4297,-0.014653484845679625,0
4298,0.05309543719040451,0
4299,0.03488486167444024,0
4300,0.44631790703431606,0
4301,4.382539065485051,0
4302,6.482950133649312,0
4303,-1.3057341520886712,0
4304,-1.2659705154577834,0
4305,1.4072519937698975,0
4306,-0.8230258172659435,0
4307,0.17421503863229174,0
4308,-0.11818655238432163,0
4309,-0.04285809972327212,0
4310,-0.11535903498651427,0
4311,-0.0112910966774511,0
4312,0.009679219074244516,0
4313,0.03986768053337572,0
4314,0.040032902237871655,0
4315,0.039976606715845915,0
4316,-0.08521470429038985,0
4317,-0.04273419849230229,0
4318,-0.0795927245948627,0
4319,0.06606088049881852,0
4320,0.4377715718688972,0
4321,4.280498128603141,0
4322,6.464640987861288,0
4323,-1.480834633914263,0
4324,-1.1583313958893209,0
4325,1.3647492863952981,0
4326,-0.8432886101648218,0
4327,0.19089201662258967,0
4328,-0.12206543729560412,0
4329,-0.029160636610343127,0
4330,-0.027482706048433177,0
4331,-0.048467067576730735,0
4332,0.0033482919896398594,0
4333,0.030963547882624953,0
4334,0.015394273676055751,0
4335,-0.06559513899985775,0
4336,0.026708417260932534,0
4337,-0.04741773100101687,0
4338,-0.04301419208310419,0
4339,0.0452258493466567,0
4340,0.443721055056162,0
4341,4.369284216656511,0
4342,6.598887537577694,0
4343,-1.3590456633611616,0
4344,-1.1266630171536633,0
4345,1.3582668961391913,0
4346,-0.7956667049140537,0
4347,0.3569845344851876,0
4348,-0.01326065550765853,0
4349,0.0862994884718054,0
4350,0.06364985362339494,0
4351,-0.03138068621722653,0
4352,-0.05166488912945843,0
4353,-0.0710581806529677,0
4354,0.0012321953952351746,0
4355,-0.009328756128452334,0
4356,-0.07108015820617061,0
4357,-0.0738768088797492,0
4358,-0.08004932704120539,0
4359,-0.09232440953613308,0
4360,0.4078401988140716,0
4361,4.309946619846408,0
4362,6.50810569430365,0
4363,-1.3522202294483001,0
4364,-1.1771391233920303,0
4365,1.3453614776832086,0
4366,-0.7735025761083343,0
4367,0.0743329028077167,0
4368,0.03708996390314708,0
4369,0.0034817952111157215,0
4370,0.06981581422509442,0
4371,0.003711650012062244,0
4372,-0.03895104090937927,0
4373,0.015090619939448772,0
4374,-0.09273076108416194,0
4375,0.015193774559476673,0
4376,-0.0347143026240607,0
4377,0.041956339946342264,0
4378,0.00915451640608194,0
4379,-0.1013551111022065,0
4380,0.44380101642573194,0
4381,4.215647907990476,0
4382,6.495563488639431,0
4383,-1.454423457580627,0
4384,-1.2276801387728906,0
4385,1.4144956353829792,0
4386,-0.7776916539025447,0
4387,0.29399657304016363,0
4388,-0.060098278393005244,0
4389,0.007196717638172558,0
4390,-0.037580682217097774,0
4391,-0.04422205586127385,0
4392,-0.03381140907453921,0
4393,0.014772126399771077,0
4394,-0.07612064791596723,0
4395,-0.00941534334308062,0
4396,-0.06561680252452502,0
4397,-0.15817882135011624,0
4398,0.05267580572301512,0
4399,-0.14308458558007892,0
4400,0.3678123206567226,0
4401,4.232018268594061,0
4402,6.317067490687621,0
4403,-1.4697380835193634,0
4404,-1.3280431947604519,0
4405,1.2292591913149196,0
4406,-0.8778246276554416,0
4407,0.3294453442779668,0
4408,-0.1783953771797694,0
4409,-0.13531073333946866,0
4410,-0.08524099006017423,0
4411,0.023196037194366206,0
4412,-0.03641728294573176,0
4413,-0.02880333592592111,0
4414,-0.10249119295458878,0
4415,0.014613979946404752,0
4416,-0.01575386348498749,0
4417,0.08528113382705188,0
4418,-0.04183875209409548,0
4419,-0.07291093704993347,0
4420,0.5700347259567161,0
4421,4.288139301016991,0
4422,6.385850967331875,0
4423,-1.4307743273471962,0
4424,-1.2957689941464805,0
4425,1.2101596949612392,0
4426,-0.8592095345925712,0
4427,0.18731313854396975,0
4428,-0.07501436792309843,0
4429,-0.09781539162006372,0
4430,-0.09228007244525067,0
4431,-0.09074410169131164,0
4432,-0.039879015604944695,0
4433,-0.043219269936813194,0
4434,-0.04122255235656966,0
4435,-0.0011023126836930512,0
4436,-0.037006069686686134,0
4437,-0.032319790766273455,0
4438,0.04558545174991749,0
4439,0.061348523640367955,0
4440,0.5385090614299131,0
4441,4.240223991995585,0
4442,6.545905433942179,0
4443,-1.331743472733666,0
4444,-1.035483146648645,0
4445,1.4554133329623484,0
4446,-0.6801250606453756,0
4447,0.2731007345380918,0
4448,-0.03552849358285085,0
4449,0.07311777205718557,0
