timestamp,value-0,is_anomaly
0,0.11610314117795964,0.0
1,3.433748601876701,0.0
2,6.844895927433116,0.0
3,-0.22231908592770977,0.0
4,-2.0419339755336767,0.0
5,1.4841391875071757,0.0
6,-0.7216822509575735,0.0
7,0.1273433884149449,0.0
8,0.03306267455499267,0.0
9,-0.029192477211607358,0.0
10,0.06586197722070214,0.0
11,-0.01881315519308741,0.0
12,0.04679092293849167,0.0
13,0.011078606498686012,0.0
14,0.07686563128581018,0.0
15,0.008098382319227299,0.0
16,-0.05363702946782201,0.0
17,-0.06982966868753862,0.0
18,-0.018951284066826606,0.0
19,-0.13318916758225222,0.0
20,0.20700998001651147,0.0
21,3.51843958754455,0.0
22,6.783154745943641,0.0
23,-0.24772360416291833,0.0
24,-2.05408524205504,0.0
25,1.6117569115282446,0.0
26,-0.5304256416245233,0.0
27,0.16957391757223594,0.0
28,0.11093373877776744,0.0
29,-0.05304374647472819,0.0
30,0.0726946937733086,0.0
31,-0.02616677193721524,0.0
32,0.12198121505194302,0.0
33,0.005329097094075266,0.0
34,0.045431835229594854,0.0
35,0.058817945265348906,0.0
36,-0.039704795574855664,0.0
37,0.012552792192277056,0.0
38,-0.030452436773463584,0.0
39,-0.0020787694638438013,0.0
40,0.1990987744507208,0.0
41,3.4782443968091914,0.0
42,6.8066160824401,0.0
43,-0.236504952134169,0.0
44,-1.9174625313466298,0.0
45,1.5349543684972282,0.0
46,-0.8530262739978036,0.0
47,0.06325728953176404,0.0
48,0.048853096147948034,0.0
49,-0.10484447099704815,0.0
50,0.004549081995736792,0.0
51,-0.05730176574857517,0.0
52,-0.10664278915848169,0.0
53,0.0019060505838955494,0.0
54,-0.052555036031273254,0.0
55,-0.0886516949474022,0.0
56,-0.06227549041200879,0.0
57,-0.041463902995790745,0.0
58,-0.006103791577345915,0.0
59,-0.013932052441266697,0.0
60,0.2919305298313098,0.0
61,3.4893717854372728,0.0
62,6.898838792881149,0.0
63,-0.29499899180133415,0.0
64,-1.9692958688048565,0.0
65,1.4985819810275898,0.0
66,-0.7479865666273222,0.0
67,0.1204863271257211,0.0
68,-0.0713115986981828,0.0
69,-0.03341003259231924,0.0
70,-0.07753369057525789,0.0
71,-0.12917213536411254,0.0
72,-0.03652494200989792,0.0
73,-0.03938158771124149,0.0
74,-0.12085046237343541,0.0
75,-0.02614391974211852,0.0
76,0.02565862776398245,0.0
77,-0.06386334491684377,0.0
78,-0.049356263806027596,0.0
79,-0.030933717839945845,0.0
80,0.1628678007967208,0.0
81,3.4237680429571204,0.0
82,6.973823481911758,0.0
83,-0.34624027807796026,0.0
84,-1.9610763466062535,0.0
85,1.5079997941331136,0.0
86,-0.7417503354185879,0.0
87,0.17232679792404787,0.0
88,0.05905478903089099,0.0
89,-0.054729937902460946,0.0
90,-0.06616932252088951,0.0
91,-0.03748624386492252,0.0
92,0.025171390988630665,0.0
93,-0.1151342828444202,0.0
94,-0.011481038373848576,0.0
95,-0.09962822883372299,0.0
96,-0.1268936529083512,0.0
97,-0.029220163094125194,0.0
98,0.023515401719635676,0.0
99,-0.039758286293945906,0.0
100,0.21006624434271395,0.0
101,3.410932823600049,0.0
102,6.842160447790269,0.0
103,-0.29182002903693893,0.0
104,-2.022908584487894,0.0
105,1.5538100780046011,0.0
106,-0.7828848627574444,0.0
107,-0.032015256528194425,0.0
108,-0.025328814064664557,0.0
109,-0.08797394408690837,0.0
110,-0.09154832001987807,0.0
111,-0.06258745605569045,0.0
112,-0.10117548195618255,0.0
113,-0.001190484058972499,0.0
114,-0.06685954247212698,0.0
115,-0.04399997193809408,0.0
116,-0.04924559225951114,0.0
117,-0.03581519319182129,0.0
118,0.04683455144352632,0.0
119,-0.03682995632368735,0.0
120,0.17160244399839747,0.0
121,3.506916326030539,0.0
122,6.81464739404294,0.0
123,-0.2826261342943383,0.0
124,-1.9629319692755285,0.0
125,1.5249379413918158,0.0
126,-0.7259748620727982,0.0
127,0.09543925058778638,0.0
128,-0.009477472928522704,0.0
129,-0.09963136138978244,0.0
130,-0.024830734159228957,0.0
131,-0.016331840391438084,0.0
132,-0.07322151365842718,0.0
133,-0.04931138836445356,0.0
134,-0.08391371803714082,0.0
135,0.00446270134969675,0.0
136,-0.05363617637519975,0.0
137,0.009499829102977447,0.0
138,0.0038857669229544964,0.0
139,-0.08234313116053084,0.0
140,0.1987888212102524,0.0
141,3.4465145600874276,0.0
142,6.8148606772249405,0.0
143,-0.38994802463486417,0.0
144,-2.0397899165756033,0.0
145,1.5033747771115216,0.0
146,-0.6984570980576924,0.0
147,-0.011190490840851317,0.0
148,-0.06174133875959715,0.0
149,-0.08988646914151063,0.0
150,-0.03809866247357264,0.0
151,-0.09897142059105943,0.0
152,-0.03438277363662764,0.0
153,-0.0849520186296373,0.0
154,-0.02187246805948942,0.0
155,-0.045222178134101704,0.0
156,-0.08932242786599884,0.0
157,0.0238882756797558,0.0
158,0.09352712850323561,0.0
159,-0.010112668178844372,0.0
160,0.27975109032857043,0.0
161,3.5384765198209065,0.0
162,6.85931311283254,0.0
163,-0.3085288664514101,0.0
164,-1.9964547383531768,0.0
165,1.5502363975687172,0.0
166,-0.7030537425359524,0.0
167,0.0753609019718257,0.0
168,0.0052049725436514645,0.0
169,-0.0349413711538689,0.0
170,-0.10132126419929613,0.0
171,-0.07761916801186897,0.0
172,-0.03520189632171656,0.0
173,-0.04333374719736042,0.0
174,-0.046903503373341884,0.0
175,-0.10041783239380482,0.0
176,-0.024888617993783342,0.0
177,-0.09418746499116944,0.0
178,0.13140821587500964,0.0
179,0.01826787335689085,0.0
180,0.2705340169080581,0.0
181,3.5800302414207335,0.0
182,6.9869503233127865,0.0
183,-0.2923363353187689,0.0
184,-1.9810685215895385,0.0
185,1.5836171219211126,0.0
186,-0.7401320448905956,0.0
187,0.16346183971587724,0.0
188,0.0008295666922583861,0.0
189,-0.11138687054841881,0.0
190,-0.019012312326534234,0.0
191,-0.003024077537998021,0.0
192,-0.022029032027752134,0.0
193,-0.04017855430726298,0.0
194,-0.015426602818947532,0.0
195,-0.04380467197067484,0.0
196,0.0047812127151163515,0.0
197,-0.00745739807973619,0.0
198,0.01204915069756574,0.0
199,-0.029630256793765443,0.0
200,0.29635414965194584,0.0
201,3.462198542172626,0.0
202,6.816634918233228,0.0
203,-0.31580547735749004,0.0
204,-1.9344471239346042,0.0
205,1.5466805972990942,0.0
206,-0.7094839511356935,0.0
207,0.08016494455476386,0.0
208,0.04886957124997872,0.0
209,-0.1368272240339028,0.0
210,0.1065122047646241,0.0
211,0.024023135353622015,0.0
212,0.01236045691981831,0.0
213,0.05211815035022979,0.0
214,0.015379659799293448,0.0
215,-0.03959737351627492,0.0
216,0.012262464719597767,0.0
217,-0.06549261149034996,0.0
218,-0.022477615440642622,0.0
219,0.07596503550793235,0.0
220,0.3097809418747427,0.0
221,3.509547412968,0.0
222,6.933156680654287,0.0
223,-0.331206218372703,0.0
224,-1.8213740288830793,0.0
225,1.6411706098947365,0.0
226,-0.7187370202459826,0.0
227,0.16486061723026302,0.0
228,0.0696507684966942,0.0
229,0.01393022795471735,0.0
230,0.04469747197130665,0.0
231,0.04385007827294729,0.0
232,0.0636794861350099,0.0
233,-0.06553894684696054,0.0
234,-0.0013289312331157613,0.0
235,-0.03352097209024598,0.0
236,0.014554023547069037,0.0
237,0.06215418981135097,0.0
238,-0.009108145426294323,0.0
239,0.06394087761340753,0.0
240,0.2589835927609316,0.0
241,3.555892559042229,0.0
242,6.856010129163984,0.0
243,-0.35657531217440624,0.0
244,-1.94559452194457,0.0
245,1.614501465970442,0.0
246,-0.6478500609157835,0.0
247,0.13368864548063333,0.0
248,0.029004004958435328,0.0
249,0.02063683343349676,0.0
250,0.07071820473810383,0.0
251,0.06336428892773614,0.0
252,0.010028822642264443,0.0
253,0.011604096222208336,0.0
254,0.03710696491119397,0.0
255,0.09863462734080063,0.0
256,0.11718439844336734,0.0
257,-0.005259293129048909,0.0
258,0.14790006531003325,0.0
259,0.07075636410464592,0.0
260,0.392758611540847,0.0
261,3.6167566745534168,0.0
262,6.940747775476429,0.0
263,-0.2445141534946499,0.0
264,-1.8655011040105387,0.0
265,1.5918044722113727,0.0
266,-0.6093336044801443,0.0
267,0.1523919080560103,0.0
268,0.04468317780601048,0.0
269,-0.0028328832532593003,0.0
270,-0.022944835554532472,0.0
271,0.042395654983690204,0.0
272,0.07773416829144125,0.0
273,0.051629225231400885,0.0
274,0.054641708255242005,0.0
275,0.06199676087154647,0.0
276,0.09407982725410484,0.0
277,0.02203641660613996,0.0
278,0.08781683651023772,0.0
279,0.063443903965893,0.0
280,0.3665672297775973,0.0
281,3.6460830077307946,0.0
282,6.919239714987607,0.0
283,-0.20514644415134284,0.0
284,-1.8905493904767716,0.0
285,1.6293091080049702,0.0
286,-0.5509188048632239,0.0
287,0.32916450651633944,0.0
288,0.13326285934601315,0.0
289,-0.01450241272269212,0.0
290,0.12366459424170478,0.0
291,-0.007534565557161199,0.0
292,0.13123665922621197,0.0
293,0.19837433785203246,0.0
294,0.1395968346721618,0.0
295,0.0979445827658758,0.0
296,0.1238424940785,0.0
297,0.13630181478680117,0.0
298,0.18656198518406142,0.0
299,0.11306750333762415,0.0
300,0.2901186891657092,0.0
301,3.548954755623193,0.0
302,6.867591793011036,0.0
303,-0.2852568847299868,0.0
304,-1.9392561633255383,0.0
305,1.5413022652721655,0.0
306,-0.7743907021724102,0.0
307,0.1299014879824202,0.0
308,0.03569258917462991,0.0
309,-0.07678965513541783,0.0
310,-0.06723379702683989,0.0
311,-0.06598758638394453,0.0
312,-0.004920949610381354,0.0
313,-0.018754800355043462,0.0
314,-0.057146723573034575,0.0
315,0.14912445849944939,0.0
316,0.0520805334334978,0.0
317,0.0017124462931656995,0.0
318,0.0699256409920388,0.0
319,0.044700238580862556,0.0
320,0.25996896873759157,0.0
321,3.686073554466943,0.0
322,7.031607760507229,0.0
323,-0.27544021400528546,0.0
324,-1.77921949915441,0.0
325,1.5273488268462398,0.0
326,-0.6652545744986955,0.0
327,0.08369509347043656,0.0
328,0.07642237097835253,0.0
329,-0.09733358937110813,0.0
330,0.014273035534560365,0.0
331,0.1354696342011858,0.0
332,0.01813817415236462,0.0
333,0.1547629036180148,0.0
334,0.0828121888062132,0.0
335,0.044508761328050435,0.0
336,0.062478966128414734,0.0
337,0.03479003518742316,0.0
338,0.011719063132395097,0.0
339,0.038382605887149285,0.0
340,0.3792277420046807,0.0
341,3.620408566103524,0.0
342,7.034759923894276,0.0
343,-0.3586954454411675,0.0
344,-1.8353421796974725,0.0
345,1.6346860314197567,0.0
346,-0.6607462301850253,0.0
347,0.186946293563371,0.0
348,0.06302898128926149,0.0
349,0.020771528962697853,0.0
350,0.03920557384287639,0.0
351,0.024936013302286203,0.0
352,0.04831054081830606,0.0
353,0.07404027028030431,0.0
354,0.12118253153982206,0.0
355,0.10799847461588319,0.0
356,0.05554987898069256,0.0
357,0.1441710483205622,0.0
358,0.09781030671947154,0.0
359,-0.043842704604148394,0.0
360,0.31649476422395606,0.0
361,3.6748601859126717,0.0
362,6.925741615401175,0.0
363,-0.3046406902956993,0.0
364,-1.8597339228602188,0.0
365,1.545256842261116,0.0
366,-0.6672459418010931,0.0
367,0.15728844345349458,0.0
368,0.13042852344719597,0.0
369,-0.028225305758217547,0.0
370,-0.013023866140677541,0.0
371,-0.07239115561341321,0.0
372,0.07032021075125632,0.0
373,0.05462290437859342,0.0
374,0.06304940656495957,0.0
375,0.01396115981338348,0.0
376,0.014900705556058633,0.0
377,-0.0386544477473226,0.0
378,0.005884165539769298,0.0
379,-0.07883790899581038,0.0
380,0.27556190310619466,0.0
381,3.530603699232659,0.0
382,6.930651327241515,0.0
383,-0.30195403422717315,0.0
384,-1.8779023321464297,0.0
385,1.5234985180573977,0.0
386,-0.8229965719029959,0.0
387,0.23762543277536652,0.0
388,-0.04533492985747734,0.0
389,-0.033720972183566233,0.0
390,0.012769983404439852,0.0
391,0.001427352000339817,0.0
392,-0.06101408843462999,0.0
393,-0.05824032961840753,0.0
394,-0.050272480409304154,0.0
395,-0.05575165641828657,0.0
396,-0.06500039269979613,0.0
397,-0.021476992829915834,0.0
398,0.021025718263476455,0.0
399,-0.10966397425374189,0.0
400,0.22364395260542216,0.0
401,3.472406151358783,0.0
402,6.800172502187379,0.0
403,-0.3802453053627717,0.0
404,-1.8823747718708292,0.0
405,1.5449245626333827,0.0
406,-0.7370905060163712,0.0
407,0.15477422339590802,0.0
408,-0.0179047662693386,0.0
409,-0.0592983495959125,0.0
410,0.03474327163028674,0.0
411,0.009549401098910169,0.0
412,0.05938861662304085,0.0
413,0.001837657749195449,0.0
414,0.02541384048953523,0.0
415,-0.09619135501879432,0.0
416,-0.00803639478000245,0.0
417,0.06821662723286294,0.0
418,-0.05103314937300823,0.0
419,0.0151550600744919,0.0
420,0.30265403961656906,0.0
421,3.5924164758807002,0.0
422,6.819241071702673,0.0
423,-0.3387943283715354,0.0
424,-1.8424063551677086,0.0
425,1.4889353537112617,0.0
426,-0.7139921642434978,0.0
427,0.1604007671631767,0.0
428,0.0727136116306956,0.0
429,-0.0017306482729249062,0.0
430,0.04258319280259168,0.0
431,0.024444532228990394,0.0
432,0.024272189268585927,0.0
433,0.010399282841996298,0.0
434,0.03461587521630435,0.0
435,0.05680158745940654,0.0
436,-0.03233052354965102,0.0
437,-0.010356937411491005,0.0
438,0.0014493381935028922,0.0
439,-0.06174480186878627,0.0
440,0.33279783806060426,0.0
441,3.559621327240186,0.0
442,6.8502618460660925,0.0
443,-0.2930564694354147,0.0
444,-1.8963774160876337,0.0
445,1.5319462030684534,0.0
446,-0.76776606829531,0.0
447,0.10486102076953846,0.0
448,0.010994588620588153,0.0
449,-0.0027455985916627346,0.0
450,0.009005914395922127,0.0
451,-0.06051867708284264,0.0
452,-0.03410374332154361,0.0
453,-0.0018019653078700255,0.0
454,-0.10375339782741314,0.0
455,0.15467546817855676,0.0
456,0.07630256509734772,0.0
457,-0.03622058590347014,0.0
458,0.1380256573397359,0.0
459,-0.024936080763528524,0.0
460,0.2750843633060072,0.0
461,3.59390465833429,0.0
462,6.844480260752086,0.0
463,-0.31734350664889077,0.0
464,-1.862590431795147,0.0
465,1.5899994671007618,0.0
466,-0.7247230371258938,0.0
467,0.13200319171045305,0.0
468,0.03564965046294363,0.0
469,-0.08603376701610049,0.0
470,-0.03651511821196743,0.0
471,-0.04427166622045008,0.0
472,0.03857365893490061,0.0
473,0.013889343745754533,0.0
474,-0.08097721419781645,0.0
475,-0.018138846972967693,0.0
476,-0.016311354014219733,0.0
477,-0.04754919945694077,0.0
478,-0.0631190249695853,0.0
479,-0.005697607449374439,0.0
480,0.2827863314987156,0.0
481,3.5755875179485694,0.0
482,6.962730767069924,0.0
483,-0.43302256983082466,0.0
484,-1.8702630139409118,0.0
485,1.5634131194317915,0.0
486,-0.6960950146605068,0.0
487,0.1760693049404647,0.0
488,0.04605720680327575,0.0
489,0.03351944528995713,0.0
490,0.09735349877821914,0.0
491,0.011466964146731894,0.0
492,-0.047465269187657276,0.0
493,0.10644726666527984,0.0
494,-0.07045130118135991,0.0
495,0.052007845284248434,0.0
496,0.004743861529259472,0.0
497,0.07285220821902205,0.0
498,0.01668186133044155,0.0
499,-0.06213176300287294,0.0
500,0.1814861983105786,0.0
501,3.562365619430711,0.0
502,6.860569207029712,0.0
503,-0.41830001453745813,0.0
504,-1.934486815728542,0.0
505,1.537630467732941,0.0
506,-0.6640311827667834,0.0
507,0.05781818728976994,0.0
508,-0.022972702077657323,0.0
509,0.037483639072997114,0.0
510,0.04580480570296673,0.0
511,-0.031218155864280457,0.0
512,0.06226725934635292,0.0
513,0.07020496487514134,0.0
514,0.01736235128791307,0.0
515,0.056089073520964254,0.0
516,-0.056197957241152875,0.0
517,0.024831895307587344,0.0
518,0.012892660146805993,0.0
519,0.07492291584181605,0.0
520,0.31786030661304177,0.0
521,3.583129931844226,0.0
522,6.8886834826866545,0.0
523,-0.36642205310021775,0.0
524,-1.8998886656079776,0.0
525,1.6075716922518457,0.0
526,-0.6909014256710144,0.0
527,0.18133296825900894,0.0
528,0.03527588450726658,0.0
529,-0.0333144073198272,0.0
530,-0.0035191963950646013,0.0
531,-0.05089910984359487,0.0
532,0.08978796714359093,0.0
533,0.05875946379955002,0.0
534,0.05795808147766829,0.0
535,-0.011059877822222348,0.0
536,-0.10268526306491926,0.0
537,0.0008730744390898597,0.0
538,-0.023201263307174286,0.0
539,-0.0126538084717794,0.0
540,0.28038198456995994,0.0
541,3.6822074593343905,0.0
542,6.870826669706098,0.0
543,-0.44765960138846994,0.0
544,-1.7762678991539267,0.0
545,1.5725256566268584,0.0
546,-0.6972053745863959,0.0
547,0.27009573212730076,0.0
548,0.04850912326159797,0.0
549,0.03096561790847626,0.0
550,0.09958948320130327,0.0
551,0.10102591603700414,0.0
552,0.12348171703620836,0.0
553,0.06186496156966745,0.0
554,0.023959925222329495,0.0
555,-0.011200137881330015,0.0
556,0.02296438232610793,0.0
557,-0.03733852442746934,0.0
558,-0.09138531974322539,0.0
559,0.03812748817152243,0.0
560,0.3293298763344042,0.0
561,3.637531291171587,0.0
562,6.814056821367717,0.0
563,-0.45923172371542587,0.0
564,-1.829464757559268,0.0
565,1.4958811706047406,0.0
566,-0.7553286348025425,0.0
567,0.2414875284170327,0.0
568,0.03318753795729036,0.0
569,0.00011767156117334365,0.0
570,0.0809008561320759,0.0
571,0.04783374285711908,0.0
572,0.05958993835990749,0.0
573,-0.07702216876120918,0.0
574,0.08962903271167134,0.0
575,-0.03023293128836852,0.0
576,-0.10718476494989225,0.0
577,-0.026553110081387596,0.0
578,-0.1035699584246764,0.0
579,-0.010644760047731641,0.0
580,0.2407058166234745,0.0
581,3.577409712840439,0.0
582,6.876683414525152,0.0
583,-0.36372349215804434,0.0
584,-1.8422449582355789,0.0
585,1.4451129039202613,0.0
586,-0.7384891232567926,0.0
587,0.2097911384905985,0.0
588,0.03141052229141157,0.0
589,-0.1029383736662225,0.0
590,0.018593990407535767,0.0
591,-0.018697249452530523,0.0
592,0.048188426412625614,0.0
593,-0.012298858650648106,0.0
594,0.04576903047878258,0.0
595,0.04238364003690906,0.0
596,0.0935139368122513,0.0
597,0.05518463616953974,0.0
598,-0.060418065791393534,0.0
599,-0.08341412953556158,0.0
600,0.24095456548502958,0.0
601,3.678406859620877,0.0
602,6.876443665382796,0.0
603,-0.36188176924991167,0.0
604,-1.7609793878743423,0.0
605,1.5793539534203607,0.0
606,-0.6509987486888925,0.0
607,0.20698801788317236,0.0
608,0.08548379120113142,0.0
609,-0.01956250674775082,0.0
610,0.11449395551667041,0.0
611,-0.017929479511803362,0.0
612,0.06537866305989844,0.0
613,0.07030629909151773,0.0
614,0.12229210101364893,0.0
615,0.019231391878099788,0.0
616,0.045867774010886,0.0
617,0.11694857168827075,0.0
618,0.10246871447720318,0.0
619,0.014725968849227944,0.0
620,0.3328197298637779,0.0
621,3.629875224126898,0.0
622,6.828762302412687,0.0
623,-0.3852028820819285,0.0
624,-1.823383773156156,0.0
625,1.5602993529492686,0.0
626,-0.8207571576945334,0.0
627,0.03077422883250054,0.0
628,-0.0038916424531052684,0.0
629,-0.17982907934453468,0.0
630,-0.015297506504301818,0.0
631,-0.06219993209339715,0.0
632,-0.0934780180081665,0.0
633,-0.02994719085335181,0.0
634,-0.12490791047982631,0.0
635,-0.10546166590947018,0.0
636,-0.05911056145611834,0.0
637,-0.0972475989748236,0.0
638,-0.08148439259876852,0.0
639,0.03913675146785749,0.0
640,0.232545263254211,0.0
641,3.60088487184713,0.0
642,6.9213942973236415,0.0
643,-0.4012631639490903,0.0
644,-1.8374100924891834,0.0
645,1.503663584239051,0.0
646,-0.6962889088628254,0.0
647,0.08759785364214699,0.0
648,-0.06963153760073139,0.0
649,-0.02980445696821695,0.0
650,0.060154611775540476,0.0
651,-0.02854442908625001,0.0
652,-0.04524761423555525,0.0
653,-0.007240550233856061,0.0
654,-0.019664529778275958,0.0
655,-0.046670768008509014,0.0
656,-0.03844958513407816,0.0
657,-0.07694443261876097,0.0
658,0.030468651787378072,0.0
659,-0.010057198208535423,0.0
660,0.27156273902554157,0.0
661,3.6397080311262995,0.0
662,6.898538858476348,0.0
663,-0.3592180044445843,0.0
664,-1.8662402791724193,0.0
665,1.5446331338107246,0.0
666,-0.8087261375226884,0.0
667,0.17496616136323817,0.0
668,-0.008790660414915132,0.0
669,-0.04641729324624111,0.0
670,0.03167785014488719,0.0
671,-0.03141726820489062,0.0
672,0.03880731117283898,0.0
673,0.002431670842976905,0.0
674,0.08173957855874936,0.0
675,0.04457744455385764,0.0
676,-0.028884051841017135,0.0
677,-0.050835629306858844,0.0
678,-0.015388658080205831,0.0
679,-0.022268282176900554,0.0
680,0.2672979514596331,0.0
681,3.649703415627094,0.0
682,6.782882755241156,0.0
683,-0.42977044848775986,0.0
684,-1.9630589670668186,0.0
685,1.5039952000967243,0.0
686,-0.7521313420588629,0.0
687,0.10034633596320358,0.0
688,-0.00010804525027175316,0.0
689,-0.09333567425528086,0.0
690,-0.016090686661177335,0.0
691,-0.03485501322755151,0.0
692,0.0035913918767277184,0.0
693,0.018699054134931583,0.0
694,-0.07583657147805363,0.0
695,-0.06791958598997894,0.0
696,0.0617771258858654,0.0
697,-0.05587726759739227,0.0
698,-0.11853813357562613,0.0
699,0.045607375998774694,0.0
700,0.35994349330529324,0.0
701,3.624242270730922,0.0
702,6.854601762189577,0.0
703,-0.4503709026710868,0.0
704,-1.8312984083602328,0.0
705,1.5204222185851985,0.0
706,-0.7286038104166109,0.0
707,0.108863418404469,0.0
708,-0.03694939374440891,0.0
709,-0.00047644561843032673,0.0
710,0.007765267105397685,0.0
711,0.1230225668016422,0.0
712,-0.011215625547484294,0.0
713,0.04441589908850456,0.0
714,-0.04307456170861092,0.0
715,0.12604762043933054,0.0
716,0.009440161354589898,0.0
717,-0.01362261218206224,0.0
718,0.027551629755534254,0.0
719,-0.016520804454970908,0.0
720,0.27274105153027844,0.0
721,3.654501250627793,0.0
722,6.802575829445759,0.0
723,-0.45187680252932383,0.0
724,-1.7907223581894751,0.0
725,1.5057000862631766,0.0
726,-0.7808974583107589,0.0
727,0.1511838970080939,0.0
728,-0.02989080925309318,0.0
729,-0.08789547686324302,0.0
730,0.02205466178247104,0.0
731,-0.04572163679708522,0.0
732,-0.07999369313870545,0.0
733,-0.07672463694273543,0.0
734,0.04239805470139715,0.0
735,-0.0771224568182361,0.0
736,0.09332657774468837,0.0
737,-0.01714754565847735,0.0
738,0.018821507416119224,0.0
739,-0.05569017510643758,0.0
740,0.39619121941070673,0.0
741,3.7082652288997298,0.0
742,6.883229670249716,0.0
743,-0.40019666500784673,0.0
744,-1.8150894397151185,0.0
745,1.6112792184730904,0.0
746,-0.6596616052295315,0.0
747,0.19521626704772452,0.0
748,0.10788369840333756,0.0
749,-0.1558669089086659,0.0
750,0.0711931193850073,0.0
751,-0.02188409529715464,0.0
752,-0.0370751385115758,0.0
753,0.0005459605831559765,0.0
754,0.022040274234277055,0.0
755,-0.0348117925008087,0.0
756,-0.018072281244298983,0.0
757,0.016434374593742026,0.0
758,0.0817853606182897,0.0
759,-0.0032189952602985385,0.0
760,0.29786445166979664,0.0
761,3.646025139962796,0.0
762,6.827864863895404,0.0
763,-0.4884135927543689,0.0
764,-1.7968842974418446,0.0
765,1.6411065098046704,0.0
766,-0.6594381684879245,0.0
767,0.2391131096576705,0.0
768,0.12453095413980027,0.0
769,-0.04188814698898443,0.0
770,0.10704872218418165,0.0
771,0.06513089174997944,0.0
772,0.013590101813554585,0.0
773,-0.02765523842618732,0.0
774,0.06262724469884833,0.0
775,0.08068025308526214,0.0
776,0.06941040960482543,0.0
777,0.05947995672827315,0.0
778,0.019767422813821163,0.0
779,0.11759501146024864,0.0
780,0.3622323569650341,0.0
781,3.589113603968961,0.0
782,6.9127342665204345,0.0
783,-0.49819701089731583,0.0
784,-1.7698554415219707,0.0
785,1.5066817136949087,0.0
786,-0.7472689750146733,0.0
787,0.26556388323757274,0.0
788,0.14380790016699024,0.0
789,0.08095579905989342,0.0
790,0.13763347747392327,0.0
791,0.039657419194040186,0.0
792,0.17795088697809058,0.0
793,0.13345380184303202,0.0
794,0.14321741729404036,0.0
795,0.013413931403479483,0.0
796,0.13455569135028825,0.0
797,0.10887095577165343,0.0
798,0.11457792666874295,0.0
799,0.0758552830265098,0.0
800,0.3926884077616032,0.0
801,3.7181305579800825,0.0
802,6.936614801001025,0.0
803,-0.45073992242282773,0.0
804,-1.8026205002952056,0.0
805,1.5611203858388194,0.0
806,-0.6440381771475547,0.0
807,0.18745320184607323,0.0
808,0.05415578503238433,0.0
809,0.04544404944110156,0.0
810,0.07378130288477577,0.0
811,0.02416867675824845,0.0
812,0.09924717792041418,0.0
813,0.06288073242034947,0.0
814,0.02786772090622155,0.0
815,0.04333981373678948,0.0
816,0.0034106654640928685,0.0
817,0.11980488518851437,0.0
818,0.030766311090589953,0.0
819,0.05407817808851056,0.0
820,0.32730583833713844,0.0
821,3.7731127376480798,0.0
822,6.816118443182746,0.0
823,-0.46723801667444376,0.0
824,-1.7289712592723405,0.0
825,1.5686195036051924,0.0
826,-0.6434352737679646,0.0
827,0.1513004653406401,0.0
828,0.1683091463363372,0.0
829,-0.04787516889440841,0.0
830,0.03969845760808026,0.0
831,0.03024756241330576,0.0
832,-0.020662451575147525,0.0
833,0.05469344982036453,0.0
834,0.03723024240938914,0.0
835,0.035984064624728064,0.0
836,-0.0030076808915261294,0.0
837,-0.025650168386240166,0.0
838,-0.008085197225643888,0.0
839,0.052152639176148846,0.0
840,0.3824105262456974,0.0
841,3.7252334196265204,0.0
842,6.873716390054874,0.0
843,-0.4343394319401728,0.0
844,-1.8485735524428557,0.0
845,1.5917880956922645,0.0
846,-0.7617034234760586,0.0
847,0.20353155265773873,0.0
848,0.14503188938742162,0.0
849,-0.019490481223192448,0.0
850,0.10829636391053224,0.0
851,0.08750780669195554,0.0
852,0.14807469936083678,0.0
853,-0.018232085187431163,0.0
854,0.09442110397129785,0.0
855,0.04120974429255267,0.0
856,0.048622717300660284,0.0
857,0.07251585048261766,0.0
858,0.045757417427025375,0.0
859,0.023608635195177655,0.0
860,0.35901986821423887,0.0
861,3.6492229999244628,0.0
862,6.8917059674338965,0.0
863,-0.46286091680548946,0.0
864,-1.8476237277163658,0.0
865,1.5890987696682923,0.0
866,-0.7385752817781788,0.0
867,0.23779818707743905,0.0
868,0.038214542765539566,0.0
869,-0.009077678414216729,0.0
870,0.0008519507794634978,0.0
871,0.06685137558689859,0.0
872,0.09286983516902389,0.0
873,-0.007202173404902253,0.0
874,0.025446404601402718,0.0
875,0.0025449140695351265,0.0
876,0.027009739205624956,0.0
877,0.02348162672867791,0.0
878,0.0018258405961746691,0.0
879,0.021938455837963673,0.0
880,0.2928953601794985,0.0
881,3.683920246817348,0.0
882,6.860786592150181,0.0
883,-0.4879042706774553,0.0
884,-1.8884897765214537,0.0
885,1.4402231716026646,0.0
886,-0.8014418336411882,0.0
887,0.2226721876399549,0.0
888,0.05562886206873776,0.0
889,-0.06480349677537355,0.0
890,-0.09673730152819889,0.0
891,-0.021635464783651845,0.0
892,-0.004741293923776938,0.0
893,0.03550064176554106,0.0
894,0.018868564334200727,0.0
895,0.035093118922021424,0.0
896,0.013752168390072966,0.0
897,-0.055282931894679525,0.0
898,0.05500186601881617,0.0
899,-0.02927293817166035,0.0
900,0.2358149414471486,0.0
901,3.660667358428717,0.0
902,6.83612235362962,0.0
903,-0.5878305285891061,0.0
904,-1.821290107645468,0.0
905,1.5355950205172832,0.0
906,-0.7615536867488628,0.0
907,0.05634316147632522,0.0
908,0.01721904960088521,0.0
909,-0.1444938723624865,0.0
910,-0.0011638827796182107,0.0
911,0.07302440538293467,0.0
912,-0.06815448622501942,0.0
913,0.025742047632566732,0.0
914,0.010632829475698718,0.0
915,-0.043510282463619585,0.0
916,0.01614074113563354,0.0
917,-0.022291670769274755,0.0
918,0.03436743307012399,0.0
919,-0.03808474526259213,0.0
920,0.3173341764052497,0.0
921,3.577739682351486,0.0
922,6.841595909089657,0.0
923,-0.5588908027185164,0.0
924,-1.8319417512089253,0.0
925,1.4757024377619663,0.0
926,-0.7317533518983657,0.0
927,0.11892953555746588,0.0
928,0.024403352012111967,0.0
929,-0.11747983269159273,0.0
930,0.009711970254002458,0.0
931,-0.010086130038907869,0.0
932,-0.1813595611290631,0.0
933,-0.006231381114342752,0.0
934,-0.037772278816239166,0.0
935,-0.10156180586088001,0.0
936,-0.16976265688466471,0.0
937,-0.03823484154262766,0.0
938,0.01282269237116617,0.0
939,0.0601545308854517,0.0
940,0.2957291319862221,0.0
941,3.551741650189111,0.0
942,6.766038661998546,0.0
943,-0.5047995023930297,0.0
944,-1.7906978105762827,0.0
945,1.5364522440999997,0.0
946,-0.7523932102766699,0.0
947,0.07772860924729105,0.0
948,-0.06577810528071837,0.0
949,-0.12796912085404702,0.0
950,0.07966292649490264,0.0
951,-0.03655117116237678,0.0
952,-0.047011334232775204,0.0
953,0.02075291509950828,0.0
954,-0.01333409494217776,0.0
955,0.00013282711935610342,0.0
956,0.05180698457465003,0.0
957,-0.02070848676020578,0.0
958,0.010930694993513894,0.0
959,-0.06194791870160514,0.0
960,0.28941216828165744,0.0
961,3.714597406199602,0.0
962,6.862732978131841,0.0
963,-0.494203807280703,0.0
964,-1.7938029714143726,0.0
965,1.5421536574218548,0.0
966,-0.7333659205465759,0.0
967,0.19217130363352017,0.0
968,0.018483924981847526,0.0
969,-0.00490271056282298,0.0
970,0.0798650958991122,0.0
971,-0.09932283303425414,0.0
972,0.060259480043145276,0.0
973,0.06377033637702935,0.0
974,0.020634457468216884,0.0
975,-0.05362836215101839,0.0
976,-0.05018448281883146,0.0
977,-0.019035286784525537,0.0
978,0.024552597764171055,0.0
979,0.029958599023937084,0.0
980,0.21969296724208515,0.0
981,3.5990873877070455,0.0
982,6.822666017877021,0.0
983,-0.5749493105452945,0.0
984,-1.7539100060963146,0.0
985,1.4870501881143126,0.0
986,-0.6979947816342501,0.0
987,0.12630366550665942,0.0
988,0.1494905314732524,0.0
989,-0.07004555125876143,0.0
990,0.03575383443953184,0.0
991,0.03193476271152099,0.0
992,0.10913863712861466,0.0
993,-0.011183559612364823,0.0
994,-0.010662701629951914,0.0
995,0.005391824031898801,0.0
996,-0.06319474278503322,0.0
997,0.05242398829604405,0.0
998,0.006779514455263071,0.0
999,-0.0010484623663148882,0.0
1000,0.2811370656610926,0.0
1001,3.7038902586585087,0.0
1002,6.754488347026368,0.0
1003,-0.4775689510646316,0.0
1004,-1.8028475128855483,0.0
1005,1.5445796671285814,0.0
1006,-0.8004619984266625,0.0
1007,0.06300204852177546,0.0
1008,0.028120005505587603,0.0
1009,-0.13978501405033966,0.0
1010,0.0012618426698126767,0.0
1011,-0.05756325745256456,0.0
1012,-0.04399334448606623,0.0
1013,-0.023490595577576812,0.0
1014,-0.003003504314969742,0.0
1015,0.016701642966548715,0.0
1016,-0.08694506573467711,0.0
1017,0.012785457443985383,0.0
1018,0.027068867835551555,0.0
1019,0.009477611997388072,0.0
1020,0.3820195106336577,0.0
1021,3.70555325452533,0.0
1022,6.860796464334445,0.0
1023,-0.44823410794150603,0.0
1024,-1.7089535086741416,0.0
1025,1.5947518381352308,0.0
1026,-0.7450806076829032,0.0
1027,0.09177498881483132,0.0
1028,0.0379726273670148,0.0
1029,-0.054118482130715816,0.0
1030,0.08616759366281554,0.0
1031,-0.000867738315817209,0.0
1032,0.008826625074284026,0.0
1033,-0.0030464861198076475,0.0
1034,0.08359314618166368,0.0
1035,-0.04554148399250985,0.0
1036,-0.029549615269488114,0.0
1037,0.04961062535745363,0.0
1038,0.05574622239116465,0.0
1039,0.022513117801255443,0.0
1040,0.297459732940662,0.0
1041,3.79093159676711,0.0
1042,6.856763634492402,0.0
1043,-0.47394675156414745,0.0
1044,-1.6780803679159948,0.0
1045,1.5829707604786882,0.0
1046,-0.5896298827250723,0.0
1047,0.23113861771119032,0.0
1048,0.10600479433116308,0.0
1049,0.04003073091011318,0.0
1050,0.019877397751354962,0.0
1051,0.06863670679590433,0.0
1052,0.10185239000930998,0.0
1053,0.047302652848287954,0.0
1054,0.0961676572126195,0.0
1055,0.13543112282657627,0.0
1056,0.06602192849778897,0.0
1057,0.10196134436482673,0.0
1058,0.07953380736976845,0.0
1059,0.062697283579045,0.0
1060,0.33148161747108174,0.0
1061,3.6930232264662437,0.0
1062,6.83293243132949,0.0
1063,-0.5397815393715433,0.0
1064,-1.8025621769069806,0.0
1065,1.5989866846678011,0.0
1066,-0.6526217333425965,0.0
1067,0.20001368240334316,0.0
1068,0.08718152667811842,0.0
1069,-0.018707516104519133,0.0
1070,0.057656559799229824,0.0
1071,-0.04465406321500317,0.0
1072,0.09048441024988411,0.0
1073,0.026310463032127366,0.0
1074,-0.02631304008987509,0.0
1075,0.08698037288855565,0.0
1076,0.027277743536850613,0.0
1077,0.07331757051467941,0.0
1078,0.05369047257861569,0.0
1079,-0.0040676290809618515,0.0
1080,0.38000067088489237,0.0
1081,3.805031347938758,0.0
1082,6.854825123591187,0.0
1083,-0.5360036997858354,0.0
1084,-1.6820468287073411,0.0
1085,1.5358534466123863,0.0
1086,-0.6837957728493413,0.0
1087,0.2555888313023337,0.0
1088,0.010562128833010297,0.0
1089,-0.09640480061768142,0.0
1090,0.008015639340677365,0.0
1091,0.10095202985119701,0.0
1092,-0.012204049840649753,0.0
1093,0.04508487075086064,0.0
1094,-0.013775046775437033,0.0
1095,8.413536719022521e-05,0.0
1096,-0.05030516898052416,0.0
1097,0.041795048814874364,0.0
1098,0.034250326622371596,0.0
1099,-0.015944297719428853,0.0
1100,0.2817366506932829,0.0
1101,3.8043088801700167,0.0
1102,6.804214610403364,0.0
1103,-0.5990746367470561,0.0
1104,-1.8345525750565561,0.0
1105,1.506411944600817,0.0
1106,-0.7130137570195038,0.0
1107,0.14951716044376073,0.0
1108,0.07173021491370653,0.0
1109,-0.04506567531255057,0.0
1110,0.04253216953115108,0.0
1111,-0.05221389697214905,0.0
1112,-0.02270034422112161,0.0
1113,-0.030080008202570098,0.0
1114,-0.009874970434882727,0.0
1115,-0.0667122052987181,0.0
1116,0.03168792453189331,0.0
1117,-0.01128291651279761,0.0
1118,0.06822338313924799,0.0
1119,-0.06653906163136325,0.0
1120,0.32327884372779436,0.0
1121,3.665906045001702,0.0
1122,6.854645437807786,0.0
1123,-0.5398560070073383,0.0
1124,-1.75861770989284,0.0
1125,1.5136418710379855,0.0
1126,-0.722657127400036,0.0
1127,0.15853341483742817,0.0
1128,0.06645168814090184,0.0
1129,-0.019426260970686025,0.0
1130,-0.02633366982072307,0.0
1131,-0.0333911067081792,0.0
1132,-0.03097619879197924,0.0
1133,-0.0030020885804758583,0.0
1134,-0.08339176703016891,0.0
1135,-0.011655432718045006,0.0
1136,-0.07811963987886168,0.0
1137,-0.02058254719228558,0.0
1138,-0.001236875950281921,0.0
1139,0.03672567580753215,0.0
1140,0.3524049625167828,0.0
1141,3.6601398357411656,0.0
1142,6.682612633994843,0.0
1143,-0.6669396691159005,0.0
1144,-1.7051576118339449,0.0
1145,1.4139384583093593,0.0
1146,-0.7460641578131538,0.0
1147,0.12311412616294315,0.0
1148,-0.017274684252974397,0.0
1149,-0.06332238972338336,0.0
1150,-0.12164415091733614,0.0
1151,-0.05306544532905813,0.0
1152,-0.0526768014199447,0.0
1153,-0.116412100833371,0.0
1154,-0.10890248589098417,0.0
1155,-0.10027366225627839,0.0
1156,0.021482478669740068,0.0
1157,-0.05203503409674032,0.0
1158,-0.11481763945041898,0.0
1159,-0.0399764968376214,0.0
1160,0.2383559091017921,0.0
1161,3.762679333119035,0.0
1162,6.704908081469951,0.0
1163,-0.738890591966436,0.0
1164,-1.7952398503777627,0.0
1165,1.55657427594346,0.0
1166,-0.7516335410808445,0.0
1167,0.09309776726441513,0.0
1168,-0.018563365246079294,0.0
1169,-0.14173103003497212,0.0
1170,-0.03776930377849562,0.0
1171,-0.022128944443677613,0.0
1172,-0.07149373349547632,0.0
1173,-0.1170688493911867,0.0
1174,-0.07487183393540567,0.0
1175,-0.11538714087605095,0.0
1176,-0.1984243879543147,0.0
1177,-0.16530219401087548,0.0
1178,-0.14972509910575496,0.0
1179,-0.1590765989718661,0.0
1180,0.20353955154734404,0.0
1181,3.5490720781461316,0.0
1182,6.659870571627146,0.0
1183,-0.7084215538780946,0.0
1184,-1.9873643721474052,0.0
1185,1.2916828959802034,0.0
1186,-0.8868646207537888,0.0
1187,-0.029441339805841425,0.0
1188,-0.1414511004689466,0.0
1189,-0.1132265777685362,0.0
1190,0.008998625065391286,0.0
1191,-0.04719995071468697,0.0
1192,-0.16910194792361866,0.0
1193,-0.09322432140465126,0.0
1194,-0.06516405901998706,0.0
1195,-0.06207157374067131,0.0
1196,0.015262401531916388,0.0
1197,-0.12450609892773648,0.0
1198,-0.0410386826994978,0.0
1199,-0.04908067344545589,0.0
1200,0.17498116858094503,0.0
1201,3.6062448555876276,0.0
1202,6.805712917937326,0.0
1203,-0.6401695871534442,0.0
1204,-1.8010855342310736,0.0
1205,1.4929842526957433,0.0
1206,-0.7383866983408585,0.0
1207,0.06711487285449264,0.0
1208,-0.07959103955854983,0.0
1209,-0.07713224155582003,0.0
1210,-0.06046816185402086,0.0
1211,-0.11138896941680856,0.0
1212,-0.026449149006216317,0.0
1213,0.011112478410316678,0.0
1214,-0.035662040012966856,0.0
1215,0.06546637219657274,0.0
1216,-0.011597016028956773,0.0
1217,-0.01605570206740667,0.0
1218,0.043148469822353513,0.0
1219,0.01827707865334297,0.0
1220,0.35650251857660953,0.0
1221,3.7258183370585507,0.0
1222,6.7562770423512,0.0
1223,-0.6578084864488055,0.0
1224,-1.7842222911805066,0.0
1225,1.5591714477511305,0.0
1226,-0.7746512721546371,0.0
1227,0.18456716988155164,0.0
1228,-0.036425043766163276,0.0
1229,-0.07641572568533125,0.0
1230,-0.06640973566930494,0.0
1231,-0.09716691449640133,0.0
1232,-0.11131018936272946,0.0
1233,-0.006929484430849328,0.0
1234,-0.0864258057524908,0.0
1235,0.004161725301231274,0.0
1236,0.014159269968049885,0.0
1237,-0.07375715658377573,0.0
1238,-0.02345633203868263,0.0
1239,-0.03957554362925344,0.0
1240,0.24584069779138795,0.0
1241,3.7369627355233708,0.0
1242,6.784463047230286,0.0
1243,-0.6570733264238505,0.0
1244,-1.7687231336854548,0.0
1245,1.4513254494548298,0.0
1246,-0.7565141201992339,0.0
1247,0.04785105898116944,0.0
1248,-0.018968026433009023,0.0
1249,-0.08747387271532593,0.0
1250,-0.06054403827875958,0.0
1251,-0.03933182905158267,0.0
1252,-0.1520235864530946,0.0
1253,-0.0957900283779779,0.0
1254,-0.05202960505033728,0.0
1255,0.018732139558810472,0.0
1256,-0.0801681251641265,0.0
1257,-0.12442832742879764,0.0
1258,0.018223409765796495,0.0
1259,-0.02344973392442064,0.0
1260,0.3028382397015405,0.0
1261,3.7364274706772878,0.0
1262,6.85652672317929,0.0
1263,-0.5807940833868434,0.0
1264,-1.6883213540745743,0.0
1265,1.5423677558577025,0.0
1266,-0.767218567139135,0.0
1267,0.17043138182807907,0.0
1268,0.030343293934299787,0.0
1269,-0.007759393559357529,0.0
1270,0.13025396412757673,0.0
1271,-0.0626358914769641,0.0
1272,0.009414917131109625,0.0
1273,-0.030229042214847752,0.0
1274,-0.01071952646843554,0.0
1275,-0.0555165147519584,0.0
1276,-0.03499930624142932,0.0
1277,-0.003622170281446381,0.0
1278,-0.040767001305495806,0.0
1279,0.03952373475383651,0.0
1280,0.3063100388651825,0.0
1281,3.7434588577434496,0.0
1282,6.73857164443491,0.0
1283,-0.6398255143023992,0.0
1284,-1.7130792345872219,0.0
1285,1.410237070513277,0.0
1286,-0.8142674598790635,0.0
1287,0.12777535589911096,0.0
1288,-0.022622149841496422,0.0
1289,-0.1506940154473539,0.0
1290,0.04664713347485874,0.0
1291,0.0392005303065214,0.0
1292,0.06355344714217914,0.0
1293,0.0036969092809820093,0.0
1294,0.027591100967500417,0.0
1295,0.07077724184468925,0.0
1296,0.05166831058907026,0.0
1297,0.018933987942109144,0.0
1298,0.012392030034961886,0.0
1299,-0.0455371507969689,0.0
1300,0.31717477547094514,0.0
1301,3.674350272948692,0.0
1302,6.843450399724539,0.0
1303,-0.5697403945769902,0.0
1304,-1.739930954123042,0.0
1305,1.6218159272780615,0.0
1306,-0.7071539015459932,0.0
1307,0.17755313872693812,0.0
1308,0.16773755804771806,0.0
1309,-0.050839285862616115,0.0
1310,0.07058954157632154,0.0
1311,-0.08011848021744519,0.0
1312,0.039038909172146405,0.0
1313,-0.1070955214498021,0.0
1314,-0.06982618251048513,0.0
1315,-0.006187114844170595,0.0
1316,-0.10596576355769538,0.0
1317,-0.07353153405947913,0.0
1318,-0.017653972512083053,0.0
1319,0.002511017959326921,0.0
1320,0.2032472534735305,0.0
1321,3.639943856128364,0.0
1322,6.780410700764109,0.0
1323,-0.6947815839613403,0.0
1324,-1.7668058718551456,0.0
1325,1.4877358136762207,0.0
1326,-0.8392165796822868,0.0
1327,0.0620285556435729,0.0
1328,-0.040407070259387654,0.0
1329,-0.08523362457331737,0.0
1330,0.018792035397327315,0.0
1331,-0.06717393097645338,0.0
1332,0.03855674768381179,0.0
1333,0.0612970903947028,0.0
1334,0.04654846402308833,0.0
1335,-0.017613099381902093,0.0
1336,0.066916287912018,0.0
1337,-0.10372949063082433,0.0
1338,0.10707823797412201,0.0
1339,0.07903857366999861,0.0
1340,0.4162132309497458,0.0
1341,3.8960291117390216,0.0
1342,6.852242195216119,0.0
1343,-0.5847463715676741,0.0
1344,-1.6596112208446108,0.0
1345,1.5488768998647011,0.0
1346,-0.6597390354299476,0.0
1347,0.21853613216477985,0.0
1348,-0.001548218217305039,0.0
1349,0.038920452624445975,0.0
1350,-0.04514595666427686,0.0
1351,0.0889240396465513,0.0
1352,0.07131620849600769,0.0
1353,0.08251230538166206,0.0
1354,0.050181937387377376,0.0
1355,-0.0015643081868106333,0.0
1356,0.03382797925686003,0.0
1357,0.020273336666275364,0.0
1358,-0.04403971887528575,0.0
1359,0.027319445802343783,0.0
1360,0.28788102329097776,0.0
1361,3.8025377834592815,0.0
1362,6.82045265332689,0.0
1363,-0.6829958854492584,0.0
1364,-1.6015131394625526,0.0
1365,1.5474734187318009,0.0
1366,-0.7116410247061504,0.0
1367,0.08125096874772514,0.0
1368,0.0740141665224805,0.0
1369,-0.05872535909016771,0.0
1370,0.026006724290813965,0.0
1371,0.030175719953922625,0.0
1372,0.006044518674016532,0.0
1373,-0.04083598824609491,0.0
1374,0.05758199758302521,0.0
1375,-0.07157956479187685,0.0
1376,0.0805664840544753,0.0
1377,0.11233256285620064,0.0
1378,0.053318794587567234,0.0
1379,0.0771967901475403,0.0
1380,0.41118727329770594,0.0
1381,3.7888516330365327,0.0
1382,6.8167743111853385,0.0
1383,-0.5683750451054732,0.0
1384,-1.65487431185187,0.0
1385,1.5649405818063942,0.0
1386,-0.7835330938086869,0.0
1387,0.17784942890313593,0.0
1388,0.03016421391823302,0.0
1389,0.023605288016391716,0.0
1390,-0.05153099780858776,0.0
1391,0.03681992252995587,0.0
1392,-0.012537560888795532,0.0
1393,0.06104295064976813,0.0
1394,0.061609020542301524,0.0
1395,-0.04997599263811757,0.0
1396,0.08593739970746826,0.0
1397,0.04814573356821547,0.0
1398,0.11228638455615156,0.0
1399,-0.021845463212872264,0.0
1400,0.3871599043344129,0.0
1401,3.7894972773685422,0.0
1402,6.722532624456625,0.0
1403,-0.7044966270454144,0.0
1404,-1.8406102848363743,0.0
1405,1.3418902401862005,0.0
1406,-0.894482665961435,0.0
1407,0.0896278644673507,0.0
1408,-0.14828666358268577,0.0
1409,-0.22030505661051758,0.0
1410,-0.14019395461399187,0.0
1411,-0.13460607690312706,0.0
1412,-0.173773900818503,0.0
1413,-0.05145228949845722,0.0
1414,-0.11363511233831006,0.0
1415,-0.1047320783841643,0.0
1416,-0.017284548560512453,0.0
1417,-0.11678169032574479,0.0
1418,0.018987340185663573,0.0
1419,0.006000809051410386,0.0
1420,0.32383954701449086,0.0
1421,3.839409865972899,0.0
1422,6.820292792197147,0.0
1423,-0.6071066071375976,0.0
1424,-1.7093045056599434,0.0
1425,1.5325997150468385,0.0
1426,-0.6813965059839859,0.0
1427,0.24776105463496592,0.0
1428,0.06234617880008353,0.0
1429,-0.03530648200492629,0.0
1430,0.01204180571507485,0.0
1431,-0.012282817796285986,0.0
1432,-0.08369167752101675,0.0
1433,0.011801928229779792,0.0
1434,-0.06502116949215522,0.0
1435,0.1326731687761744,0.0
1436,-0.10425106378682639,0.0
1437,-0.06820373813753891,0.0
1438,-0.07652476944698433,0.0
1439,-0.10588905572703608,0.0
1440,0.27929042098982215,0.0
1441,3.7800269622570957,0.0
1442,6.788036157752504,0.0
1443,-0.7092046777973192,0.0
1444,-1.6943123583235247,0.0
1445,1.430083501174034,0.0
1446,-0.8074209917290273,0.0
1447,0.16835100234016417,0.0
1448,0.010686428121104673,0.0
1449,-0.10428336655372498,0.0
1450,0.05322460963820186,0.0
1451,-0.040098005372144425,0.0
1452,-0.01712506443137251,0.0
1453,-0.042374082687544154,0.0
1454,-0.014122776342458444,0.0
1455,-0.09266604117198488,0.0
1456,-0.004397929770097085,0.0
1457,0.00581414629353285,0.0
1458,-0.024737069629229655,0.0
1459,-0.0817454442967696,0.0
1460,0.2507280696838558,0.0
1461,3.728687344993026,0.0
1462,6.820424200517566,0.0
1463,-0.6903813394822119,0.0
1464,-1.6418126786579406,0.0
1465,1.4653951095703583,0.0
1466,-0.6945408656070599,0.0
1467,0.0807637729912157,0.0
1468,0.04895254601980092,0.0
1469,-0.044275012317081246,0.0
1470,-0.046776498933474436,0.0
1471,-0.030823254358648113,0.0
1472,0.10438145786000691,0.0
1473,0.007402328284957495,0.0
1474,-0.01917652999727048,0.0
1475,0.007957476067222989,0.0
1476,0.01806381908430743,0.0
1477,-0.1048342787910563,0.0
1478,0.008567706001843159,0.0
1479,-0.10564230455515769,0.0
1480,0.2674957328840197,0.0
1481,3.688314977499077,0.0
1482,6.744840051462081,0.0
1483,-0.7468203568693068,0.0
1484,-1.7498087687476074,0.0
1485,1.3986711746357132,0.0
1486,-0.7216907469409796,0.0
1487,0.10015151575433506,0.0
1488,-0.07125778477242153,0.0
1489,-0.09990148751791324,0.0
1490,-0.043907232307100454,0.0
1491,-0.10225748466885776,0.0
1492,-0.11909014020568787,0.0
1493,-0.0710224254714902,0.0
1494,-0.07802918962019025,0.0
1495,-0.1377818842711529,0.0
1496,-0.008122457729925567,0.0
1497,-0.018002754727650016,0.0
1498,-0.010623364484636253,0.0
1499,0.07481869942911618,0.0
1500,0.28315662124378643,0.0
1501,3.7014474046256702,0.0
1502,6.721861325435726,0.0
1503,-0.6669904440936403,0.0
1504,-1.766476391057417,0.0
1505,1.5021124523185487,0.0
1506,-0.7211747338817174,0.0
1507,0.1500219721864573,0.0
1508,-0.034172953838876814,0.0
1509,-0.14219547181336517,0.0
1510,0.003041002052604297,0.0
1511,-0.024042774047663203,0.0
1512,-0.034122212694590204,0.0
1513,-0.13969357219706902,0.0
1514,-0.04761896628298981,0.0
1515,-0.018903225538207384,0.0
1516,0.025521721328681714,0.0
1517,-0.07290753771220883,0.0
1518,0.02522733283416849,0.0
1519,0.025060501776411517,0.0
1520,0.2799719467069749,0.0
1521,3.7747993971001303,0.0
1522,6.889042362866172,0.0
1523,-0.7396362441387525,0.0
1524,-1.6517734027997666,0.0
1525,1.532980211212428,0.0
1526,-0.7177144340907019,0.0
1527,0.15552913722236314,0.0
1528,0.056117257433181356,0.0
1529,-0.09670655818770264,0.0
1530,0.007948190522208519,0.0
1531,-0.07113713051242693,0.0
1532,0.026049138854991445,0.0
1533,-0.02601583778406784,0.0
1534,-0.03532303191474437,0.0
1535,-0.02398878128767569,0.0
1536,-0.03234062366317701,0.0
1537,0.027343513472484884,0.0
1538,-0.12514244674151415,0.0
1539,-0.10999960329725325,0.0
1540,0.37364475690905485,0.0
1541,3.7203525455111164,0.0
1542,6.783473416074221,0.0
1543,-0.7184359796497868,0.0
1544,-1.7500506125686388,0.0
1545,1.387158594416427,0.0
1546,-0.7853026034888837,0.0
1547,0.14783819331626888,0.0
1548,0.061538011721627296,0.0
1549,-0.0016078560150305926,0.0
1550,-0.02213336168450443,0.0
1551,-0.10294638808757847,0.0
1552,0.058822321332986136,0.0
1553,-0.044565558129535845,0.0
1554,-0.08545563427165699,0.0
1555,0.026294961039899718,0.0
1556,-0.03098878826652967,0.0
1557,-0.11236329438816954,0.0
1558,-0.03325919640337538,0.0
1559,-0.03013047357187887,0.0
1560,0.2801883683773218,0.0
1561,3.666621328382397,0.0
1562,6.760817348393103,0.0
1563,-0.6999154193618508,0.0
1564,-1.7994511965450763,0.0
1565,1.446167142652207,0.0
1566,-0.84563328919855,0.0
1567,0.12274723941829231,0.0
1568,-0.06812620074699352,0.0
1569,-0.08540396188754752,0.0
1570,-0.06543209301070091,0.0
1571,0.04438281414723008,0.0
1572,-0.007368410023435974,0.0
1573,-0.04739699071621627,0.0
1574,-0.13339362001918761,0.0
1575,-0.07467212917142621,0.0
1576,-0.03604368336469467,0.0
1577,-0.11659993454251996,0.0
1578,-0.06829468622282067,0.0
1579,-0.07908965249566056,0.0
1580,0.17575170071421087,0.0
1581,3.705749028368606,0.0
1582,6.603358534416275,0.0
1583,-0.7619921230306748,0.0
1584,-1.7654530778942696,0.0
1585,1.3757833531013954,0.0
1586,-0.726234166048425,0.0
1587,0.1577109628534247,0.0
1588,-0.08944798629458155,0.0
1589,0.035205665694050536,0.0
1590,-0.04795784791906953,0.0
1591,-0.03923231890970466,0.0
1592,-0.010396817372659871,0.0
1593,-0.038602611518745215,0.0
1594,-0.04094503096248575,0.0
1595,-0.015521709222625649,0.0
1596,-0.023828782384330092,0.0
1597,-0.08246555810184128,0.0
1598,-0.08361687818493843,0.0
1599,-0.06915867601638848,0.0
1600,0.2251152809212185,0.0
1601,3.713101646544216,0.0
1602,6.679482859465493,0.0
1603,-0.7578164702718564,0.0
1604,-1.7811685780457893,0.0
1605,1.4887515749081213,0.0
1606,-0.8921655717731087,0.0
1607,0.17097611830642595,0.0
1608,-0.03346876151614953,0.0
1609,-0.07105216300034232,0.0
1610,-0.019438968053185558,0.0
1611,-0.06308500501980716,0.0
1612,-0.03485092621603311,0.0
1613,-0.08283722640226947,0.0
1614,-0.011557072857088131,0.0
1615,0.004532744748133741,0.0
1616,-0.11591271919474894,0.0
1617,-0.0484233563320584,0.0
1618,-0.018043239105863133,0.0
1619,0.010773084389676953,0.0
1620,0.25352492889193556,0.0
1621,3.8061943252750923,0.0
1622,6.637376777158355,0.0
1623,-0.7517130598409558,0.0
1624,-1.8021073792222482,0.0
1625,1.5012726659375262,0.0
1626,-0.778706805827536,0.0
1627,0.09349059398821669,0.0
1628,0.02733224267842098,0.0
1629,-0.23077329491721527,0.0
1630,0.09566657225368169,0.0
1631,-0.12305326428641766,0.0
1632,-0.012974033743941862,0.0
1633,-0.04354328269234237,0.0
1634,-0.08213773337092058,0.0
1635,-0.16537844534672513,0.0
1636,-0.03426810874328941,0.0
1637,-0.198840387801763,0.0
1638,-0.12108362149496807,0.0
1639,-0.023721620887923234,0.0
1640,0.2606577909509886,0.0
1641,3.6629157510101864,0.0
1642,6.72916512561942,0.0
1643,-0.8137483779650574,0.0
1644,-1.8450962343311328,0.0
1645,1.456964742199658,0.0
1646,-0.8875454658843563,0.0
1647,0.03907354530964631,0.0
1648,-0.14879824854973195,0.0
1649,-0.22725188354568776,0.0
1650,-0.1695640179930121,0.0
1651,-0.09956867432824713,0.0
1652,-0.0913472979143587,0.0
1653,-0.07201439715817269,0.0
1654,-0.05756386705977726,0.0
1655,-0.09157773982835819,0.0
1656,-0.039754961127738186,0.0
1657,-0.05075408901254641,0.0
1658,-0.1276099888092479,0.0
1659,-0.10279599432982685,0.0
1660,0.3515771249652776,0.0
1661,3.6995049125854806,0.0
1662,6.743658875470216,0.0
1663,-0.6683589913367235,0.0
1664,-1.6921409842813406,0.0
1665,1.4289309139968607,0.0
1666,-0.7717509548558171,0.0
1667,0.07583245403169278,0.0
1668,0.0013275146063942908,0.0
1669,-0.10115999157486402,0.0
1670,-0.07758131792661994,0.0
1671,-0.10744701548126315,0.0
1672,-0.042012145816354596,0.0
1673,-0.010572180145083092,0.0
1674,-0.14970592436011815,0.0
1675,-0.044237030915163664,0.0
1676,0.0562573550907895,0.0
1677,-0.007265558006217969,0.0
1678,-0.07778664388073384,0.0
1679,-0.05454015900441428,0.0
1680,0.31238838728546364,0.0
1681,3.787058877866699,0.0
1682,6.655093879934987,0.0
1683,-0.7743189855253163,0.0
1684,-1.7230654426048964,0.0
1685,1.398216048749204,0.0
1686,-0.8266829642903126,0.0
1687,0.08765667725821172,0.0
1688,-0.12017486200583036,0.0
1689,-0.07744770343150527,0.0
1690,-0.10209487128629036,0.0
1691,-0.08739709725476685,0.0
1692,-0.12434225170976448,0.0
1693,-0.1128618784613345,0.0
1694,-0.08075280312607483,0.0
1695,-0.03391186888347631,0.0
1696,-0.03248684737534872,0.0
1697,-0.062351145320495946,0.0
1698,-0.17205633384966157,0.0
1699,-0.06605766194893925,0.0
1700,0.28128938826461325,0.0
1701,3.682609896142201,0.0
1702,6.729091932977158,0.0
1703,-0.7722510781323608,0.0
1704,-1.8093862320778547,0.0
1705,1.4604641631830135,0.0
1706,-0.7865597046523851,0.0
1707,0.09815880558234114,0.0
1708,-0.08420032931882974,0.0
1709,-0.04204016515304946,0.0
1710,-0.07767661418937544,0.0
1711,-0.021235449751013713,0.0
1712,0.046517002291621645,0.0
1713,-0.04772009176925117,0.0
1714,-0.06656751114369991,0.0
1715,-0.029906257559747705,0.0
1716,-0.003904581641726367,0.0
1717,-0.08455761312017691,0.0
1718,-0.056938048612237196,0.0
1719,-0.007300743088122046,0.0
1720,0.3177929968764128,0.0
1721,3.7610867091155753,0.0
1722,6.785708413929669,0.0
1723,-0.7020690589655498,0.0
1724,-1.729450188541988,0.0
1725,1.4944281020297367,0.0
1726,-0.7956636891495326,0.0
1727,0.1587696115323049,0.0
1728,-0.07457641216555816,0.0
1729,0.0030636024632714337,0.0
1730,0.04668879560585662,0.0
1731,-0.006823899270977912,0.0
1732,-0.006305833685979187,0.0
1733,-0.03154942068031309,0.0
1734,0.014553679088256465,0.0
1735,-0.07476911921108902,0.0
1736,-0.11108916181296664,0.0
1737,0.004367103954658197,0.0
1738,0.012749720130626738,0.0
1739,-0.004121106174113681,0.0
1740,0.2528106625760016,0.0
1741,3.7321187433598206,0.0
1742,6.7263621167022665,0.0
1743,-0.7969524099228048,0.0
1744,-1.7343793849602422,0.0
1745,1.3971262979605192,0.0
1746,-0.8055333823670122,0.0
1747,0.202896830527923,0.0
1748,-0.05219847192376646,0.0
1749,-0.053715683267239044,0.0
1750,-0.03629859539067909,0.0
1751,-0.08544218024407219,0.0
1752,0.02613330391967042,0.0
1753,-0.013113847795305073,0.0
1754,-0.017177800291954072,0.0
1755,-0.0051909767305770935,0.0
1756,-0.010929272428281,0.0
1757,-0.028988959180040512,0.0
1758,-0.055373744413214174,0.0
1759,-0.11153018160735628,0.0
1760,0.2568743611927717,0.0
1761,3.7378781168161996,0.0
1762,6.792524500395375,0.0
1763,-0.8364076459191552,0.0
1764,-1.6529296734505121,0.0
1765,1.4786471168846473,0.0
1766,-0.7647289973110049,0.0
1767,0.18930615622178132,0.0
1768,-0.025878692467162547,0.0
1769,-0.12191391065346008,0.0
1770,0.027931887045725766,0.0
1771,-0.026151754242791286,0.0
1772,0.08890207666416644,0.0
1773,-0.06720629580019101,0.0
1774,0.020139322218150874,0.0
1775,-0.07565398166419166,0.0
1776,-0.03811427142686025,0.0
1777,0.0675364847920607,0.0
1778,-0.036537080242475886,0.0
1779,-0.032447189653226634,0.0
1780,0.26352886899509764,0.0
1781,3.8234492127271436,0.0
1782,6.764377575730292,0.0
1783,-0.7866624089164812,0.0
1784,-1.6505476945171822,0.0
1785,1.4498516423585686,0.0
1786,-0.6945946493948869,0.0
1787,0.1584299696582976,0.0
1788,0.06443687699036132,0.0
1789,-0.028069307500654825,0.0
1790,0.04415366901541373,0.0
1791,-0.0013667040513724062,0.0
1792,-0.04845775329126359,0.0
1793,-0.12017872223493528,0.0
1794,-0.03886074382255186,0.0
1795,0.015379232355539146,0.0
1796,-0.18778717022046543,0.0
1797,-0.1293637354186779,0.0
1798,-0.1625964541984849,0.0
1799,-0.21310058595971065,0.0
1800,0.22014598196822774,0.0
1801,3.6995641666514603,0.0
1802,6.722058957236238,0.0
1803,-0.9072607973633214,0.0
1804,-1.7585153945881355,0.0
1805,1.4499467920756528,0.0
1806,-0.794670199257962,0.0
1807,0.17619023400484746,0.0
1808,0.01996201012866334,0.0
1809,-0.02848321530575405,0.0
1810,0.01506112875804936,0.0
1811,0.0417346752675896,0.0
1812,0.010113863794327133,0.0
1813,0.028482236075628158,0.0
1814,0.06595893387621145,0.0
1815,0.1533722644503118,0.0
1816,0.09557755043418556,0.0
1817,0.1140607548530511,0.0
1818,0.0391242724404771,0.0
1819,0.08198683249756186,0.0
1820,0.3802838242416398,0.0
1821,3.8365883161836094,0.0
1822,6.732836794472638,0.0
1823,-0.787144233746176,0.0
1824,-1.6414039092332875,0.0
1825,1.4240125422945926,0.0
1826,-0.8175857846864062,0.0
1827,0.1628496365200066,0.0
1828,-0.004884866289487122,0.0
1829,-0.05685713496098905,0.0
1830,-0.012797822609288106,0.0
1831,0.07580989153575406,0.0
1832,0.017730436311705955,0.0
1833,0.01967602798945994,0.0
1834,0.0051611411701574204,0.0
1835,0.02705983029844764,0.0
1836,0.11919844501173511,0.0
1837,-0.01956322215727397,0.0
1838,-0.01945681213717619,0.0
1839,-0.007429043735324804,0.0
1840,0.3275097823329388,0.0
1841,3.903876822782429,0.0
1842,6.650179126345103,0.0
1843,-0.7941177147646155,0.0
1844,-1.6823799166472657,0.0
1845,1.4712956240701465,0.0
1846,-0.8199741879510583,0.0
1847,0.2405065212886461,0.0
1848,0.15771014092019112,0.0
1849,-0.05447158482650108,0.0
1850,0.10953583506925266,0.0
1851,0.030349469854468798,0.0
1852,-0.08480518905932909,0.0
1853,-0.028015429620198047,0.0
1854,0.005529856620362577,0.0
1855,-0.0137541360133707,0.0
1856,-0.06150030331915343,0.0
1857,-0.036097429342316814,0.0
1858,0.13425967943993594,0.0
1859,0.09337724791385903,0.0
1860,0.426755203561513,0.0
1861,3.8496925650887235,0.0
1862,6.810309921082831,0.0
1863,-0.7199622067676428,0.0
1864,-1.6101017770327974,0.0
1865,1.5288199119076165,0.0
1866,-0.7371081523765443,0.0
1867,0.23700214370092806,0.0
1868,0.06102442007411517,0.0
1869,-0.003090278401112603,0.0
1870,0.10767328816693505,0.0
1871,0.04797637289602712,0.0
1872,0.002239153982433198,0.0
1873,0.09039720934445533,0.0
1874,0.07992327970291865,0.0
1875,0.07228086462662112,0.0
1876,-0.10710984386143389,0.0
1877,0.07795461369576176,0.0
1878,0.030277333810545214,0.0
1879,-0.02126314485095836,0.0
1880,0.4485758672264148,0.0
1881,3.9230777104928642,0.0
1882,6.794601100030196,0.0
1883,-0.8486701928398668,0.0
1884,-1.62196088422846,0.0
1885,1.5303479919170888,0.0
1886,-0.7530710911965792,0.0
1887,0.23535343167659512,0.0
1888,0.08759017012257495,0.0
1889,-0.0922140603841235,0.0
1890,0.07383060405286146,0.0
1891,0.006926618820460171,0.0
1892,-0.008554682165769732,0.0
1893,0.02793795724337148,0.0
1894,-0.06082208418821697,0.0
1895,0.034233711326250374,0.0
1896,-0.0861364062797298,0.0
1897,0.011996039432597985,0.0
1898,-0.009002458104920043,0.0
1899,-0.0489659900161675,0.0
1900,0.3416492847172439,0.0
1901,3.874858199714262,0.0
1902,6.630590757321296,0.0
1903,-0.8591519633507633,0.0
1904,-1.6302435990541588,0.0
1905,1.4275232386224466,0.0
1906,-0.7924836171693069,0.0
1907,0.2564806603107508,0.0
1908,-0.09714149542564127,0.0
1909,-0.01908253410002257,0.0
1910,0.055266997269862506,0.0
1911,0.030906199092086292,0.0
1912,0.16677111379266485,0.0
1913,0.0595439564992401,0.0
1914,0.1402062204021219,0.0
1915,-0.03742056118709325,0.0
1916,0.09827362417184753,0.0
1917,-0.1144850436665425,0.0
1918,-0.011482633317836825,0.0
1919,0.09986797714956108,0.0
1920,0.4310189206901919,0.0
1921,3.8343640472282345,0.0
1922,6.780774123016643,0.0
1923,-0.6684556933969341,0.0
1924,-1.627404525873448,0.0
1925,1.5465781314491738,0.0
1926,-0.8619057590135747,0.0
1927,0.28275474829728686,0.0
1928,0.2163727746212486,0.0
1929,0.11072955978823365,0.0
1930,-0.0008910839846448387,0.0
1931,0.061959700022421946,0.0
1932,-0.005369545420389333,0.0
1933,0.042246082653565456,0.0
1934,0.007694633334086716,0.0
1935,-0.0020502350545230884,0.0
1936,0.014796296250205404,0.0
1937,0.08057810294024756,0.0
1938,0.01155712550061401,0.0
1939,0.0867180676953556,0.0
1940,0.44701932202662603,0.0
1941,3.998757257723927,0.0
1942,6.817635374903104,0.0
1943,-0.6900895702329661,0.0
1944,-1.6080496593710984,0.0
1945,1.6020466486285196,0.0
1946,-0.7337846785708928,0.0
1947,0.188511781813577,0.0
1948,-0.03713520881480439,0.0
1949,-0.08083518883715272,0.0
1950,0.08676288133310144,0.0
1951,0.09077919703326294,0.0
1952,0.05315986926368058,0.0
1953,0.047287748436880696,0.0
1954,0.04404764517759404,0.0
1955,-0.122626575345277,0.0
1956,0.015531373905087381,0.0
1957,0.11052824825398959,0.0
1958,0.04580370065529681,0.0
1959,-0.03617389233841162,0.0
1960,0.3373289453244531,0.0
1961,3.931342909810259,0.0
1962,6.890460646011766,0.0
1963,-0.7455421048399251,0.0
1964,-1.6611362611248337,0.0
1965,1.520244549812278,0.0
1966,-0.7927400152941713,0.0
1967,0.13937897760227103,0.0
1968,0.08276101545302812,0.0
1969,0.0011407174987043793,0.0
1970,0.024281937014502,0.0
1971,0.084158830374742,0.0
1972,0.08988386562751144,0.0
1973,0.007118442055981673,0.0
1974,0.1087220149451949,0.0
1975,0.04529930915302917,0.0
1976,0.06183739800119803,0.0
1977,0.01985926284340539,0.0
1978,-0.006322681223707931,0.0
1979,-0.0033748027451198995,0.0
1980,0.4173738140901214,0.0
1981,3.878817142243888,0.0
1982,6.76887255603254,0.0
1983,-0.7654620782975359,0.0
1984,-1.5597347256926408,0.0
1985,1.5403262066262895,0.0
1986,-0.650008876794487,0.0
1987,0.1647444700610346,0.0
1988,0.13392773030196842,0.0
1989,-0.06394435906429449,0.0
1990,0.04034217112720593,0.0
1991,0.007596234756103477,0.0
1992,0.04517259723546321,0.0
1993,0.07988663728565165,0.0
1994,0.024130409716963057,0.0
1995,0.024082781680764852,0.0
1996,0.0015586743213620664,0.0
1997,0.04643052876520185,0.0
1998,0.036371781806118116,0.0
1999,-0.01638438047009954,0.0
2000,0.30177982607789366,0.0
2001,3.8035056018401634,0.0
2002,6.766233752477749,0.0
2003,-0.7245704555310667,0.0
2004,-1.6338244499593833,0.0
2005,1.5156504191427704,0.0
2006,-0.7267569181903867,0.0
2007,0.24966163749923106,0.0
2008,-0.05428581377269671,0.0
2009,-0.01337479724155817,0.0
2010,0.041700369743928295,0.0
2011,0.062404016805559376,0.0
2012,-0.037223749117819935,0.0
2013,0.09103136564165867,0.0
2014,0.05051815106168008,0.0
2015,0.028945029049417606,0.0
2016,0.10378771549974122,0.0
2017,-0.09201721590693696,0.0
2018,0.08820211253169288,0.0
2019,0.04981134646822017,0.0
2020,0.3944991661147344,0.0
2021,3.835797133508525,0.0
2022,6.768236593018902,0.0
2023,-0.8001190174746539,0.0
2024,-1.6587571948657283,0.0
2025,1.407894501354295,0.0
2026,-0.8441056462248472,0.0
2027,0.1817717351939279,0.0
2028,0.07346009476749106,0.0
2029,-0.09724617049803938,0.0
2030,0.056043538046391755,0.0
2031,0.033850629358383594,0.0
2032,0.030657515963260176,0.0
2033,0.04171177161566543,0.0
2034,0.04606260159459565,0.0
2035,-0.038512101129461504,0.0
2036,0.05586402435416202,0.0
2037,0.00506785786287714,0.0
2038,-0.09102342321814359,0.0
2039,-0.06178756446787382,0.0
2040,0.3307073094910857,0.0
2041,3.912712989628661,0.0
2042,6.746683063641997,0.0
2043,-0.8123282227397562,0.0
2044,-1.5268670405074776,0.0
2045,1.53756936933787,0.0
2046,-0.8145039192417189,0.0
2047,0.2732241231417893,0.0
2048,0.07449612176223579,0.0
2049,0.07659467395416227,0.0
2050,0.03937618129487492,0.0
2051,-0.033800019767453574,0.0
2052,0.11925694781203075,0.0
2053,0.03268526537756248,0.0
2054,0.02172725716665376,0.0
2055,0.022725498285035478,0.0
2056,0.07160900081338495,0.0
2057,0.03864217652325909,0.0
2058,0.07906031813756141,0.0
2059,0.01694950721130853,0.0
2060,0.43225440828745426,0.0
2061,3.9706689803180706,0.0
2062,6.782908985797661,0.0
2063,-0.6768588561291604,0.0
2064,-1.5456571318499897,0.0
2065,1.564947544539121,0.0
2066,-0.7424492736534971,0.0
2067,0.1886714810417288,0.0
2068,0.03707574611452458,0.0
2069,-0.07790693478023746,0.0
2070,-0.04100036445130152,0.0
2071,0.012826618233764277,0.0
2072,-0.0995487411795916,0.0
2073,0.06314553822573268,0.0
2074,-0.02653537438466897,0.0
2075,0.0651434507052551,0.0
2076,-0.01984906472356116,0.0
2077,0.003935164301490421,0.0
2078,0.07566587750420745,0.0
2079,0.0785943084796215,0.0
2080,0.43516588319961474,0.0
2081,3.8977473892406556,0.0
2082,6.835532832770571,0.0
2083,-0.7191010104999438,0.0
2084,-1.6601633899485242,0.0
2085,1.5231561637582847,0.0
2086,-0.6776438693259149,0.0
2087,0.24360186383617294,0.0
2088,0.13695017796795284,0.0
2089,-0.028186571229918224,0.0
2090,0.11052342290026096,0.0
2091,0.06423539986042952,0.0
2092,0.01703184577298719,0.0
2093,0.015852792314286015,0.0
2094,-0.04016536761431306,0.0
2095,0.002848410325908466,0.0
2096,0.053498672062751704,0.0
2097,0.06094202291985068,0.0
2098,0.07533003494852478,0.0
2099,0.0816668046498289,0.0
2100,0.3668995013414727,0.0
2101,3.869185692669567,0.0
2102,6.712984094184155,0.0
2103,-0.8652004776002002,0.0
2104,-1.592104246350593,0.0
2105,1.5379073902361324,0.0
2106,-0.8001238486483622,0.0
2107,0.22964424643106696,0.0
2108,-0.019359072332657053,0.0
2109,-0.05005253984399196,0.0
2110,0.006285959262087665,0.0
2111,-0.08472307904304935,0.0
2112,0.04215575248475893,0.0
2113,-0.05921985813584902,0.0
2114,-0.051649988386494546,0.0
2115,-0.05575020377095364,0.0
2116,-0.05883424257661597,0.0
2117,0.08831588540200833,0.0
2118,0.05374927402883464,0.0
2119,0.04881524125092601,0.0
2120,0.439518705039565,0.0
2121,3.9394700287736026,0.0
2122,6.759196617851186,0.0
2123,-0.7884528694901844,0.0
2124,-1.6517890331923724,0.0
2125,1.4861494020506052,0.0
2126,-0.7805818732493013,0.0
2127,0.07302016422358229,0.0
2128,-0.00104101600950575,0.0
2129,0.005265761623081414,0.0
2130,0.007077002688848047,0.0
2131,-0.09538228713313227,0.0
2132,0.13037673332637081,0.0
2133,-0.00830944127782111,0.0
2134,-0.06338162780715456,0.0
2135,0.0672439416446231,0.0
2136,-0.02629071273570361,0.0
2137,0.001972387837005686,0.0
2138,0.0765372974651511,0.0
2139,0.04843465612671691,0.0
2140,0.4092117501928864,0.0
2141,3.8985447665047723,0.0
2142,6.81593920177465,0.0
2143,-0.71632455397522,0.0
2144,-1.482607026879533,0.0
2145,1.5963550142098515,0.0
2146,-0.7209309751535566,0.0
2147,0.1829910353790618,0.0
2148,0.13305110734203435,0.0
2149,0.046330472394699236,0.0
2150,0.04226540511992847,0.0
2151,-0.002885057250403132,0.0
2152,-0.0026655063519065323,0.0
2153,0.020229521825028508,0.0
2154,0.058502730722351924,0.0
2155,0.023052199889298738,0.0
2156,0.004805911420011139,0.0
2157,-0.026498447626199618,0.0
2158,-0.02138160704010293,0.0
2159,0.024488981955416066,0.0
2160,0.3427058638730653,0.0
2161,4.012633910323666,0.0
2162,6.603836510799162,0.0
2163,-0.7822822213615925,0.0
2164,-1.5728926147696485,0.0
2165,1.4536178303579712,0.0
2166,-0.7621488209074867,0.0
2167,0.16138596706885977,0.0
2168,-0.07981640469983245,0.0
2169,-0.0801787236488453,0.0
2170,0.0383482464351842,0.0
2171,-0.02784539397551778,0.0
2172,-0.007381815838387682,0.0
2173,0.019263686632130482,0.0
2174,0.011090729535422663,0.0
2175,0.017281935882482228,0.0
2176,-0.05391029031588625,0.0
2177,-0.016615830373116446,0.0
2178,0.09094940495048069,0.0
2179,0.06399225452909815,0.0
2180,0.3760213623092174,0.0
2181,3.895276035037448,0.0
2182,6.852243467989937,0.0
2183,-0.7518319340152182,0.0
2184,-1.5256054453933565,0.0
2185,1.559964206324467,0.0
2186,-0.7209867861012972,0.0
2187,0.24876255248439916,0.0
2188,0.08273667080209857,0.0
2189,0.04794107487203826,0.0
2190,0.08961356579450244,0.0
2191,-0.03628549508279441,0.0
2192,0.07454006908834188,0.0
2193,0.0437583864981411,0.0
2194,0.03614340778569379,0.0
2195,0.05531935916804391,0.0
2196,-0.013169910564004388,0.0
2197,-0.02201058417626551,0.0
2198,0.030171058344641913,0.0
2199,-0.03784405875410093,0.0
2200,0.49456301905720756,0.0
2201,3.941773061067062,0.0
2202,6.7961282337482585,0.0
2203,-0.9484673625682368,0.0
2204,-1.604013917551252,0.0
2205,1.48782452924964,0.0
2206,-0.8439666511285547,0.0
2207,0.09607263285640064,0.0
2208,-0.02272717249858961,0.0
2209,-0.08003130062718612,0.0
2210,-0.05372474570652945,0.0
2211,0.058466731876285406,0.0
2212,-0.1058560363806282,0.0
2213,0.00149384869679519,0.0
2214,0.0052366457892717155,0.0
2215,0.020381729016730646,0.0
2216,-0.09552715116009812,0.0
2217,0.020379850254882197,0.0
2218,0.04496404306926865,0.0
2219,-0.05484747131360167,0.0
2220,0.35879708622533013,0.0
2221,3.8168920081933457,0.0
2222,6.734132397540661,0.0
2223,-0.9749927562416202,0.0
2224,-1.69393843364039,0.0
2225,1.4046944382498054,0.0
2226,-0.8143607522901326,0.0
2227,0.1062865640063056,0.0
2228,-0.00581151724383084,0.0
2229,-0.00012910911663875646,0.0
2230,0.022074761550082967,0.0
2231,-0.1035596243106906,0.0
2232,-0.07089727527037468,0.0
2233,0.04706046142466032,0.0
2234,-0.08958045158306913,0.0
2235,0.0021219059966843742,0.0
2236,-0.11861195332697266,0.0
2237,-0.061560281981139844,0.0
2238,-0.01256565649214458,0.0
2239,0.0019645154342751645,0.0
2240,0.36871569713334695,0.0
2241,3.8709625746029603,0.0
2242,6.709424582724219,0.0
2243,-0.8825216503744895,0.0
2244,-1.670318147869479,0.0
2245,1.4028782083665963,0.0
2246,-0.8510103514065996,0.0
2247,0.14111246291238672,0.0
2248,-0.08834128766818049,0.0
2249,-0.0720170749087768,0.0
2250,-0.05263543413469696,0.0
2251,-0.09963055644830307,0.0
2252,0.01332221308346175,0.0
2253,-0.13144235953801342,0.0
2254,-0.09351462960125831,0.0
2255,-0.052433400782495074,0.0
2256,-0.006545905021972734,0.0
2257,-0.026017931912693026,0.0
2258,-0.07986878672717697,0.0
2259,-0.1349877273555471,0.0
2260,0.3814311747434359,0.0
2261,3.8116076555074,0.0
2262,6.653710432657593,0.0
2263,-0.9832432451680514,0.0
2264,-1.616016677153725,0.0
2265,1.3540751877997865,0.0
2266,-0.9636037104691534,0.0
2267,0.2197755426053593,0.0
2268,-0.06156959305698569,0.0
2269,-0.05242362915426553,0.0
2270,-0.012917003973025,0.0
2271,-0.0718502651261601,0.0
2272,0.028734927231716494,0.0
2273,-0.1276340472017153,0.0
2274,0.05035288151080599,0.0
2275,-0.010631484833013034,0.0
2276,-0.10259266869969108,0.0
2277,-0.03961061542310995,0.0
2278,-0.040330856919557276,0.0
2279,0.01307774654626799,0.0
2280,0.36545923523959173,0.0
2281,3.9257670192628984,0.0
2282,6.69430744554076,0.0
2283,-0.8990138903344062,0.0
2284,-1.6745979149459662,0.0
2285,1.4918366333090416,0.0
2286,-0.7491750792117834,0.0
2287,0.2135691644920441,0.0
2288,-0.09038188784263339,0.0
2289,-0.1547563157852323,0.0
2290,-0.099534322525578,0.0
2291,-0.10274766774636564,0.0
2292,-0.14098781292298876,0.0
2293,-0.09530612653673427,0.0
2294,-0.08970342827392941,0.0
2295,-0.08028006224797907,0.0
2296,-0.12333041742886197,0.0
2297,-0.12594162140253948,0.0
2298,0.013220521723627983,0.0
2299,-0.01510080277865189,0.0
2300,0.24053116799791932,0.0
2301,3.866783827920815,0.0
2302,6.686538954774894,0.0
2303,-0.8658086119243392,0.0
2304,-1.6431730213392715,0.0
2305,1.4619084483252018,0.0
2306,-0.7452396839721328,0.0
2307,0.23516142971952267,0.0
2308,-0.09848374321078854,0.0
2309,-0.04773108860605167,0.0
2310,-0.019367868155826036,0.0
2311,-0.06247821445897914,0.0
2312,-0.0945141601468316,0.0
2313,-0.14776778987774236,0.0
2314,-0.09566537397205137,0.0
2315,-0.037432030075096254,0.0
2316,-0.18002466927350072,0.0
2317,-0.134875762269248,0.0
2318,0.08594361601254318,0.0
2319,-0.1338122940657276,0.0
2320,0.2555798641900758,0.0
2321,3.8311000479858746,0.0
2322,6.579226061332872,0.0
2323,-0.9771451989736186,0.0
2324,-1.6686033969543308,0.0
2325,1.4728511725694218,0.0
2326,-0.8438840223704234,0.0
2327,0.16567191370082612,0.0
2328,-0.023103031357678806,0.0
2329,-0.06672970506199745,0.0
2330,-0.04958283249679515,0.0
2331,-0.1525314862599325,0.0
2332,-0.04091036972177527,0.0
2333,-0.05928247659874919,0.0
2334,-0.03795000148016369,0.0
2335,-0.10485479907551612,0.0
2336,0.031623491454505416,0.0
2337,-0.04526467363873704,0.0
2338,-0.013815248422008604,0.0
2339,-0.04151468477289188,0.0
2340,0.2719138808708145,0.0
2341,3.8166709878618783,0.0
2342,6.603845314139753,0.0
2343,-0.9885924856074304,0.0
2344,-1.5698114876243474,0.0
2345,1.5055557456839888,0.0
2346,-0.754779114581037,0.0
2347,0.13291934553734858,0.0
2348,-0.07452387557459972,0.0
2349,-0.09850270359405602,0.0
2350,-0.009988932582450719,0.0
2351,-0.056776334780371876,0.0
2352,-0.06801352463558533,0.0
2353,-0.03134086982933321,0.0
2354,-0.005458340563178253,0.0
2355,-0.0343137775780591,0.0
2356,-0.0730430780347218,0.0
2357,-0.11186658428564307,0.0
2358,-0.014945644386225872,0.0
2359,-0.049785914248583626,0.0
2360,0.3132123273106337,0.0
2361,3.847271801862257,0.0
2362,6.647437699833167,0.0
2363,-1.0421199745398655,0.0
2364,-1.7143683483555232,0.0
2365,1.339598173037843,0.0
2366,-0.8601044344523924,0.0
2367,0.1182162438715717,0.0
2368,-0.02299195075552391,0.0
2369,-0.01982775460288031,0.0
2370,-0.1336247870832008,0.0
2371,-0.044029917472460975,0.0
2372,-0.010102832412817151,0.0
2373,-0.02602362993699032,0.0
2374,0.025995413492090502,0.0
2375,0.061798255750813415,0.0
2376,0.016946416704061548,0.0
2377,-0.02819792220898031,0.0
2378,0.03142930095547655,0.0
2379,0.08082258493337743,0.0
2380,0.3918209292365001,0.0
2381,3.9476973190230074,0.0
2382,6.714152116820251,0.0
2383,-0.9199341485855165,0.0
2384,-1.586803161437632,0.0
2385,1.4209294077403374,0.0
2386,-0.5944388772682468,0.0
2387,0.29576453795902347,0.0
2388,0.016468937069618775,0.0
2389,-0.0044317795455901254,0.0
2390,-7.870265120890618e-05,0.0
2391,0.01266244961444225,0.0
2392,0.08750503415614717,0.0
2393,0.0708606589652307,0.0
2394,-0.005670047793618464,0.0
2395,-0.036207926224636575,0.0
2396,0.0014174330074391318,0.0
2397,0.05616952004247398,0.0
2398,-0.00024733956705545734,0.0
2399,0.06905773721485317,0.0
2400,0.359255609135223,0.0
2401,3.8435796624620826,0.0
2402,6.736955097823166,0.0
2403,-0.9423650202439239,0.0
2404,-1.5429535035072348,0.0
2405,1.5453594947685438,0.0
2406,-0.7941277370413244,0.0
2407,0.19148842617752454,0.0
2408,-0.004284859339279419,0.0
2409,0.12067861202676566,0.0
2410,0.09284697057862273,0.0
2411,0.0701174945031819,0.0
2412,0.027915427386605574,0.0
2413,0.07962986387807292,0.0
2414,-0.0275505249177138,0.0
2415,0.059448549818995874,0.0
2416,-0.0314399823968038,0.0
2417,0.051375537772821916,0.0
2418,0.027350934517276854,0.0
2419,0.11278653223340658,0.0
2420,0.4165860932074682,0.0
2421,3.9942033080199635,0.0
2422,6.797430873723912,0.0
2423,-0.7946883994663805,0.0
2424,-1.5403132563652309,0.0
2425,1.6072674784300318,0.0
2426,-0.7888879851414384,0.0
2427,0.37038296351500677,0.0
2428,0.011304573751865644,0.0
2429,0.05152637082333199,0.0
2430,0.07316648514466541,0.0
2431,-4.819927255312814e-05,0.0
2432,0.0834005955105447,0.0
2433,0.011745119996082978,0.0
2434,0.023524976672742597,0.0
2435,0.07157605054813607,0.0
2436,0.13612798211572733,0.0
2437,0.01468424790061398,0.0
2438,0.016740410183458995,0.0
2439,0.06152450697317058,0.0
2440,0.3590349199672262,0.0
2441,4.007985486054397,0.0
2442,6.772737773049392,0.0
2443,-0.8633301969148108,0.0
2444,-1.5649983450772382,0.0
2445,1.491616685791986,0.0
2446,-0.7155775024061612,0.0
2447,0.2106068328965755,0.0
2448,0.10786524134393213,0.0
2449,-0.057810292926576856,0.0
2450,0.11624628242330665,0.0
2451,0.06461835442698591,0.0
2452,0.05520292478250301,0.0
2453,0.15183604613020096,0.0
2454,0.017925158420045266,0.0
2455,0.12984137455611627,0.0
2456,0.02046109115662647,0.0
2457,0.032815620710027534,0.0
2458,0.029429555647036504,0.0
2459,-0.01174114201558233,0.0
2460,0.47417899682866593,0.0
2461,4.016717874182179,0.0
2462,6.752904323516445,0.0
2463,-0.833977578679357,0.0
2464,-1.537161275523334,0.0
2465,1.5008829214405002,0.0
2466,-0.7916928956893693,0.0
2467,0.25886869567148696,0.0
2468,0.11308028038626977,0.0
2469,-0.022888598855083254,0.0
2470,-0.04317785414932333,0.0
2471,0.07692978244332341,0.0
2472,0.013884875216442622,0.0
2473,0.0668093914604668,0.0
2474,0.014893303912355483,0.0
2475,0.07555762528848092,0.0
2476,-0.09678856720625943,0.0
2477,-0.06831769584872008,0.0
2478,-0.014695786201946111,0.0
2479,0.00624072727187448,0.0
2480,0.39427418206806963,0.0
2481,3.998272779253462,0.0
2482,6.722680578974805,0.0
2483,-0.8847930906032285,0.0
2484,-1.5249569014245026,0.0
2485,1.5265769247954883,0.0
2486,-0.7594775660519277,0.0
2487,0.1668011056568354,0.0
2488,-0.045426340567291904,0.0
2489,-0.03323036462180584,0.0
2490,0.04242508786023991,0.0
2491,-0.04698822851985866,0.0
2492,-0.01629199525731988,0.0
2493,-0.05134547738802195,0.0
2494,-0.014466487824573295,0.0
2495,-0.028107658689923556,0.0
2496,0.01616783691332476,0.0
2497,-0.07236107001750139,0.0
2498,0.008865771302541146,0.0
2499,-0.03504235872347566,0.0
2500,0.269888397061102,0.0
2501,3.8389983769288563,0.0
2502,6.592153807728044,0.0
2503,-0.973688077099838,0.0
2504,-1.6031749287656385,0.0
2505,1.3922886853106446,0.0
2506,-0.909247099036518,0.0
2507,0.1506864350205436,0.0
2508,-0.06662661162744817,0.0
2509,-0.09157747370060093,0.0
2510,0.012785714532595596,0.0
2511,-0.0715001360452531,0.0
2512,-0.09455223484466345,0.0
2513,-0.12003136483850281,0.0
2514,-0.012627538202687194,0.0
2515,0.0367500403319847,0.0
2516,-0.1500756997837841,0.0
2517,-0.01308941166351514,0.0
2518,0.003372421833603388,0.0
2519,-0.1297066275941802,0.0
2520,0.3038134865774007,0.0
2521,3.941714645514546,0.0
2522,6.652973930639438,0.0
2523,-0.9795459092696603,0.0
2524,-1.5907622432096975,0.0
2525,1.4066863276571762,0.0
2526,-0.7687001607818283,0.0
2527,0.19917829758385372,0.0
2528,-0.07387811188786937,0.0
2529,-0.07283412154532234,0.0
2530,-0.029534059361949472,0.0
2531,-0.12899603868086884,0.0
2532,-0.04164739124823229,0.0
2533,-0.06634427008092735,0.0
2534,-0.052449797995526876,0.0
2535,-0.017484685121308872,0.0
2536,-0.08072166196571834,0.0
2537,-0.017895954097793966,0.0
2538,-0.06313269693214768,0.0
2539,-0.027956133791055285,0.0
2540,0.2892174138161121,0.0
2541,3.9984520408534254,0.0
2542,6.607644115682064,0.0
2543,-1.0265723422431348,0.0
2544,-1.5282820922252434,0.0
2545,1.3946592145491938,0.0
2546,-0.8379988076927379,0.0
2547,0.12545748628015563,0.0
2548,-0.05850201180110001,0.0
2549,-0.0705953609689447,0.0
2550,-0.045204026825490726,0.0
2551,-0.11846367174242455,0.0
2552,-0.1245903531438229,0.0
2553,-0.06829846630449933,0.0
2554,-0.10237364382168351,0.0
2555,-0.058513162172352626,0.0
2556,-0.11769081594276143,0.0
2557,-0.054736217196015666,0.0
2558,-0.012898817060465875,0.0
2559,-0.06024553821824336,0.0
2560,0.2625077830931541,0.0
2561,3.8794599979521576,0.0
2562,6.624681453331187,0.0
2563,-0.9872381621443234,0.0
2564,-1.6541202445894878,0.0
2565,1.3148426691514654,0.0
2566,-0.8705180015842076,0.0
2567,0.0767189024003924,0.0
2568,-0.1056602975837328,0.0
2569,-0.1513135264773165,0.0
2570,-0.1640213833075213,0.0
2571,-0.12042972207513189,0.0
2572,-0.20361640441537712,0.0
2573,-0.12934881763187459,0.0
2574,-0.11840608727339652,0.0
2575,-0.16668742578173198,0.0
2576,-0.13819420304997793,0.0
2577,-0.11575606378857095,0.0
2578,-0.12398008013603426,0.0
2579,-0.09718593712416888,0.0
2580,0.3234322946500634,0.0
2581,3.859930552290421,0.0
2582,6.594509727343287,0.0
2583,-0.9786785758817609,0.0
2584,-1.62187552903281,0.0
2585,1.385708625931796,0.0
2586,-0.8348044548161735,0.0
2587,0.09850473933524394,0.0
2588,-0.1486593481890747,0.0
2589,-0.15131719164108856,0.0
2590,0.006016740802250994,0.0
2591,-0.19172727735092288,0.0
2592,-0.11119981491799999,0.0
2593,-0.1720205182550133,0.0
2594,-0.06124403363717461,0.0
2595,-0.05416079818965654,0.0
2596,-0.10845299252632344,0.0
2597,-0.1425340314528909,0.0
2598,-0.14592382336794193,0.0
2599,-0.04695139158893048,0.0
2600,0.3102629200972,0.0
2601,3.9639388396497135,0.0
2602,6.61645291022468,0.0
2603,-1.1184506568231838,0.0
2604,-1.6029477561317274,0.0
2605,1.3901188730108442,0.0
2606,-0.8770911337108241,0.0
2607,0.21216292174515,0.0
2608,-0.11188280754541546,0.0
2609,-0.03639244717829153,0.0
2610,0.019872390559282943,0.0
2611,-0.0640480920485854,0.0
2612,-0.0759735928497109,0.0
2613,-0.019835485836658395,0.0
2614,0.005099348350437238,0.0
2615,-0.03448011638959253,0.0
2616,-0.11931059678808839,0.0
2617,0.006781914580928,0.0
2618,-0.1627654479532419,0.0
2619,-0.036360628772639715,0.0
2620,0.4120560123398299,0.0
2621,3.9505407802989905,0.0
2622,6.660421031399635,0.0
2623,-1.0187465813083658,0.0
2624,-1.659797469318688,0.0
2625,1.3478669370508973,0.0
2626,-0.7861454018087368,0.0
2627,0.1351495616616505,0.0
2628,-0.042037413605729504,0.0
2629,-0.07178366351396594,0.0
2630,-0.05698405719087633,0.0
2631,-0.10198004036002475,0.0
2632,-0.03850145640538248,0.0
2633,-0.09234685797258135,0.0
2634,-0.06806162913361762,0.0
2635,-0.15295453971060607,0.0
2636,-0.09045137773289204,0.0
2637,-0.1422540558619097,0.0
2638,-0.008447238195431035,0.0
2639,-0.06335717422502414,0.0
2640,0.3239193073728032,0.0
2641,3.852921601348091,0.0
2642,6.555490412339024,0.0
2643,-0.9620460686171526,0.0
2644,-1.5982742257212101,0.0
2645,1.3909983854896375,0.0
2646,-0.801899862244283,0.0
2647,0.15025721532363348,0.0
2648,-0.05655848629191784,0.0
2649,-0.042366479617252775,0.0
2650,-0.11324398596073505,0.0
2651,-0.06608659789955501,0.0
2652,-0.04451194648986206,0.0
2653,-0.026455004570464118,0.0
2654,-0.07084882482700625,0.0
2655,0.07831674380664311,0.0
2656,-0.01715884478425285,0.0
2657,0.026017126833858897,0.0
2658,-0.0010603543634796885,0.0
2659,0.024511533581389893,0.0
2660,0.37559884584331227,0.0
2661,3.9873333497677836,0.0
2662,6.593890032406117,0.0
2663,-0.9579492106897379,0.0
2664,-1.4925640135921614,0.0
2665,1.5190944233624895,0.0
2666,-0.732822420100984,0.0
2667,0.286551782161622,0.0
2668,-0.07005471696063853,0.0
2669,-0.014384311152077407,0.0
2670,0.030101190426782328,0.0
2671,0.07833167353328052,0.0
2672,0.055256924364357383,0.0
2673,-0.12450273668788035,0.0
2674,-0.011185656697737929,0.0
2675,0.0343965513180708,0.0
2676,0.027876314925385715,0.0
2677,-0.0697818853408877,0.0
2678,0.005784852253586461,0.0
2679,0.0032616327051054397,0.0
2680,0.3527923917769411,0.0
2681,3.976341464972552,0.0
2682,6.5942597204104825,0.0
2683,-0.9682412106900633,0.0
2684,-1.6058405451756632,0.0
2685,1.4659996016520718,0.0
2686,-0.8204739217995146,0.0
2687,0.28128528230802785,0.0
2688,0.09545236917306822,0.0
2689,0.04837680718855911,0.0
2690,0.008310308593405771,0.0
2691,0.14383211868777013,0.0
2692,0.03899058270652142,0.0
2693,0.05545533791841889,0.0
2694,0.015612790844622956,0.0
2695,0.06197719460650562,0.0
2696,-0.02823967003155957,0.0
2697,0.06669674874227509,0.0
2698,-0.002627139549210237,0.0
2699,-0.10329958603441085,0.0
2700,0.35633396829922004,0.0
2701,3.998340369200947,0.0
2702,6.6278578072718535,0.0
2703,-0.9307196186562916,0.0
2704,-1.4451749895324222,0.0
2705,1.4225448737089255,0.0
2706,-0.8276063161222815,0.0
2707,0.16803894233138206,0.0
2708,-0.057636150231689325,0.0
2709,0.03717846138989514,0.0
2710,0.03580811794604013,0.0
2711,-0.020176132582477902,0.0
2712,-0.009465320699657859,0.0
2713,-0.04409204720934105,0.0
2714,0.010085865471295617,0.0
2715,-0.05092668584218706,0.0
2716,0.04983239741991509,0.0
2717,0.03373860154431712,0.0
2718,-0.018708241459006205,0.0
2719,0.002468913591694998,0.0
2720,0.4454759970476246,0.0
2721,4.04010090874081,0.0
2722,6.739065507935845,0.0
2723,-0.9339446289941206,0.0
2724,-1.5198123868426145,0.0
2725,1.4603795025760047,0.0
2726,-0.7699737392078657,0.0
2727,0.24372472789262856,0.0
2728,-0.09918186078512195,0.0
2729,-0.07022514364791231,0.0
2730,0.07258237297334026,0.0
2731,-0.027361888949117893,0.0
2732,0.11295750047176538,0.0
2733,-0.06068366045771457,0.0
2734,-0.02876037317935307,0.0
2735,0.044052143269311436,0.0
2736,0.06917450034654121,0.0
2737,0.08221472257052329,0.0
2738,0.015918154493785724,0.0
2739,-0.04057254394311115,0.0
2740,0.41633739806852743,0.0
2741,3.988563914786828,0.0
2742,6.660633789345105,0.0
2743,-0.9708451464857754,0.0
2744,-1.4812922859349325,0.0
2745,1.5018632564086398,0.0
2746,-0.7411062666463714,0.0
2747,0.2887402015595816,0.0
2748,0.058631027427455976,0.0
2749,0.057105976404602396,0.0
2750,0.026698196100833668,0.0
2751,0.11252539420581203,0.0
2752,0.004888402876206441,0.0
2753,0.0923322582685484,0.0
2754,0.026782833487957607,0.0
2755,0.07470756191221678,0.0
2756,-0.011489642399041404,0.0
2757,-0.01562531410147714,0.0
2758,0.08149799740375445,0.0
2759,-0.005345592834300036,0.0
2760,0.45455922733646464,0.0
2761,3.94724890777469,0.0
2762,6.647155955811868,0.0
2763,-0.9660871090048094,0.0
2764,-1.5247686239688545,0.0
2765,1.4758430091738188,0.0
2766,-0.7934402496458087,0.0
2767,0.24719483933882438,0.0
2768,0.056419868370076724,0.0
2769,-0.053164861130415964,0.0
2770,-0.007796382334771656,0.0
2771,-0.026095558228645253,0.0
2772,-0.0035266720084683265,0.0
2773,0.06294640904777676,0.0
2774,0.018997178194338854,0.0
2775,0.05472035529416728,0.0
2776,-0.01042018689268134,0.0
2777,0.0017084726242423487,0.0
2778,-0.002097933356523859,0.0
2779,-0.02643543072074172,0.0
2780,0.4399364774095079,0.0
2781,4.0629431410288515,0.0
2782,6.681549809860722,0.0
2783,-1.007784385194892,0.0
2784,-1.5025326695161243,0.0
2785,1.381625167869081,0.0
2786,-0.7430965596678265,0.0
2787,0.23340492300087667,0.0
2788,0.0865731690783742,0.0
2789,-0.045729833175854814,0.0
2790,0.07216473323430865,0.0
2791,-0.002726184937085173,0.0
2792,0.0777074697875107,0.0
2793,0.003359532940508163,0.0
2794,0.10214126655091321,0.0
2795,0.054377695386112646,0.0
2796,-0.0524315769300668,0.0
2797,-0.037988772537253745,0.0
2798,0.10141257842258393,0.0
2799,0.0078094198860411265,0.0
2800,0.3819123245205772,0.0
2801,4.022936089440415,0.0
2802,6.602133846709985,0.0
2803,-1.113263856020522,0.0
2804,-1.4985655221946281,0.0
2805,1.3616862672832475,0.0
2806,-0.7035952568465975,0.0
2807,0.2732422646877931,0.0
2808,0.10459866783320071,0.0
2809,0.017857276571309328,0.0
2810,0.033976069744101715,0.0
2811,0.04343365849527746,0.0
2812,0.1160548001258764,0.0
2813,0.03834310827665904,0.0
2814,0.0685159298858223,0.0
2815,0.007880061158174186,0.0
2816,0.0571626488581954,0.0
2817,0.09725727385789296,0.0
2818,0.006260271159050833,0.0
2819,-0.018831592088618072,0.0
2820,0.35495477922394786,0.0
2821,4.012636813510302,0.0
2822,6.671482566923176,0.0
2823,-1.0117835088979663,0.0
2824,-1.5473465611814778,0.0
2825,1.3775229262811282,0.0
2826,-0.8138588001029968,0.0
2827,0.13939578288087315,0.0
2828,-0.09134401842231245,0.0
2829,-0.007923602522365465,0.0
2830,0.0028828767861908532,0.0
2831,-0.01861298262014369,0.0
2832,0.011069341771044953,0.0
2833,0.06079266240268928,0.0
2834,-0.0812261045495584,0.0
2835,-0.027910953756237346,0.0
2836,-0.10089017892822481,0.0
2837,-0.07670931962990549,0.0
2838,0.08470558443186643,0.0
2839,-0.12388494028738284,0.0
2840,0.3869699268198272,0.0
2841,3.869312664108928,0.0
2842,6.5777849996127955,0.0
2843,-0.9956867158953572,0.0
2844,-1.5891397553624127,0.0
2845,1.4711130725796677,0.0
2846,-0.8024547144229085,0.0
2847,0.1907603414931431,0.0
2848,-0.013263532298233708,0.0
2849,-0.012766096341262634,0.0
2850,0.07695940973728504,0.0
2851,0.0023865901931875576,0.0
2852,-0.07790788763254067,0.0
2853,-0.09647249256086123,0.0
2854,-0.0038997887557163814,0.0
2855,0.0915229688331996,0.0
2856,0.060016113677487125,0.0
2857,-0.026728343146653104,0.0
2858,-0.08495647734913858,0.0
2859,0.02866826486947944,0.0
2860,0.36640560533678007,0.0
2861,3.9792539371856153,0.0
2862,6.496443729659345,0.0
2863,-1.0992615839926123,0.0
2864,-1.5554152555313276,0.0
2865,1.3510590113212453,0.0
2866,-0.7973724863808065,0.0
2867,0.14043379676273182,0.0
2868,-0.0678082770052658,0.0
2869,-0.06181142898431423,0.0
2870,0.010444940458040966,0.0
2871,-0.015242799728528683,0.0
2872,0.04801485295116958,0.0
2873,-0.01749902068044021,0.0
2874,0.0002198691805513804,0.0
2875,-0.016864575470230438,0.0
2876,-0.06673331307211926,0.0
2877,0.07311408463822772,0.0
2878,0.014897550635229427,0.0
2879,-0.034524867488310386,0.0
2880,0.4081018527863764,0.0
2881,4.005170398223328,0.0
2882,6.568688087931384,0.0
2883,-1.0808557838736546,0.0
2884,-1.3939417078284748,0.0
2885,1.4573392695144327,0.0
2886,-0.7521871876703804,0.0
2887,0.20205228859543195,0.0
2888,0.04049594706841964,0.0
2889,0.0496915921872373,0.0
2890,0.053022734550497136,0.0
2891,0.009655421212444316,0.0
2892,0.016397086261105896,0.0
2893,0.08341041430438778,0.0
2894,0.019050494313438908,0.0
2895,0.010274371618796765,0.0
2896,-0.008144990181887485,0.0
2897,-0.018742592162035172,0.0
2898,0.06657514045646992,0.0
2899,-0.0029126824406512514,0.0
2900,0.35293521217941315,0.0
2901,4.203458612577947,0.0
2902,6.771880593931781,0.0
2903,-0.987087709690532,0.0
2904,-1.414467627784581,0.0
2905,1.4832567665477883,0.0
2906,-0.5987391886705394,0.0
2907,0.28772951580226597,0.0
2908,0.01384100822677816,0.0
2909,-0.0027316259483552777,0.0
2910,0.05843717416503415,0.0
2911,-0.017611672454409054,0.0
2912,0.07486140642391925,0.0
2913,0.058609777894458,0.0
2914,0.0377221954816735,0.0
2915,0.05614398849266161,0.0
2916,-0.038655179966740526,0.0
2917,0.0683601629525233,0.0
2918,-0.03477496262485411,0.0
2919,-0.030079618305104805,0.0
2920,0.39644403679056217,0.0
2921,4.043467451718366,0.0
2922,6.609156386669694,0.0
2923,-1.04383102287317,0.0
2924,-1.514443039592961,0.0
2925,1.3598948703450653,0.0
2926,-0.7649522690241778,0.0
2927,0.20967817920971843,0.0
2928,-0.057466620739307556,0.0
2929,-0.07295240730600404,0.0
2930,-0.04195301313810995,0.0
2931,-0.0440984618598163,0.0
2932,-0.036743277542705705,0.0
2933,-0.05614028734778336,0.0
2934,-0.06611739005702351,0.0
2935,-0.02754119274907599,0.0
2936,0.04749961074335434,0.0
2937,0.004285202620601219,0.0
2938,-0.006719974432742189,0.0
2939,-0.013646706281199884,0.0
2940,0.44845313994667,0.0
2941,4.018028257545527,0.0
2942,6.58527089384053,0.0
2943,-1.0379758026906314,0.0
2944,-1.4779427273064034,0.0
2945,1.3195299568773398,0.0
2946,-0.816749503952163,0.0
2947,0.3035361248233636,0.0
2948,-0.06260683193294646,0.0
2949,-0.03916579348170034,0.0
2950,-0.05131749358214771,0.0
2951,-0.022762239157777638,0.0
2952,-0.012745607916881098,0.0
2953,0.027523789713621336,0.0
2954,-0.029312765684418807,0.0
2955,-0.03912672968220793,0.0
2956,-0.008244416782260296,0.0
2957,-0.03209783045832133,0.0
2958,-0.09001522424269318,0.0
2959,0.06828741595168307,0.0
2960,0.3705620032427465,0.0
2961,3.978803887625548,0.0
2962,6.578915682675314,0.0
2963,-1.1190904648777178,0.0
2964,-1.567447384402764,0.0
2965,1.35536737060135,0.0
2966,-0.7675150600724227,0.0
2967,0.2042012225114428,0.0
2968,0.030927585270045875,0.0
2969,-0.00833863780616573,0.0
2970,-0.08245346856203051,0.0
2971,0.010019501048321298,0.0
2972,-0.02426993415624909,0.0
2973,-0.04815939749589803,0.0
2974,-0.02191487502206201,0.0
2975,0.025651232659229996,0.0
2976,-0.07303294018077745,0.0
2977,0.02785450651208858,0.0
2978,0.03681764530490876,0.0
2979,-0.03930814450481614,0.0
2980,0.3237888606517528,0.0
2981,4.021977483464731,0.0
2982,6.553354342479485,0.0
2983,-1.131558653484833,0.0
2984,-1.5188817455933152,0.0
2985,1.424696358506515,0.0
2986,-0.857465635173349,0.0
2987,0.1422052478438272,0.0
2988,-0.12837154181498273,0.0
2989,-0.0036010808274740264,0.0
2990,0.03044199470298646,0.0
2991,-0.07329829488520027,0.0
2992,0.017535939585960045,0.0
2993,-0.02890192850265823,0.0
2994,-0.13609942055821003,0.0
2995,-0.13498986876886276,0.0
2996,-0.06686617480812719,0.0
2997,-0.04777940015968279,0.0
2998,-0.07278199024769631,0.0
2999,-0.133678781932947,0.0
3000,0.4085781759622464,0.0
3001,3.9639452621725377,0.0
3002,6.638755549444494,0.0
3003,-1.2018988278446172,0.0
3004,-1.522178104231155,0.0
3005,1.3430555363644925,0.0
3006,-0.8714753052828085,0.0
3007,0.20701509972620918,0.0
3008,-0.0675991048178701,0.0
3009,-0.04725721047004739,0.0
3010,-0.07786543539899551,0.0
3011,-0.0272512645024648,0.0
3012,-0.12880101178195527,0.0
3013,0.0594618512861339,0.0
3014,-0.006665780153488815,0.0
3015,0.004025759806017756,0.0
3016,-0.018745022135812157,0.0
3017,0.01683649387947237,0.0
3018,-0.07836354390007924,0.0
3019,-0.06674205084459865,0.0
3020,0.4556953422907175,0.0
3021,3.996640623522514,0.0
3022,6.624620820293881,0.0
3023,-1.0866570387249241,0.0
3024,-1.6042838931430983,0.0
3025,1.3628520269742805,0.0
3026,-0.758368266255057,0.0
3027,0.21333807631336377,0.0
3028,-0.05177017289344518,0.0
3029,-0.057170786838496884,0.0
3030,-0.03511482981418155,0.0
3031,-0.09794766716843678,0.0
3032,-0.02204261266944435,0.0
3033,-0.04163248976849539,0.0
3034,-0.009392418218128425,0.0
3035,-0.13223104141382191,0.0
3036,-0.07387454722762715,0.0
3037,0.01794158021223715,0.0
3038,-0.05510349215416622,0.0
3039,-0.015414155289404256,0.0
3040,0.35357894752957053,0.0
3041,3.9665001422387305,0.0
3042,6.530240644974645,0.0
3043,-1.137092155833385,0.0
3044,-1.503720413099337,0.0
3045,1.3796578096705021,0.0
3046,-0.7948078868750338,0.0
3047,0.19915049764069614,0.0
3048,-0.04149718156517662,0.0
3049,-0.05807506643721193,0.0
3050,-0.033741771800544315,0.0
3051,-0.11685324129876143,0.0
3052,-0.03473188137486901,0.0
3053,-0.007376213291738466,0.0
3054,-0.028265257797295468,0.0
3055,-0.05044564053930772,0.0
3056,-0.0019113407432012897,0.0
3057,-0.05323476996187463,0.0
3058,-0.05633683433277474,0.0
3059,-0.05293538578293174,0.0
3060,0.37166843693995194,0.0
3061,3.999185458112212,0.0
3062,6.541819512180108,0.0
3063,-1.1590822784803068,0.0
3064,-1.5921735364733272,0.0
3065,1.4353947330578545,0.0
3066,-0.8428887831607,0.0
3067,0.11992997631774024,0.0
3068,-0.07588030535318435,0.0
3069,-0.09452363637583373,0.0
3070,-0.04060720734347301,0.0
3071,-0.044620305605776386,0.0
3072,-0.037788108438153334,0.0
3073,-0.05179814333985091,0.0
3074,-0.13455375378461332,0.0
3075,0.021705792672748928,0.0
3076,-0.12919098672503943,0.0
3077,-0.03974304587332671,0.0
3078,-0.0424320996040541,0.0
3079,-0.006229609666892136,0.0
3080,0.24261659008271264,0.0
3081,3.915503461055859,0.0
3082,6.528273001765639,0.0
3083,-1.106184739316424,0.0
3084,-1.5377475593257341,0.0
3085,1.3485307427754212,0.0
3086,-0.8812084268909589,0.0
3087,0.11480428303258448,0.0
3088,-0.11165723763846096,0.0
3089,-0.06339433631364522,0.0
3090,-0.15468882189116284,0.0
3091,-0.06170649853527904,0.0
3092,-0.06398368377519881,0.0
3093,-0.0549521049395115,0.0
3094,-0.051437308182817845,0.0
3095,-0.08773442130297213,0.0
3096,-0.06227222724339461,0.0
3097,-0.011427682944997332,0.0
3098,-0.06323854427219412,0.0
3099,-0.01702585090805902,0.0
3100,0.37144378198116546,0.0
3101,4.0343324570960934,0.0
3102,6.591195102960719,0.0
3103,-1.0420681977422452,0.0
3104,-1.5570685862476006,0.0
3105,1.3648167024990747,0.0
3106,-0.7965344922512796,0.0
3107,0.15192278120233044,0.0
3108,-0.063861511757729,0.0
3109,-0.06455719981914859,0.0
3110,-0.0034281604390080794,0.0
3111,-0.060955821993152304,0.0
3112,-0.09235171826659277,0.0
3113,-0.1285565372390281,0.0
3114,-0.05770821419643546,0.0
3115,-0.05733418778253736,0.0
3116,-0.08088853345931772,0.0
3117,-0.06490815215943749,0.0
3118,-0.04077217199644441,0.0
3119,-0.0113357982212305,0.0
3120,0.39176471625367904,0.0
3121,3.921630807036131,0.0
3122,6.57781062807958,0.0
3123,-1.1123064501496098,0.0
3124,-1.5478063337272143,0.0
3125,1.4362763570358077,0.0
3126,-0.7724319170873301,0.0
3127,0.24061365264904166,0.0
3128,-0.009629698081964067,0.0
3129,-0.007552293737551438,0.0
3130,-0.05846139271833099,0.0
3131,-0.075610964672927,0.0
3132,-0.07502429076600933,0.0
3133,0.004570360616611747,0.0
3134,0.0277136702115951,0.0
3135,0.038058856199133656,0.0
3136,0.05048462579483415,0.0
3137,0.018631885862974783,0.0
3138,-0.0752405327997655,0.0
3139,-0.047970420162630964,0.0
3140,0.470686057561954,0.0
3141,4.017437874615206,0.0
3142,6.513521129227118,0.0
3143,-1.1189096307184694,0.0
3144,-1.4617815401533765,0.0
3145,1.4505474350575784,0.0
3146,-0.74413792059816,0.0
3147,0.15597437387654195,0.0
3148,-0.06633077906136838,0.0
3149,-0.10780622866188092,0.0
3150,0.042624493643588834,0.0
3151,0.029681260380140295,0.0
3152,-0.04207659138936703,0.0
3153,-0.05712060448204108,0.0
3154,-0.021172329527799332,0.0
3155,-0.06854568144762245,0.0
3156,-0.01936259155186196,0.0
3157,0.06411496289640403,0.0
3158,0.06957166045337704,0.0
3159,-0.005675690489584641,0.0
3160,0.3855607847725177,0.0
3161,4.084059410730836,0.0
3162,6.550087940294207,0.0
3163,-1.0647591469982711,0.0
3164,-1.3021875594360546,0.0
3165,1.3509873190169837,0.0
3166,-0.857137434226016,0.0
3167,0.19463213203559293,0.0
3168,-0.07193411660329842,0.0
3169,-0.07025104440192584,0.0
3170,-0.02195004578185829,0.0
3171,-0.09196926510809808,0.0
3172,-0.12118530294281855,0.0
3173,-0.12476432870726821,0.0
3174,0.026569761797772797,0.0
3175,0.01484016059580958,0.0
3176,-0.06597959162242416,0.0
3177,-0.00592864304532751,0.0
3178,-0.004915883795094861,0.0
3179,0.03983152090629861,0.0
3180,0.2930444255524067,0.0
3181,4.073158649602413,0.0
3182,6.599234696457737,0.0
3183,-1.1375055883221017,0.0
3184,-1.5288878178713492,0.0
3185,1.3776091520255243,0.0
3186,-0.7371155882721049,0.0
3187,0.21635464149942835,0.0
3188,-0.005088594649088677,0.0
3189,-0.07550008145838966,0.0
3190,-0.06656291594206915,0.0
3191,0.02475275638938469,0.0
3192,0.04192166662554135,0.0
3193,-0.04634637508191926,0.0
3194,-0.014409139874625521,0.0
3195,-0.02078255696760742,0.0
3196,-0.1325511205159271,0.0
3197,-0.09013468259820426,0.0
3198,0.02966809579341834,0.0
3199,-0.07709137229269804,0.0
3200,0.41445629414815804,0.0
3201,4.052622695636724,0.0
3202,6.572570910034083,0.0
3203,-1.1148012795630053,0.0
3204,-1.3953263513230587,0.0
3205,1.4576765049923526,0.0
3206,-0.8278007628032181,0.0
3207,0.2002750303151496,0.0
3208,-0.035766576078405984,0.0
3209,-0.03320286759990472,0.0
3210,0.11710711791347722,0.0
3211,-0.008407856888722868,0.0
3212,0.054901964255003995,0.0
3213,0.0006414004198279627,0.0
3214,0.02318183117428925,0.0
3215,0.005587853687969465,0.0
3216,-0.09087773913811525,0.0
3217,0.004110547492660967,0.0
3218,-0.05622624028163406,0.0
3219,-0.017441039020477445,0.0
3220,0.3546130807195711,0.0
3221,3.989632165561761,0.0
3222,6.497097690517762,0.0
3223,-1.1876854352156876,0.0
3224,-1.4728508847032808,0.0
3225,1.4025433838396701,0.0
3226,-0.8679034509513257,0.0
3227,0.12051192732113936,0.0
3228,-0.030817385034998583,0.0
3229,-0.06412612012380942,0.0
3230,0.03496655604728237,0.0
3231,-0.028713919732121573,0.0
3232,-0.07464205755107155,0.0
3233,-0.06405910714334415,0.0
3234,0.04366434992176469,0.0
3235,0.07291337000035575,0.0
3236,-0.023808283979461217,0.0
3237,-0.07704121586043897,0.0
3238,0.09702900357605383,0.0
3239,-0.004914892623386029,0.0
3240,0.27778762967719134,0.0
3241,4.045574097879986,0.0
3242,6.6276181981593645,0.0
3243,-1.1809034652163128,0.0
3244,-1.4617364433085456,0.0
3245,1.3837936265939805,0.0
3246,-0.780860769249265,0.0
3247,0.2055331694999027,0.0
3248,-0.06716732404955182,0.0
3249,-0.029424290746768757,0.0
3250,-0.09967666681606921,0.0
3251,-0.016726875553788996,0.0
3252,-0.0024195482100015653,0.0
3253,-0.11606950037905854,0.0
3254,-0.04205096246334488,0.0
3255,-0.06235233946067447,0.0
3256,-0.045875248849592196,0.0
3257,-0.047035690962692986,0.0
3258,-0.02568085761263738,0.0
3259,-0.155162397167738,0.0
3260,0.2678331360708277,0.0
3261,4.007822202384515,0.0
3262,6.569750351382362,0.0
3263,-1.2016827228374283,0.0
3264,-1.457516122688753,0.0
3265,1.329848367002449,0.0
3266,-0.7860494892484703,0.0
3267,0.06385491513605807,0.0
3268,-0.001263366094322399,0.0
3269,-0.09045498304254097,0.0
3270,0.012057304438993222,0.0
3271,-0.09131357388989769,0.0
3272,-0.09268483296344356,0.0
3273,-0.0885602091847698,0.0
3274,-0.09634638592673248,0.0
3275,-0.07519389337785137,0.0
3276,-0.1243729603938388,0.0
3277,-0.07488485200888075,0.0
3278,-0.11143735838232788,0.0
3279,-0.09788718667094223,0.0
3280,0.39479193272376406,0.0
3281,3.9907381946409113,0.0
3282,6.574119191842212,0.0
3283,-1.2134827663856806,0.0
3284,-1.5055951649250703,0.0
3285,1.4529632079797739,0.0
3286,-0.7935354468566147,0.0
3287,0.13321267953020993,0.0
3288,-0.06080306168455905,0.0
3289,-0.12366913152145373,0.0
3290,-0.09782363238457226,0.0
3291,-0.06320915021040713,0.0
3292,-0.08623841561911627,0.0
3293,-0.006620541730816755,0.0
3294,-0.11219506528206069,0.0
3295,-0.06539583852283708,0.0
3296,-0.007678757093535049,0.0
3297,-0.061528755882148886,0.0
3298,-0.0423226638494177,0.0
3299,-0.04543850960092493,0.0
3300,0.40875021089416314,0.0
3301,4.025416332832912,0.0
3302,6.5038776685572905,0.0
3303,-1.1960451046577578,0.0
3304,-1.42048764399954,0.0
3305,1.3472975488560415,0.0
3306,-0.8934985564192346,0.0
3307,0.16292350799304833,0.0
3308,-0.0843476635180021,0.0
3309,-0.03896136764277358,0.0
3310,-0.059414866667892974,0.0
3311,-0.09966264947478465,0.0
3312,-0.0076476479172990705,0.0
3313,-0.0461161714626298,0.0
3314,-0.09520603768926668,0.0
3315,-0.15007866613131016,0.0
3316,-0.003906379571157463,0.0
3317,-0.14552640718433196,0.0
3318,-0.04080639608852824,0.0
3319,-0.10148814698181981,0.0
3320,0.36592403985762906,0.0
3321,4.045158989354503,0.0
3322,6.523751081964411,0.0
3323,-1.221691732756078,0.0
3324,-1.4565783925528288,0.0
3325,1.4820869492174658,0.0
3326,-0.8034989841372111,0.0
3327,0.17275157966416158,0.0
3328,-0.03686054540627045,0.0
3329,-0.13505590946549248,0.0
3330,0.0379904412181066,0.0
3331,-0.12673137460088385,0.0
3332,-0.12046306065259063,0.0
3333,0.0025560514908408716,0.0
3334,-0.0626326256829844,0.0
3335,-0.1581626365682566,0.0
3336,-0.09036852135484426,0.0
3337,-0.016053842362369203,0.0
3338,-0.008262591141811645,0.0
3339,-0.047524491969336995,0.0
3340,0.3902121516329691,0.0
3341,4.031928260751869,0.0
3342,6.52303144458131,0.0
3343,-1.2309914612565707,0.0
3344,-1.50298160053958,0.0
3345,1.4341523966200354,0.0
3346,-0.7991975156816424,0.0
3347,0.17995595791864835,0.0
3348,-0.11887968936371779,0.0
3349,-0.06449104892784491,0.0
3350,-0.0381179797507141,0.0
3351,0.07110151771627052,0.0
3352,-0.0768510749956192,0.0
3353,-0.12479402956579647,0.0
3354,0.024462993838252817,0.0
3355,0.00978163307033647,0.0
3356,-0.021356265876860025,0.0
3357,-0.0407571985148562,0.0
3358,0.03431141810274091,0.0
3359,-0.01372885703327155,0.0
3360,0.39496681805545425,0.0
3361,4.086546624072964,0.0
3362,6.535885407005184,0.0
3363,-1.1556870800720558,0.0
3364,-1.4489419392528309,0.0
3365,1.3762125135890608,0.0
3366,-0.8355524777215457,0.0
3367,0.1641486923795814,0.0
3368,-0.0483180953146297,0.0
3369,-0.15352289200816976,0.0
3370,-0.1266690128850215,0.0
3371,-0.1686993702074926,0.0
3372,-0.0568190182609756,0.0
3373,0.025746259008011516,0.0
3374,-0.07044273003783222,0.0
3375,-0.009823415941986012,0.0
3376,-0.12535225551785759,0.0
3377,-0.09752607672826137,0.0
3378,-0.03233023090817815,0.0
3379,-0.11657325803964588,0.0
3380,0.3573340184465147,0.0
3381,4.169094675982959,0.0
3382,6.4794949637443535,0.0
3383,-1.2279707801174935,0.0
3384,-1.4148612185572897,0.0
3385,1.409790388861269,0.0
3386,-0.7655227381597556,0.0
3387,0.14309010133206085,0.0
3388,-0.060736597526052497,0.0
3389,-0.1422250319829212,0.0
3390,-0.006030116745525494,0.0
3391,0.009338806810624947,0.0
3392,-0.04575653451653007,0.0
3393,-0.008400777967756592,0.0
3394,0.03388073047226528,0.0
3395,0.0017602201748796523,0.0
3396,-0.07257749460617088,0.0
3397,-0.054564963987099056,0.0
3398,-0.06497889796512818,0.0
3399,-0.044302883132908616,0.0
3400,0.313201572907339,0.0
3401,4.052859206579422,0.0
3402,6.476922165759751,0.0
3403,-1.2614507977615692,0.0
3404,-1.427130769435357,0.0
3405,1.3654373404735423,0.0
3406,-0.8365267190042857,0.0
3407,0.2601614317620974,0.0
3408,-0.05831348876954495,0.0
3409,-0.03146548912700192,0.0
3410,0.04599701178022589,0.0
3411,-0.005867333457427917,0.0
3412,-0.042018778837657034,0.0
3413,0.004398729204822649,0.0
3414,-0.011936562776990671,0.0
3415,-0.06837886916204805,0.0
3416,0.027148546571813315,0.0
3417,0.0158095528519278,0.0
3418,0.11198384711208889,0.0
3419,-0.04484532444750977,0.0
3420,0.3330896671652583,0.0
3421,4.145344475633899,0.0
3422,6.53544314491683,0.0
3423,-1.2374291359583576,0.0
3424,-1.43157637507867,0.0
3425,1.3371089688346087,0.0
3426,-0.6872994092159174,0.0
3427,0.18610558401115151,0.0
3428,-0.026350816698823505,0.0
3429,0.023817098024066313,0.0
3430,0.026434880903137798,0.0
3431,0.032988614172424394,0.0
3432,0.016384095550727826,0.0
3433,-0.025345413596949886,0.0
3434,-0.007021736468919942,0.0
3435,0.02620839146206711,0.0
3436,0.01905329243886565,0.0
3437,-0.08314716880506788,0.0
3438,-0.09020432531997682,0.0
3439,0.054300817235948276,0.0
3440,0.3038463113644244,0.0
3441,4.058870266129158,0.0
3442,6.480401404242131,0.0
3443,-1.2987675246894648,0.0
3444,-1.3743214843361216,0.0
3445,1.2929788552976662,0.0
3446,-0.806987172339865,0.0
3447,0.18415887023718572,0.0
3448,-0.0014617341025676134,0.0
3449,-0.09179454167466149,0.0
3450,-0.050984339231585685,0.0
3451,-0.1071680521833388,0.0
3452,-0.06272371154441288,0.0
3453,0.062065729790352867,0.0
3454,0.006879198262410374,0.0
3455,-0.09101207891970718,0.0
3456,0.08301121754354143,0.0
3457,0.07947303323593283,0.0
3458,0.0410594818087929,0.0
3459,0.0002283471860199445,0.0
3460,0.380063853962886,0.0
3461,4.155053986900275,0.0
3462,6.6022621305746885,0.0
3463,-1.0736294009427063,0.0
3464,-1.4313183174618986,0.0
3465,1.3479976068249417,0.0
3466,-0.8646935221725487,0.0
3467,0.1947741951279293,0.0
3468,-0.020553089095625674,0.0
3469,-0.08100637963243132,0.0
3470,0.1462855822202873,0.0
3471,-0.06771294195558059,0.0
3472,0.057889452879387494,0.0
3473,-0.06538644390817043,0.0
3474,0.08710905439942476,0.0
3475,0.014393320373793393,0.0
3476,-0.013298204420524588,0.0
3477,-0.04693776882813511,0.0
3478,-0.015694800261853492,0.0
3479,-0.03545573138935766,0.0
3480,0.3804392169368347,0.0
3481,4.092136024341812,0.0
3482,6.552143179867551,0.0
3483,-1.2962439909354588,0.0
3484,-1.481363250460202,0.0
3485,1.3901956162493823,0.0
3486,-0.8796761153497031,0.0
3487,0.15565182661388466,0.0
3488,-0.06634067226951558,0.0
3489,-0.015009201498292296,0.0
3490,0.016479384968621613,0.0
3491,0.04844302336400728,0.0
3492,0.012001810773740101,0.0
3493,0.025985344922032687,0.0
3494,0.02854268684848023,0.0
3495,0.01583333695713431,0.0
3496,0.003845491465000286,0.0
3497,-0.02231805181677734,0.0
3498,-0.019974879646814887,0.0
3499,-0.08371133767264399,0.0
3500,0.2648833358974646,0.0
3501,4.0640500879731025,0.0
3502,6.574006178635127,0.0
3503,-1.1266906520740494,0.0
3504,-1.3643897275067793,0.0
3505,1.3890579284582745,0.0
3506,-0.7628664843702463,0.0
3507,0.2169538702730625,0.0
3508,-0.031858944122771585,0.0
3509,-0.0617781613724403,0.0
3510,-0.03241062666438347,0.0
3511,-0.10782505266969257,0.0
3512,-0.02758263830730432,0.0
3513,-0.06587644345435845,0.0
3514,-0.10430213803004887,0.0
3515,-0.11417941279089722,0.0
3516,-0.1031145023195326,0.0
3517,-0.1550524418400301,0.0
3518,-0.05635702330401549,0.0
3519,-0.13719115412039018,0.0
3520,0.38237271251438315,0.0
3521,4.075677182244439,0.0
3522,6.464816486810691,0.0
3523,-1.314220958188761,0.0
3524,-1.449038685175594,0.0
3525,1.3822055032375256,0.0
3526,-0.8435051401530841,0.0
3527,0.11896181665449151,0.0
3528,-0.08650218237804681,0.0
3529,-0.09669328145639747,0.0
3530,-0.15561440542492022,0.0
3531,-0.033497004358625515,0.0
3532,0.0379203001999604,0.0
3533,-0.001463783391055004,0.0
3534,-0.09138517294586398,0.0
3535,-0.09126030711301439,0.0
3536,-0.026402373327041886,0.0
3537,-0.09131104030024938,0.0
3538,-0.10905667316974008,0.0
3539,-0.14163246273175267,0.0
3540,0.32704513414876457,0.0
3541,4.060462927217026,0.0
3542,6.462779487691015,0.0
3543,-1.1766302761642065,0.0
3544,-1.4343628553985932,0.0
3545,1.3272296169042694,0.0
3546,-0.8682828118811441,0.0
3547,0.13497779194507686,0.0
3548,0.02021979807750031,0.0
3549,-0.10563645791789736,0.0
3550,-0.0290678858314911,0.0
3551,-0.07810646226052417,0.0
3552,-0.002060362468912773,0.0
3553,0.009257008123761658,0.0
3554,0.016307677150069033,0.0
3555,-0.1210674372212957,0.0
3556,0.0750857295001899,0.0
3557,-0.024091936234287813,0.0
3558,-0.029260807525536916,0.0
3559,-0.07107418847739483,0.0
3560,0.41624278108675694,0.0
3561,4.042978463795985,0.0
3562,6.462281374163386,0.0
3563,-1.2499106098159078,0.0
3564,-1.4493970274018204,0.0
3565,1.3264189709314367,0.0
3566,-0.9080558185349623,0.0
3567,0.303533587496683,0.0
3568,-0.10422835847687678,0.0
3569,0.046685038898215014,0.0
3570,-0.03578044207137177,0.0
3571,-0.047213701820112544,0.0
3572,0.03583761225620406,0.0
3573,0.010172563818560909,0.0
3574,-0.03305667007892124,0.0
3575,0.07293495431580224,0.0
3576,-0.015485916395350801,0.0
3577,-0.0033899973476830443,0.0
3578,0.0019358707278607033,0.0
3579,-0.0642719127470015,0.0
3580,0.433356258355706,0.0
3581,4.138229407192251,0.0
3582,6.4402926926898765,0.0
3583,-1.1927732443133696,0.0
3584,-1.3599131825294695,0.0
3585,1.4070428023995667,0.0
3586,-0.8993298375633656,0.0
3587,0.19208006383488757,0.0
3588,-0.09286537470248879,0.0
3589,-0.10022003593146087,0.0
3590,-0.09507450809017096,0.0
3591,-0.0691200765266781,0.0
3592,-0.06012227292056815,0.0
3593,-0.03429066456575952,0.0
3594,-0.05637214191211045,0.0
3595,-0.007874483559125109,0.0
3596,-0.03860627528527112,0.0
3597,-0.12754333503135007,0.0
3598,-0.008063251194898272,0.0
3599,-0.026683348395059113,0.0
3600,0.45241043297281347,0.0
3601,4.106923712222411,0.0
3602,6.512488550168225,0.0
3603,-1.332505009404694,0.0
3604,-1.3997066302043077,0.0
3605,1.339613989335794,0.0
3606,-0.7609454660527462,0.0
3607,0.23430992485497254,0.0
3608,-0.11558503521233628,0.0
3609,-0.06336547068463178,0.0
3610,-0.00636951725050572,0.0
3611,-0.06600265424591176,0.0
3612,-0.012498925135547768,0.0
3613,-0.009342947112371066,0.0
3614,-0.015094716920323164,0.0
3615,0.03985590372339003,0.0
3616,-0.020902590884009767,0.0
3617,0.0167465877747652,0.0
3618,0.018216573862752248,0.0
3619,-0.01391142623903151,0.0
3620,0.37465476112623347,0.0
3621,4.107130450849732,0.0
3622,6.580689800790173,0.0
3623,-1.2440402462401452,0.0
3624,-1.3221128820399168,0.0
3625,1.355676453858573,0.0
3626,-0.879455782801513,0.0
3627,0.3070890999927318,0.0
3628,0.04131449445886953,0.0
3629,0.013943902259155408,0.0
3630,0.01578419117128475,0.0
3631,0.005790123123773238,0.0
3632,0.07578953566089178,0.0
3633,-0.07706729235765769,0.0
3634,0.0576082586527618,0.0
3635,0.03112654829860827,0.0
3636,0.07382626440765937,0.0
3637,0.04022615296622096,0.0
3638,-0.0189126401811565,0.0
3639,-0.04198661638246465,0.0
3640,0.4266336256652129,0.0
3641,4.18733788269647,0.0
3642,6.501326997567471,0.0
3643,-1.2932840057197903,0.0
3644,-1.4341927765349431,0.0
3645,1.4442811641255084,0.0
3646,-0.7817864308049436,0.0
3647,0.23734147170068198,0.0
3648,0.0031575135553463148,0.0
3649,-0.03463099633780317,0.0
3650,-0.042218090638893126,0.0
3651,0.008982764311912287,0.0
3652,0.08899720868593114,0.0
3653,-0.042464356045351204,0.0
3654,-0.053140943851520316,0.0
3655,0.12435106422902903,0.0
3656,0.07296511463635956,0.0
3657,0.05232018859587079,0.0
3658,0.021738092935492996,0.0
3659,-0.03444194412719927,0.0
3660,0.4228584690170065,0.0
3661,4.1699635672297175,0.0
3662,6.5586842602361175,0.0
3663,-1.2169542283268022,0.0
3664,-1.2855221576126128,0.0
3665,1.4327808781078601,0.0
3666,-0.6848391000155224,0.0
3667,0.24995147375806887,0.0
3668,-0.06278755547547918,0.0
3669,0.07260331992108805,0.0
3670,0.08202988869336572,0.0
3671,0.04949195454777339,0.0
3672,0.00414597084032841,0.0
3673,0.06474202912205221,0.0
3674,-0.04114164039672649,0.0
3675,0.1058290628689679,0.0
3676,-0.008774667032609648,0.0
3677,-0.08893454461501396,0.0
3678,-0.0012649422457429171,0.0
3679,-0.08234080784015273,0.0
3680,0.37922874975197574,0.0
3681,4.1369831923932345,0.0
3682,6.556884825250797,0.0
3683,-1.263558200558956,0.0
3684,-1.3100671079034594,0.0
3685,1.384946132272805,0.0
3686,-0.763311055691167,0.0
3687,0.3405288535869704,0.0
3688,-0.03657138102061239,0.0
3689,0.183335102526138,0.0
3690,0.11458815962487098,0.0
3691,0.06425737818344762,0.0
3692,0.017963457928091987,0.0
3693,0.05930330364873876,0.0
3694,0.07903030321265435,0.0
3695,0.04859331444828339,0.0
3696,0.1380294004971985,0.0
3697,0.12709438426927558,0.0
3698,0.034133410299383805,0.0
3699,0.07077088016327769,0.0
3700,0.40695390875589404,0.0
3701,4.1901413341017,0.0
3702,6.534775433747467,0.0
3703,-1.186355152133663,0.0
3704,-1.2958069425701473,0.0
3705,1.517999085929727,0.0
3706,-0.7384628297207764,0.0
3707,0.3417422438450755,0.0
3708,0.08188066787364003,0.0
3709,0.010560860203709176,0.0
3710,0.04281478060254495,0.0
3711,0.031115542480069234,0.0
3712,0.03773102492975643,0.0
3713,-0.02295923930086108,0.0
3714,0.15350813077789915,0.0
3715,-0.05176603716450848,0.0
3716,0.026285973948020618,0.0
3717,0.0811791078577201,0.0
3718,0.06185238108344237,0.0
3719,0.0194640570785865,0.0
3720,0.5850699375366897,0.0
3721,4.2304156622074744,0.0
3722,6.680152674219185,0.0
3723,-1.154751178886108,0.0
3724,-1.265956035098217,0.0
3725,1.4562279265126914,0.0
3726,-0.7861838156265984,0.0
3727,0.16358558008931645,0.0
3728,0.03294095828012187,0.0
3729,-0.03552436392508166,0.0
3730,0.06521406939832988,0.0
3731,-0.02322714443946231,0.0
3732,0.07383989902169656,0.0
3733,0.0004102092126114787,0.0
3734,0.01869977418758799,0.0
3735,0.016352874045537945,0.0
3736,0.041713110865764465,0.0
3737,0.0349773850541213,0.0
3738,-0.08180274864468436,0.0
3739,0.08536274152800875,0.0
3740,0.388005752326216,0.0
3741,4.114806709324143,0.0
3742,6.573219765043185,0.0
3743,-1.191647521435677,0.0
3744,-1.3882972802925617,0.0
3745,1.5309119091809025,0.0
3746,-0.7667864096580799,0.0
3747,0.2230391497580706,0.0
3748,0.04887917285140787,0.0
3749,-0.06082563671180873,0.0
3750,-0.0004847034889134613,0.0
3751,0.02221739102846325,0.0
3752,0.04208308509633204,0.0
3753,0.043107365772378975,0.0
3754,-0.15240221030594103,0.0
3755,0.04321284018045091,0.0
3756,0.053295956064031896,0.0
3757,-0.00943068520458087,0.0
3758,-0.02548702509834195,0.0
3759,-0.15202439481035343,0.0
3760,0.4059846661967189,0.0
3761,4.2250121033205135,0.0
3762,6.566122995567451,0.0
3763,-1.2440388794549797,0.0
3764,-1.321067574580045,0.0
3765,1.3584733710057229,0.0
3766,-0.8569912209569749,0.0
3767,0.23176681583076486,0.0
3768,-0.02475663095639459,0.0
3769,-0.007436636273934168,0.0
3770,0.042953004525998977,0.0
3771,-0.05033813906581547,0.0
3772,0.03167153140989981,0.0
3773,-0.09099382539490825,0.0
3774,0.008138098209765045,0.0
3775,0.03686007169508842,0.0
3776,0.029892795280032965,0.0
3777,0.02852068788607553,0.0
3778,0.06602250888061624,0.0
3779,0.1148844603300952,0.0
3780,0.42618641603841234,0.0
3781,4.246383064956918,0.0
3782,6.601695959861554,0.0
3783,-1.1950350554593576,0.0
3784,-1.261718134614528,0.0
3785,1.4437613205017163,0.0
3786,-0.7548992979266332,0.0
3787,0.2737289266437582,0.0
3788,-0.026788980689291576,0.0
3789,0.04654943958104067,0.0
3790,-0.003861207521233409,0.0
3791,0.018168679739705523,0.0
3792,0.004696751447285909,0.0
3793,-0.00544714242404036,0.0
3794,0.011594270922214912,0.0
3795,-0.03852012494365608,0.0
3796,0.019429462622638165,0.0
3797,0.12291634657802074,0.0
3798,0.08919522826651974,0.0
3799,0.18767216937456083,0.0
3800,0.5705482556539193,0.0
3801,4.302395124325313,0.0
3802,6.606177509133438,0.0
3803,-1.0928660863204493,0.0
3804,-1.2532362099281105,0.0
3805,1.4353896324451645,0.0
3806,-0.5678809258353642,0.0
3807,0.3996941424075579,0.0
3808,-0.008515592908928352,0.0
3809,0.06287766671809478,0.0
3810,0.09772062972218733,0.0
3811,0.04575898535986143,0.0
3812,0.016907654603603828,0.0
3813,0.010159452779396706,0.0
3814,0.00832478321200096,0.0
3815,-0.019228084693125848,0.0
3816,0.03404785504654103,0.0
3817,0.12290671402768791,0.0
3818,0.0565845812073406,0.0
3819,0.04620203513362385,0.0
3820,0.4573664112490259,0.0
3821,4.213130780831859,0.0
3822,6.586008398477725,0.0
3823,-1.1889865359080205,0.0
3824,-1.3407409323806943,0.0
3825,1.4579728905421925,0.0
3826,-0.6868213304883733,0.0
3827,0.2744161301757064,0.0
3828,-0.011888635893414816,0.0
3829,-0.03488797458568401,0.0
3830,0.09958151892953002,0.0
3831,0.03468413703200588,0.0
3832,0.027482333863127165,0.0
3833,0.033812164843703134,0.0
3834,0.0810319429095663,0.0
3835,0.11427418239729137,0.0
3836,0.0640282704772774,0.0
3837,0.00855894628870043,0.0
3838,-0.0014783515172291928,0.0
3839,0.02998373685320288,0.0
3840,0.3614754560120005,0.0
3841,4.23546048174177,0.0
3842,6.581625764083108,0.0
3843,-1.2711740247579009,0.0
3844,-1.1902031811818132,0.0
3845,1.410335313864394,0.0
3846,-0.7026009596135333,0.0
3847,0.3238524089940498,0.0
3848,0.08940731669037232,0.0
3849,0.002456372643897753,0.0
3850,-0.008087093519294,0.0
3851,0.017297552208695742,0.0
3852,0.04427112664252835,0.0
3853,-0.023219749288890146,0.0
3854,0.0459368799916737,0.0
3855,0.08694469775513904,0.0
3856,0.06724670992378619,0.0
3857,0.027561031907538985,0.0
3858,0.014999765408420712,0.0
3859,-0.05604552713500141,0.0
3860,0.4209783230987615,0.0
3861,4.279195415515482,0.0
3862,6.655048167471614,0.0
3863,-1.2032761238229452,0.0
3864,-1.216573023892373,0.0
3865,1.4863698829059555,0.0
3866,-0.7210569447278816,0.0
3867,0.3470999858220952,0.0
3868,0.1002533806135559,0.0
3869,0.04896144691808909,0.0
3870,0.12701038683253513,0.0
3871,0.013247710049934046,0.0
3872,0.045153002616517834,0.0
3873,0.03706447628118977,0.0
3874,0.07653393237315473,0.0
3875,0.22463358505181136,0.0
3876,0.07367879869848457,0.0
3877,0.024116681817573763,0.0
3878,0.07147991166892285,0.0
3879,0.10783750593467029,0.0
3880,0.5267290568303234,0.0
3881,4.31117552650438,0.0
3882,6.546404008536387,0.0
3883,-1.2129686692055053,0.0
3884,-1.2349722272212096,0.0
3885,1.489421805479209,0.0
3886,-0.6831955681348832,0.0
3887,0.267428195932148,0.0
3888,0.015200464504167129,0.0
3889,0.06811014092250095,0.0
3890,0.029293497701096904,0.0
3891,0.05589702794430458,0.0
3892,0.07400178467759963,0.0
3893,0.18373141274310595,0.0
3894,0.057670760527246116,0.0
3895,0.14645590489588897,0.0
3896,0.12340300837051402,0.0
3897,0.04760546717791665,0.0
3898,0.026895830264023222,0.0
3899,0.04303518034030311,0.0
3900,0.4266000757456088,0.0
3901,4.189249577668982,0.0
3902,6.557391541512317,0.0
3903,-1.2498527984386227,0.0
3904,-1.220257675821643,0.0
3905,1.4353440282663097,0.0
3906,-0.7013714280014378,0.0
3907,0.3428038779076941,0.0
3908,0.06479601920678286,0.0
3909,0.047696239132620624,0.0
3910,0.070176232789532,0.0
3911,0.056307002241501945,0.0
3912,0.07470647053840776,0.0
3913,0.14619914059633848,0.0
3914,0.07813179528677597,0.0
3915,0.025878436104606467,0.0
3916,-0.03752244907979603,0.0
3917,0.0464097667344281,0.0
3918,0.1671789311213366,0.0
3919,-0.0488014678512356,0.0
3920,0.5882790475546746,0.0
3921,4.327679213812691,0.0
3922,6.6429706056084035,0.0
3923,-1.2330780844862652,0.0
3924,-1.167855938132003,0.0
3925,1.511668657053032,0.0
3926,-0.689854635978117,0.0
3927,0.20684038402387583,0.0
3928,0.08568471960631129,0.0
3929,0.08530391400460866,0.0
3930,0.05565820911366688,0.0
3931,0.03155828757025478,0.0
3932,0.05511489727924633,0.0
3933,0.11835816952434555,0.0
3934,0.09695415789737098,0.0
3935,0.008526619772508882,0.0
3936,0.03877700060091738,0.0
3937,0.08881425174654717,0.0
3938,0.02287558008934273,0.0
3939,-0.013959273518972963,0.0
3940,0.47348316355283687,0.0
3941,4.1965479334421625,0.0
3942,6.54399683265925,0.0
3943,-1.2423501673751782,0.0
3944,-1.3126919621564341,0.0
3945,1.4691327256847768,0.0
3946,-0.7690559826889898,0.0
3947,0.2598586520998761,0.0
3948,-0.07541224970232055,0.0
3949,-0.007891193376965783,0.0
3950,0.04046675087883379,0.0
3951,0.050311996911982765,0.0
3952,0.06768385510958287,0.0
3953,0.10824272357308315,0.0
3954,0.07588717966593832,0.0
3955,0.13121873207520046,0.0
3956,0.02938264961666416,0.0
3957,0.020673667107892348,0.0
3958,-0.021425751090728286,0.0
3959,0.07502872517014073,0.0
3960,0.49888587294615766,0.0
3961,4.314469136210784,0.0
3962,6.5878662398993315,0.0
3963,-1.243942593776875,0.0
3964,-1.1707740954110446,0.0
3965,1.453174379817881,0.0
3966,-0.7426808747097946,0.0
3967,0.3087600357354104,0.0
3968,0.03745679672130088,0.0
3969,0.0258749160499627,0.0
3970,0.06428632429391878,0.0
3971,0.07423334844673996,0.0
3972,-0.025562903955146894,0.0
3973,-0.03794160089758719,0.0
3974,-0.021048098911655214,0.0
3975,-0.07398245276617532,0.0
3976,-0.05967213252130041,0.0
3977,0.05930102209164304,0.0
3978,-0.0023224860855768532,0.0
3979,0.10946480366399938,0.0
3980,0.5550391199739007,0.0
3981,4.197276854051559,0.0
3982,6.545399145143916,0.0
3983,-1.1852801714812087,0.0
3984,-1.2573951568091368,0.0
3985,1.495390763015823,0.0
3986,-0.8250765854707854,0.0
3987,0.3687664388620901,0.0
3988,-0.022869404404181542,0.0
3989,0.0014802683766217354,0.0
3990,0.08751906383465757,0.0
3991,-0.028174480103993815,0.0
3992,0.014576584021936255,0.0
3993,0.10156231135196406,0.0
3994,0.05309395738703156,0.0
3995,0.06650054533508618,0.0
3996,0.06829694212155887,0.0
3997,-0.02588937784946343,0.0
3998,0.1091526063831943,0.0
3999,0.05609816774042782,0.0
4000,0.43887086131896597,0.0
4001,4.234165584043544,0.0
4002,6.47581122732311,0.0
4003,-1.3068478161623112,0.0
4004,-1.2582887353626382,0.0
4005,1.3967082247836398,0.0
4006,-0.8068879045522371,0.0
4007,0.33404591186742943,0.0
4008,0.05410643475330435,0.0
4009,0.0041818926897181545,0.0
4010,-0.08825372229770972,0.0
4011,0.016347834981318296,0.0
4012,0.010518764449203183,0.0
4013,0.045246098936658694,0.0
4014,0.07994647538971197,0.0
4015,0.08045351421675323,0.0
4016,0.04171862313516191,0.0
4017,0.065255286563177,0.0
4018,0.03532889479368421,0.0
4019,0.032282865857774116,0.0
4020,0.4511650461113948,0.0
4021,4.1592664102921235,0.0
4022,6.5764766170018305,0.0
4023,-1.3087419573188956,0.0
4024,-1.3210464332427103,0.0
4025,1.4161536321917894,0.0
4026,-0.887407882325154,0.0
4027,0.2525668685070402,0.0
4028,-0.031312022033076,0.0
4029,-0.0511835234231195,0.0
4030,-0.03418459390913842,0.0
4031,-0.08982830364594377,0.0
4032,0.08441424628618827,0.0
4033,-0.02134105556021042,0.0
4034,0.06725921412186517,0.0
4035,0.061137017787147384,0.0
4036,-0.011166415417703465,0.0
4037,0.10818905454735356,0.0
4038,-0.014963984610468252,0.0
4039,0.035908164248540486,0.0
4040,0.39716344767984546,0.0
4041,4.203010393843127,0.0
4042,6.3952534661498435,0.0
4043,-1.3440790636096764,0.0
4044,-1.3672542661964302,0.0
4045,1.2902966926512671,0.0
4046,-0.8450369365258998,0.0
4047,0.12087289802260057,0.0
4048,-0.00132964548647517,0.0
4049,-0.08293462344223688,0.0
4050,-0.05908061406089649,0.0
4051,0.032285355841709204,0.0
4052,0.014226383033563314,0.0
4053,-0.06199024655274002,0.0
4054,-0.18711701355723914,0.0
4055,0.09555132300264972,0.0
4056,-0.08539309541871806,0.0
4057,-0.025828641829192305,0.0
4058,0.03262687593625534,0.0
4059,-0.07746777252115408,0.0
4060,0.330918461636935,0.0
4061,4.180252843519855,0.0
4062,6.488957528688413,0.0
4063,-1.4271962467963226,0.0
4064,-1.1793435315626444,0.0
4065,1.4014177163358632,0.0
4066,-0.8155926796139763,0.0
4067,0.23462986175271963,0.0
4068,-0.06139061831781509,0.0
4069,-0.05202322860512036,0.0
4070,0.021823271837673727,0.0
4071,-0.007959410786782004,0.0
4072,-0.01728867449965764,0.0
4073,0.006869408773290115,0.0
4074,0.07472576429538648,0.0
4075,-0.019112680607028004,0.0
4076,0.021815784523375643,0.0
4077,0.06426215235280296,0.0
4078,-0.030277201101026573,0.0
4079,-0.016575586513496374,0.0
4080,0.34115995059575893,0.0
4081,4.183197730695175,0.0
4082,6.413296556905003,0.0
4083,-1.3524151964957125,0.0
4084,-1.2654673632422409,0.0
4085,1.3577363863045098,0.0
4086,-0.7888212782406964,0.0
4087,0.20132130592545228,0.0
4088,-0.016177174164319134,0.0
4089,-0.0641329490230173,0.0
4090,-0.0383279103991592,0.0
4091,-0.0030714940394899583,0.0
4092,0.05985919502423345,0.0
4093,-0.051686849986782364,0.0
4094,0.09708789999025091,0.0
4095,0.040451489041808425,0.0
4096,0.09600477749364518,0.0
4097,0.020635035822042066,0.0
4098,0.028637000038442342,0.0
4099,0.0240317878060485,0.0
4100,0.3649634001314803,0.0
4101,4.230491597797183,0.0
4102,6.5369416971815255,0.0
4103,-1.3313832021727403,0.0
4104,-1.3966789145911127,0.0
4105,1.2770915540693326,0.0
4106,-0.8387914151982117,0.0
4107,0.24337889971233262,0.0
4108,-0.00945498842439366,0.0
4109,0.03612416463807683,0.0
4110,-0.004012650936720092,0.0
4111,-0.0005737913153876367,0.0
4112,0.05648942654067467,0.0
4113,0.05352281112908949,0.0
4114,0.031944885954877725,0.0
4115,0.06695224708867366,0.0
4116,0.0007608593416316726,0.0
4117,0.014573707523497952,0.0
4118,0.11496763189085243,0.0
4119,-0.10155921820871269,0.0
4120,0.4360785535600281,0.0
4121,4.215748652925459,0.0
4122,6.4838673996638825,0.0
4123,-1.4486724035076457,0.0
4124,-1.2342011768501815,0.0
4125,1.2949341452223686,0.0
4126,-0.8909518218340637,0.0
4127,0.21316885924261048,0.0
4128,-0.01908980779729165,0.0
4129,0.004041236798868461,0.0
4130,-0.025544975296763632,0.0
4131,0.02286144719832088,0.0
4132,-0.014027773791605896,0.0
4133,-0.06654192632948214,0.0
4134,-0.03740888858716334,0.0
4135,-0.052918565458155015,0.0
4136,-0.08642579334929805,0.0
4137,-0.0048461817965333095,0.0
4138,-0.023523327338117107,0.0
4139,-0.020239129925022695,0.0
4140,0.4427677477902417,0.0
4141,4.166377369260854,0.0
4142,6.414492764573316,0.0
4143,-1.3597274314808725,0.0
4144,-1.2507527129229383,0.0
4145,1.4218595977546646,0.0
4146,-0.7248431468136813,0.0
4147,0.1839751330580573,0.0
4148,0.020784785377365902,0.0
