timestamp,value-0,is_anomaly
0,0.15099839646004914,0
1,4.5738241596623315,0
2,4.958868193889232,0
3,-2.926754308214652,0
4,1.407775867689955,0
5,-0.7494817553251456,0
6,0.31568740330570216,0
7,-0.07030124864310672,0
8,0.05179329520093322,0
9,-0.0728734350914019,0
10,-0.0162924700571686,0
11,-0.038582937841209544,0
12,-0.04580620810116673,0
13,-0.06898296030184295,0
14,0.02594646238447676,0
15,0.11529821787151626,0
16,-0.06394335569870366,0
17,0.9666046450302525,0
18,6.354961656590148,0
19,1.5026261337858526,0
20,-1.9927374526152433,0
21,1.2531511119524177,0
22,-0.7034303074443733,0
23,0.22006664506652532,0
24,-0.10799996910487569,0
25,0.014264673469756068,0
26,-0.05096280596250203,0
27,0.09459676220036821,0
28,-0.04518843245078464,0
29,-0.027602316147135472,0
30,-0.006291056360786468,0
31,-0.02486875903672032,0
32,0.007023938852009735,0
33,0.02247259951670792,0
34,2.541643360471153,0
35,6.907867959448713,0
36,-1.7775832646265153,0
37,0.12896702273612348,0
38,0.10641519960169517,0
39,-0.07397345037359387,0
40,-0.057773328126485904,0
41,-0.0602634327242093,0
42,-0.07195265829223377,0
43,-0.1322379719859361,0
44,0.03841343906233694,0
45,-0.1131748171699895,0
46,-0.0886567960492681,0
47,-0.11600784321604632,0
48,-0.013915107650267718,0
49,0.01637021637114027,0
50,0.2335997699291336,0
51,4.685366170423134,0
52,4.9978236226092,0
53,-3.1389041544192606,0
54,1.5452300334814992,0
55,-0.6216359558865018,0
56,0.25925359362288347,0
57,-0.15296564444072114,0
58,0.008808907667403762,0
59,-0.05837898646062318,0
60,0.028147696286227448,0
61,-0.04978856370749064,0
62,-0.005594477641936704,0
63,0.03479000252364702,0
64,-0.005882584397456928,0
65,0.11325662368196111,0
66,-0.005382042987451842,0
67,1.0509105286638039,0
68,6.420182669588373,0
69,1.4444670966279936,0
70,-1.9701516434316289,0
71,1.2061453630070278,0
72,-0.6910117152611287,0
73,0.3162681209772782,0
74,-0.07935462838428223,0
75,0.03498738086439859,0
76,-0.004685707652268356,0
77,-0.04905280482999899,0
78,0.04719766943552693,0
79,5.651130545550678e-05,0
80,-0.1332138685174571,0
81,-0.04056951976356154,0
82,0.024583378900626764,0
83,0.008122703709863541,0
84,2.5426611807539428,0
85,6.737355184992892,0
86,-1.8592122566369658,0
87,0.1911980191577977,0
88,0.11980113426156323,0
89,-0.14973245941800867,0
90,0.0009679315929859394,0
91,-0.04946387582375174,0
92,-0.06823928339010425,0
93,-0.010470422247600388,0
94,-0.057527492279612506,0
95,0.03624931389819523,0
96,-0.06279714394070868,0
97,-0.0035531509715404155,0
98,0.004087595798551622,0
99,-0.029634834972838604,0
100,0.23404569706230743,0
101,4.701305407598535,0
102,4.941818231006511,0
103,-2.919034672308826,0
104,1.510280303047647,0
105,-0.7159533719184787,0
106,0.3117895253449051,0
107,-0.10002220833263287,0
108,-0.026400019663124497,0
109,0.05745757340863997,0
110,-0.01970699107636599,0
111,-0.06438550703038716,0
112,0.022863196011944656,0
113,0.0005303936592588702,0
114,-0.056252152087058804,0
115,-0.021473273757146263,0
116,-0.05191582196284142,0
117,1.1170756260234582,0
118,6.459089381711047,0
119,1.5359526258278362,0
120,-1.9149308116840114,0
121,1.3134400292557709,0
122,-0.699256018972197,0
123,0.32879188450614744,0
124,-0.0482452623671613,0
125,0.05181845037092769,0
126,0.07693720233898788,0
127,0.07206207698800995,0
128,0.04322374592897856,0
129,0.1659659492239889,0
130,0.08847511026766972,0
131,-0.010458458215982194,0
132,0.02958547482210054,0
133,0.1174239819233813,0
134,2.561510805089096,0
135,6.89047963804214,0
136,-1.7522482289072998,0
137,0.2247220407764653,0
138,0.2548803068775779,0
139,-0.07578724385705846,0
140,0.036083547564276314,0
141,0.09346333506866387,0
142,0.02997703412385605,0
143,-0.01610805570970785,0
144,-0.022552865989692344,0
145,0.02747194866876428,0
146,0.029523636638021045,0
147,-0.00465715633439215,0
148,-0.04279008968131845,0
149,0.0017127561678298413,0
150,0.2474380480276823,0
151,4.555726776288433,0
152,4.991635406527681,0
153,-3.033995305258524,0
154,1.5501377205237137,0
155,-0.7447001687777098,0
156,0.3228695331919215,0
157,-0.10273371738396699,0
158,0.02412734374076176,0
159,-0.0018787776927176062,0
160,-0.03685537220120849,0
161,0.05879037663642818,0
162,0.11640043850144624,0
163,0.0498933838713531,0
164,0.07267180908170132,0
165,0.08296909699396432,0
166,0.08794360114015988,0
167,1.0447571047164692,0
168,6.5778424419461,0
169,1.4930132352885892,0
170,-1.8270020146046584,0
171,1.2895002699377083,0
172,-0.5631317155050317,0
173,0.2815512512131026,0
174,-0.07800883159268146,0
175,0.10485058694667697,0
176,0.053314865126873806,0
177,-0.023306792277597833,0
178,0.031841592901406306,0
179,0.025392739442056875,0
180,0.05706079890366184,0
181,-0.009856911056098407,0
182,0.01779983175067881,0
183,0.12394518528911407,0
184,2.5316104238585933,0
185,6.868784114775193,0
186,-1.8642973225321122,0
187,0.25657674266120767,0
188,0.27112070257426923,0
189,-0.09502568495584664,0
190,0.07476315604326778,0
191,0.03397201503428358,0
192,-0.0015420945784482276,0
193,0.08670065640358174,0
194,0.11805659655605444,0
195,0.0052493227766332515,0
196,0.08362951747800808,0
197,-0.05763330072450209,0
198,0.10376696735184426,0
199,0.0014607448177759788,0
200,0.3697977475621428,0
201,4.58367898457264,0
202,4.962008275132395,0
203,-3.0076635891215586,0
204,1.5693824884502527,0
205,-0.6158150291840497,0
206,0.29861060410404633,0
207,-0.09972588570251806,0
208,0.06980849045273801,0
209,0.09203508221044407,0
210,0.01291824878939174,0
211,0.09264311695931085,0
212,0.0642589750006241,0
213,0.0822269175320252,0
214,0.015790374156049856,0
215,0.05487104968183695,0
216,0.018699227539487148,0
217,1.070589373260261,0
218,6.572178854439965,0
219,1.5498422435983181,0
220,-1.8313977587612862,0
221,1.254210083555719,0
222,-0.6486262333809132,0
223,0.3051149095325216,0
224,-0.11931944408603781,0
225,0.07020500266700902,0
226,0.0226695380425851,0
227,0.07102231280511492,0
228,0.027567427635636445,0
229,-0.05541449725904265,0
230,-0.010959000483635403,0
231,-0.06924523008385416,0
232,0.04697489059927241,0
233,0.01742651482271906,0
234,2.5459125414619175,0
235,6.813885688454237,0
236,-1.8161075752930338,0
237,0.2080529433752295,0
238,0.20684500039081177,0
239,-0.03958766513926673,0
240,0.11664635636989953,0
241,0.005612963964034949,0
242,0.049141759821977084,0
243,0.010137431582869288,0
244,-0.04462980469695649,0
245,0.020699014831673582,0
246,-0.0896520119917472,0
247,0.019436681605909268,0
248,0.08180068758981816,0
249,-0.031071968789134437,0
250,0.2886481862532471,0
251,4.691600329572211,0
252,4.920312444549211,0
253,-3.0145945597541073,0
254,1.547170098932264,0
255,-0.7321635954695228,0
256,0.25460361817294175,0
257,-0.056928618926775275,0
258,-0.005872421354069325,0
259,-0.03961402987117725,0
260,0.034739602853846634,0
261,0.05436496193567768,0
262,0.049865236970255265,0
263,-0.015738204514685238,0
264,0.025648296606021276,0
265,0.0812695137468468,0
266,0.08480873868185207,0
267,1.0336231186158604,0
268,6.521248228068167,0
269,1.4429097604525942,0
270,-1.8492743812292958,0
271,1.2204172689172696,0
272,-0.5775089928658026,0
273,0.42539300275721004,0
274,-0.05923715281814123,0
275,0.07662113009642449,0
276,-0.003755371571167069,0
277,0.03787659370271524,0
278,0.05460085946037413,0
279,-0.01784932121370261,0
280,0.03319717829605678,0
281,-0.01841748590337337,0
282,-0.01681840256944593,0
283,0.08878330443015076,0
284,2.6206430838956556,0
285,6.871921983999759,0
286,-1.9681298462446284,0
287,0.26046395857566185,0
288,0.1037932765338591,0
289,-0.14427443623730596,0
290,0.036114932816329166,0
291,-0.013685463080893688,0
292,-0.08671131798440657,0
293,-0.004955388966941625,0
294,0.050055274043294545,0
295,0.0005919800420484574,0
296,0.05138882970465212,0
297,0.0680809436271445,0
298,-0.020354505550141948,0
299,-0.0535806998893441,0
300,0.25429743239470176,0
301,4.550302241823933,0
302,4.885129450818106,0
303,-3.047041195106635,0
304,1.4597928342692645,0
305,-0.7339459456217162,0
306,0.2941946239845077,0
307,-0.10093775840512909,0
308,0.10009316044451258,0
309,0.02562560723490092,0
310,-0.01819581643148723,0
311,-0.0037824814932948254,0
312,-0.027717413704847663,0
313,0.06953835567291321,0
314,-0.022339168200816096,0
315,0.04410704989083632,0
316,-0.049122619438086594,0
317,1.0777111519823757,0
318,6.461715775685253,0
319,1.41649001908079,0
320,-1.8376841728614441,0
321,1.256378242546796,0
322,-0.6196600304812956,0
323,0.28698206921315517,0
324,-0.14552693318431195,0
325,0.003894594081674592,0
326,-0.1459262244878497,0
327,0.07246889706062146,0
328,-0.05074385995137724,0
329,0.03313320179077139,0
330,-0.036736574082317494,0
331,-0.047848955775547486,0
332,-0.022192460627525737,0
333,0.07938066978414385,0
334,2.5638482359160966,0
335,6.7904211970608035,0
336,-1.9010918749324128,0
337,0.20131773342532874,0
338,-0.005323761879086938,0
339,-0.15657227457079526,0
340,-0.08662375693440544,0
341,-0.020363479164809663,0
342,-0.08788096991334018,0
343,-0.10247812849308172,0
344,0.014049519844011656,0
345,-0.14295125518283644,0
346,-0.12371846229581054,0
347,-0.02936995145379655,0
348,0.0042386252706373695,0
349,0.004398890572835091,0
350,0.24117590948893453,0
351,4.7073391843860275,0
352,4.750197667060572,0
353,-3.076883912074996,0
354,1.6410177913778181,0
355,-0.706553751517508,0
356,0.2948825880449662,0
357,-0.11495514350134306,0
358,-0.006613173004199627,0
359,0.0003193256063282659,0
360,0.09501430909034703,0
361,0.06271696804495247,0
362,-0.014582310740405835,0
363,-0.031808733243407245,0
364,0.057159456900079904,0
365,-0.02907470225812497,0
366,-0.0539256292237177,0
367,1.0290462106912446,0
368,6.546507083226934,0
369,1.3721402441678736,0
370,-1.788751877392906,0
371,1.1745278865639746,0
372,-0.6211121890244664,0
373,0.2592718939102649,0
374,-0.01981295056070774,0
375,0.007020006336940631,0
376,-0.03476175032274997,0
377,0.05008075832877508,0
378,0.006288160826171247,0
379,0.006410485518629546,0
380,-0.04153717390452385,0
381,-0.11103186369116114,0
382,0.0370249241480539,0
383,0.043764141444970255,0
384,2.664347102043299,0
385,6.8572945090777475,0
386,-1.938563491592778,0
387,0.34306545020913126,0
388,0.20758185611311974,0
389,-0.0995471958359775,0
390,0.03753583867502053,0
391,0.030569051714544795,0
392,-0.01999373781021721,0
393,0.06088469221185647,0
394,-0.024092218732965832,0
395,0.0672187963393862,0
396,0.01691722853405425,0
397,0.01982497644936198,0
398,0.030581134618928314,0
399,-0.07824459782931172,0
400,0.24853684076292948,0
401,4.795404698885668,0
402,4.9410816087754625,0
403,-2.96831647212115,0
404,1.5902477289900394,0
405,-0.7856481729414858,0
406,0.2933665794850221,0
407,-0.18777132968347135,0
408,0.11359632726063151,0
409,0.02205949295855693,0
410,-0.005358701286501512,0
411,0.03235449204035411,0
412,-0.03968371249066674,0
413,-0.06551306527225802,0
414,0.024355831523579376,0
415,0.02038113865481559,0
416,0.0037886833300384733,0
417,1.0956001321053568,0
418,6.478815542072813,0
419,1.2773371446551416,0
420,-1.8502156361284208,0
421,1.185657134094179,0
422,-0.667374134401858,0
423,0.30223388148692876,0
424,-0.05902442355482529,0
425,-0.09286647125318917,0
426,-0.009869495240361875,0
427,0.0092218854766341,0
428,0.0639498973259258,0
429,0.017972411193647942,0
430,0.03459503430753714,0
431,-0.03829818622721453,0
432,-0.15194380291158974,0
433,0.010696868253569178,0
434,2.668250038521665,0
435,6.867962745967685,0
436,-1.869977608687716,0
437,0.24624677699348757,0
438,0.11394034204605617,0
439,0.03497162589569447,0
440,-0.13019113646945324,0
441,-0.05469256576655308,0
442,-0.009294113466586517,0
443,0.0015028262270208072,0
444,-0.0004196371795122944,0
445,-0.10192603319292197,0
446,-0.04510616849811445,0
447,0.026337334292213792,0
448,-0.0274061568606776,0
449,-0.027993191063773456,0
450,0.26637609682924657,0
451,4.742408213358913,0
452,4.784405885070634,0
453,-3.018153667901094,0
454,1.5031900394021949,0
455,-0.7427145052750517,0
456,0.3177322950528396,0
457,-0.15540495520226835,0
458,0.04996511988209815,0
459,-0.08366568567969422,0
460,-0.03383305734301452,0
461,-0.06758216309059317,0
462,-0.09026677177340396,0
463,0.05736197415350542,0
464,-0.008490730670442412,0
465,0.026092540614540246,0
466,-0.016809280971261834,0
467,1.0197473734381122,0
468,6.474049225943438,0
469,1.2662622039132636,0
470,-1.903351472290778,0
471,1.088549186909177,0
472,-0.5694849721792741,0
473,0.33938395456582804,0
474,-0.0675416921084862,0
475,-0.042221505343196866,0
476,0.01421955039598806,0
477,0.024526229091331925,0
478,-0.06045670971456961,0
479,-0.010559579744171783,0
480,0.022728019016666174,0
481,-0.022373283609438382,0
482,-0.0028170769871328754,0
483,0.014922544163482012,0
484,2.6081806654280593,0
485,6.824388785653242,0
486,-1.868170580167386,0
487,0.32953586186859485,0
488,0.20721384251824698,0
489,-0.007477199644949046,0
490,0.07835276884843993,0
491,0.05881074069350733,0
492,0.08579466846354958,0
493,0.056634511996397886,0
494,-0.07476925948771151,0
495,0.06547647273096718,0
496,-0.005092872816924346,0
497,0.007483959591060494,0
498,0.03867863643837552,0
499,0.040316063250426755,0
500,0.2949055342308597,0
501,4.709096514573447,0
502,4.756784746028237,0
503,-3.08109189577947,0
504,1.5422800645419625,0
505,-0.7973220522757072,0
506,0.29591094195700546,0
507,-0.1657518885651193,0
508,-0.0780563798143823,0
509,-0.0975156112973321,0
510,0.002649732455950682,0
511,0.018950591470225847,0
512,0.06199974385950728,0
513,-0.07303994750203796,0
514,-0.12615725926818266,0
515,-0.016022471299907148,0
516,-0.04446580424594153,0
517,0.9825535287009919,0
518,6.42889182107761,0
519,1.3123948596316517,0
520,-1.8280002580011465,0
521,1.1501771114572006,0
522,-0.5491093337300292,0
523,0.2589904329092899,0
524,-0.042157802761873225,0
525,0.02455153107692422,0
526,0.004789899971907319,0
527,-0.06785133220924872,0
528,0.018123691302361668,0
529,-0.02150226204971087,0
530,0.05352508533160177,0
531,0.021603443712311876,0
532,0.009147659672841979,0
533,-0.017217292110814998,0
534,2.5249215410891552,0
535,6.678634646010212,0
536,-1.9601114101565216,0
537,0.24036775308949254,0
538,-0.029295741620249033,0
539,-0.10964641824341156,0
540,-0.1322609833730657,0
541,-0.1846053672125638,0
542,-0.12382939359786106,0
543,-0.08842377248451874,0
544,-0.08456218443098773,0
545,-0.13935466580149053,0
546,-0.11006211722098849,0
547,-0.030972126336433585,0
548,-0.09214146034801773,0
549,-0.11941867680845103,0
550,0.251980026271085,0
551,4.678546827794798,0
552,4.793621075957393,0
553,-3.072083477988736,0
554,1.4148963046015197,0
555,-0.7461288385807298,0
556,0.3260209135589611,0
557,-0.10335576743898417,0
558,0.04545720188994627,0
559,-0.08933350563082555,0
560,-0.0053706337801288015,0
561,-0.1360953503864557,0
562,-0.07240892404149472,0
563,-0.08109439397358671,0
564,-0.023365929660199652,0
565,-0.06940543867179398,0
566,-0.07465565781820882,0
567,1.0101797402462627,0
568,6.525923074009156,0
569,1.2617586814127502,0
570,-1.8390420883730747,0
571,1.07577724771008,0
572,-0.7041340500536537,0
573,0.1848633232082991,0
574,-0.08866300468000213,0
575,-0.05355846000613464,0
576,0.03926446375057764,0
577,-0.01726564282164946,0
578,-0.019757756895201088,0
579,0.006104804946075057,0
580,0.01048627450592399,0
581,-0.11031265480920416,0
582,0.0450261710988136,0
583,-0.0063930891352980725,0
584,2.583946374999628,0
585,6.771610034117109,0
586,-2.0114747944640103,0
587,0.2808685638093223,0
588,0.013800380799780642,0
589,-0.11631625303989,0
590,0.006845807153846747,0
591,-0.05150167848052832,0
592,-0.07127733921752781,0
593,-0.02973773903130225,0
594,-0.023645568224357302,0
595,-0.10015756842214613,0
596,-0.023446240688426656,0
597,0.08053810460435616,0
598,0.008166822575297505,0
599,-0.03777401842211934,0
600,0.26349719884234496,0
601,4.748274398546002,0
602,4.782065354100333,0
603,-3.072337224997236,0
604,1.5937606015249552,0
605,-0.7435917917439971,0
606,0.1395407555233854,0
607,-0.1764551035148754,0
608,-0.00019639048057312238,0
609,-0.046252438950922535,0
610,0.029915094117675636,0
611,-0.05742403696161373,0
612,-0.09539026453916238,0
613,-0.04646512409065573,0
614,-0.0017239479788086001,0
615,-0.012002247630099265,0
616,0.022681868820641445,0
617,1.0245054033821983,0
618,6.541807560196937,0
619,1.2809707278997422,0
620,-1.8192895699101568,0
621,1.1511401497273823,0
622,-0.6374523184571889,0
623,0.26070342288055814,0
624,-0.09972138895265072,0
625,-0.06716109082732344,0
626,-0.015309431238618047,0
627,-0.0893359097286199,0
628,-0.13179646651943108,0
629,-0.08771078873291259,0
630,-0.14397883832756575,0
631,-0.08763418213539606,0
632,-0.14960786193903008,0
633,0.04470696432759472,0
634,2.5591080125196584,0
635,6.77561833090089,0
636,-2.03693709087796,0
637,0.36655219702030584,0
638,0.10099112848272956,0
639,-0.1811934385445092,0
640,0.03720943582394079,0
641,-0.08089216963990074,0
642,-0.07780480111696661,0
643,-0.13081776807846587,0
644,-0.07905686608615489,0
645,0.019491313023084357,0
646,-0.027439328899223805,0
647,-0.07826104964744736,0
648,-0.05535942754925458,0
649,-0.05752889805643191,0
650,0.2984438734077251,0
651,4.681853796745556,0
652,4.616607440567695,0
653,-3.0933698606972175,0
654,1.4651570138867882,0
655,-0.7733541503184227,0
656,0.22024178098710895,0
657,-0.10362166596582051,0
658,-0.03045338210247192,0
659,0.00596428546125119,0
660,-0.031554430746639966,0
661,-0.019033030815209927,0
662,-0.020792005145137356,0
663,-0.024347510202101113,0
664,-0.08980935164434653,0
665,0.0035230933690756847,0
666,-0.04235116465887705,0
667,1.1085665599723995,0
668,6.5739651492378774,0
669,1.248937102583081,0
670,-1.7755949126106065,0
671,1.1540633579240094,0
672,-0.5935389331866511,0
673,0.21190532249121766,0
674,-0.10270563719005636,0
675,0.051338837116532574,0
676,-0.08846370345381604,0
677,-0.06407242504420421,0
678,-0.04623301283442962,0
679,-0.013962253848987636,0
680,0.05549293180792496,0
681,-0.02851833755511282,0
682,-0.040942525997046286,0
683,0.03744461951546029,0
684,2.7450321454487527,0
685,6.6432830297436505,0
686,-2.104102279262209,0
687,0.32542629696918507,0
688,0.039637033113737105,0
689,-0.1741040074693308,0
690,0.014233748399678697,0
691,0.023961259326063147,0
692,0.015204818469980542,0
693,0.05357310442286798,0
694,-0.029760222869597827,0
695,-0.008790869719514424,0
696,-0.0531782442146707,0
697,0.006854227920372656,0
698,-0.009386885069989564,0
699,-0.07977565221654662,0
700,0.40025709566890466,0
701,4.762030485844691,0
702,4.651599248278157,0
703,-3.0010465082801145,0
704,1.5293065241505621,0
705,-0.6577114270136859,0
706,0.2950376031229266,0
707,-0.08352936991747063,0
708,-0.007747482745692556,0
709,-0.04173132336866794,0
710,0.027889677016068412,0
711,-0.008141783942155117,0
712,0.0243475494702146,0
713,0.007904020358544523,0
714,-0.07630258894640118,0
715,-0.050092904902184425,0
716,0.001114719575491718,0
717,1.0256085475198775,0
718,6.557290573631477,0
719,1.1055764916716093,0
720,-1.7769315089797093,0
721,1.1644553338524397,0
722,-0.6102355082074709,0
723,0.2486100815082104,0
724,-0.020572051640025853,0
725,0.012759649396584347,0
726,0.045695842397315146,0
727,-0.0036873694198430035,0
728,0.001187761837371057,0
729,0.042342125924328636,0
730,0.0017463604206733457,0
731,-0.011123015237308048,0
732,-0.016557189612750073,0
733,0.03516137874344525,0
734,2.6989870823134448,0
735,6.841436428151674,0
736,-1.988294321762529,0
737,0.373022109790811,0
738,0.02068293203808067,0
739,-0.08178734886109917,0
740,0.04874461550953204,0
741,0.015590575890201026,0
742,0.07020070985016018,0
743,0.16471387039753668,0
744,0.06656423114933568,0
745,0.01739844823013193,0
746,-0.051931262612609205,0
747,0.003440442986152907,0
748,0.026261814103235387,0
749,0.019608451386209345,0
750,0.29944599202903127,0
751,4.86776128241642,0
752,4.727648423668728,0
753,-3.017611119442413,0
754,1.589160299931421,0
755,-0.8427509192849387,0
756,0.30869617216534967,0
757,0.003840129036093695,0
758,0.06899243997480228,0
759,-0.05721908257356532,0
760,0.13754975101545083,0
761,-0.07738499206504176,0
762,-0.060757166106839594,0
763,-0.024810322323652614,0
764,0.0964234047501811,0
765,-0.002976556995141419,0
766,-0.02782701350744224,0
767,1.1716300932724537,0
768,6.5107678556690844,0
769,1.2104923264559249,0
770,-1.6493664783325985,0
771,1.2364416467750188,0
772,-0.5466606031799737,0
773,0.3932578211142661,0
774,-0.08152483042639563,0
775,0.0404086919384276,0
776,-0.0505672802772506,0
777,-0.01571988738112287,0
778,0.004221473892373144,0
779,0.03007431587625884,0
780,-0.05957435476710791,0
781,0.08367714170922237,0
782,-0.02898407529580769,0
783,0.1323681015251128,0
784,2.6804927203721376,0
785,6.826017767988505,0
786,-2.107835460753217,0
787,0.4109623609131816,0
788,0.02935309246554464,0
789,-0.010550949690310896,0
790,0.027819645971661342,0
791,-0.08331650474574172,0
792,0.041806735133934604,0
793,-0.0433857341227763,0
794,0.04072036613019374,0
795,0.03786358373954768,0
796,-0.023457208672464563,0
797,-0.08810036279447198,0
798,-0.07736336212910425,0
799,0.06405200950483697,0
800,0.3583557807319791,0
801,4.799103810827523,0
802,4.665466875935518,0
803,-2.8922017621417306,0
804,1.650119700440738,0
805,-0.8482137229990327,0
806,0.33168612499926153,0
807,-0.18992589132940663,0
808,0.0790608887587641,0
809,-0.047599263815266815,0
810,0.049822965537932966,0
811,0.019849211432541564,0
812,0.025337231711605873,0
813,0.07247330593787175,0
814,-0.0199590647559812,0
815,0.048430132607634416,0
816,-0.0693829782224841,0
817,1.1284720002171513,0
818,6.68766378922346,0
819,1.173438075641761,0
820,-1.7359958360462513,0
821,1.1665935107508825,0
822,-0.602231283140371,0
823,0.2697265767293199,0
824,-0.11581750781595955,0
825,0.04163113513810815,0
826,0.07090983166089179,0
827,-0.04481516948795826,0
828,0.031500263457911945,0
829,0.16539379004480165,0
830,0.03953420472448414,0
831,-0.03793992341645275,0
832,-0.04304709150410673,0
833,0.12168370468670446,0
834,2.610336029787738,0
835,6.834832639199446,0
836,-2.073722822212054,0
837,0.4237358139647057,0
838,0.12800161547276234,0
839,0.02792385256059464,0
840,0.03444922001353248,0
841,0.02118327512818578,0
842,0.033962858972962764,0
843,-0.0551069436390605,0
844,0.08415082243666062,0
845,0.06796981761295184,0
846,0.08849583089385271,0
847,-0.03505687144614914,0
848,0.03425476996305651,0
849,0.02692973782935976,0
850,0.3109824530996143,0
851,4.765667929646441,0
852,4.745093520732742,0
853,-2.9997623100616924,0
854,1.4942282325629155,0
855,-0.7840860918668072,0
856,0.31758519899496,0
857,-0.1510698488205578,0
858,0.04350913168599452,0
859,-0.012949354710287235,0
860,0.02810171711900558,0
861,0.04404009751219001,0
862,-0.020678022203757744,0
863,-0.0075007020947780775,0
864,-0.01587659866275509,0
865,-0.027945033738179845,0
866,-0.02850785921580622,0
867,1.0666748168927975,0
868,6.582776526513348,0
869,1.1846341498829451,0
870,-1.7528253094095723,0
871,1.1165487648125298,0
872,-0.6213034872667491,0
873,0.21834345733979457,0
874,-0.08110520777114083,0
875,0.002291453801873261,0
876,-0.009888099119802339,0
877,-0.08691413445263567,0
878,-0.04956491411237942,0
879,-0.058505124998860965,0
880,-0.024674148048633913,0
881,0.07620906177439071,0
882,0.07122615784432507,0
883,0.1297880834706699,0
884,2.719142196276398,0
885,6.854800450220376,0
886,-2.153391370593031,0
887,0.3864456615770763,0
888,-0.0059774672210526625,0
889,-0.04647240679529345,0
890,0.05757049623210227,0
891,0.0533687000434437,0
892,0.009153042559530668,0
893,0.03616811791531932,0
894,0.013410762380546854,0
895,0.03535970116610613,0
896,0.11202501197244664,0
897,0.03221157090903978,0
898,-0.04452268247611446,0
899,0.16209048808338677,0
900,0.3799792423858341,0
901,4.867711955457971,0
902,4.6331097788625994,0
903,-2.968700878491671,0
904,1.6317321236586033,0
905,-0.7767371648842071,0
906,0.314558051570066,0
907,-0.1670032114386448,0
908,0.009397067591240083,0
909,0.022030124096070434,0
910,-0.053561558975290025,0
911,0.09203936985540914,0
912,0.01125700815478788,0
913,-0.09045054133561234,0
914,-0.052774909475505345,0
915,0.07929154661799262,0
916,-0.021887054681796442,0
917,1.215063560145133,0
918,6.598729803618129,0
919,1.0904012283788367,0
920,-1.663503486738704,0
921,1.1455233483956118,0
922,-0.6519440986962872,0
923,0.2531274922195946,0
924,-0.03902541167954694,0
925,0.05093127329364252,0
926,0.09607669718402724,0
927,0.06078656210326974,0
928,0.039092353175254765,0
929,0.15764107917396006,0
930,0.02657203545562872,0
931,0.012178045237082921,0
932,-0.03804748626842422,0
933,0.0204589244216273,0
934,2.7027662739353135,0
935,6.886192828744795,0
936,-1.9833759005995133,0
937,0.3786291709059609,0
938,0.009534388784254576,0
939,-0.030643625575115397,0
940,0.007897435350045051,0
941,-0.0381966892308027,0
942,0.027378700643336695,0
943,-0.004043341831289361,0
944,0.007537735977940605,0
945,-0.04734388549082066,0
946,0.03863226649172548,0
947,0.0080270642069791,0
948,0.034314965365033825,0
949,0.0646915317115459,0
950,0.3009905926245661,0
951,4.984660372501833,0
952,4.678754485544039,0
953,-2.95795668923894,0
954,1.6230806590738143,0
955,-0.7884138140438853,0
956,0.31722750688051543,0
957,-0.021882864237240604,0
958,0.0075867319897443,0
959,0.07541587624576661,0
960,0.07555606580658915,0
961,0.061613288996194386,0
962,0.012297285035143816,0
963,0.0998186589806663,0
964,-0.009350758370284061,0
965,-0.030439752422584513,0
966,0.11241930955634866,0
967,1.2025619819403193,0
968,6.661493249085444,0
969,1.151282952047723,0
970,-1.6604299520398236,0
971,1.1550286907334373,0
972,-0.47134393519394546,0
973,0.3257747354313049,0
974,-0.18069865277114278,0
975,0.07418880005160534,0
976,0.08346301654932914,0
977,-0.011177662964014602,0
978,0.04268954247194078,0
979,0.033082076256248746,0
980,0.09216750855722955,0
981,0.030790987017633196,0
982,0.15097446646837642,0
983,0.06858554640828973,0
984,2.8146797156436048,0
985,6.7689579366938375,0
986,-2.1264491204197715,0
987,0.5060380418416254,0
988,0.029307215723046266,0
989,0.007635980003716691,0
990,0.08467502830886875,0
991,0.05335951418371084,0
992,0.02838682914003915,0
993,-0.0008336966996772277,0
994,0.01867433534294226,0
995,0.06024010003574763,0
996,0.023065044252313833,0
997,0.07536679220054122,0
998,0.061858855225939584,0
999,0.01990457955235231,0
1000,0.3677338501178374,0
1001,4.817630603779222,0
1002,4.550275383512054,0
1003,-3.025275381823399,0
1004,1.503716191859316,0
1005,-0.7576444042017393,0
1006,0.27508772734474846,0
1007,-0.1136125386588929,0
1008,0.0817408317218549,0
1009,-0.011357949343055528,0
1010,-0.022560488410608266,0
1011,-0.0630184778626158,0
1012,-0.0380352723245627,0
1013,-0.0012750092651868314,0
1014,0.08877533988255264,0
1015,-0.0051076463711565824,0
1016,-0.033661448943194186,0
1017,1.1744659549949503,0
1018,6.580288350376275,0
1019,1.113567250627301,0
1020,-1.6927709620381717,0
1021,1.115756100430686,0
1022,-0.5521891515202002,0
1023,0.19772614940778194,0
1024,-0.07398016627640783,0
1025,-0.04505769887042915,0
1026,0.01609355977251781,0
1027,-0.003979825055598806,0
1028,-0.07892253903222429,0
1029,-0.09484874840663644,0
1030,0.023381013934661583,0
1031,-0.07916411360666342,0
1032,-0.08566103402121006,0
1033,0.04723948830747777,0
1034,2.6525831186849724,0
1035,6.764731942449268,0
1036,-2.1809570217698373,0
1037,0.3666966658901347,0
1038,-0.0015043042767293457,0
1039,0.05975588851343169,0
1040,-0.03810093820825909,0
1041,-0.06301512682404234,0
1042,-0.04989657794950713,0
1043,-0.08933074158076745,0
1044,-0.14552142914857508,0
1045,-0.0431621065895047,0
1046,-0.04693860111082645,0
1047,-0.06941764218693414,0
1048,-0.05255003412750507,0
1049,-0.09222495656079929,0
1050,0.29619307368070547,0
1051,4.8675949914789145,0
1052,4.664594543468374,0
1053,-3.0627248949461143,0
1054,1.6719184284558313,0
1055,-0.6818325058285925,0
1056,0.23631429836188475,0
1057,-0.081958769106447,0
1058,0.05045918248845195,0
1059,-0.11865449214570731,0
1060,0.010280285312070814,0
1061,-0.11039069153510245,0
1062,0.01794800309291409,0
1063,-0.0677943538282822,0
1064,0.03251673981508448,0
1065,-0.06742939450745351,0
1066,0.05542264412197336,0
1067,1.2251779687748512,0
1068,6.631142002642854,0
1069,1.008952353815405,0
1070,-1.6261314565808143,0
1071,1.0300803757175916,0
1072,-0.5287901202493263,0
1073,0.17199137944296727,0
1074,-0.046982595786535825,0
1075,0.020022597266890332,0
1076,0.020458699711521703,0
1077,0.06300534695745678,0
1078,-0.026696775211727426,0
1079,0.08423392826793276,0
1080,-0.08375661110513506,0
1081,-0.05820389732796126,0
1082,-0.03010699622327382,0
1083,0.05658457348620452,0
1084,2.7313200173158156,0
1085,6.794779354889198,0
1086,-2.03289680968223,0
1087,0.5012945016493342,0
1088,0.06285849587546595,0
1089,-0.003293141881070498,0
1090,0.026308052079732035,0
1091,0.06443761259453701,0
1092,0.013419539222905598,0
1093,0.02587722842530063,0
1094,0.04182190240069189,0
1095,0.05979264995743567,0
1096,-0.05055743992101608,0
1097,0.027744890309525507,0
1098,0.03952627238315608,0
1099,-0.0012465674830595581,0
1100,0.3376031933125738,0
1101,4.937923221165268,0
1102,4.594568649961702,0
1103,-3.028745795107914,0
1104,1.6019674576664242,0
1105,-0.7659730060831411,0
1106,0.22321822190855006,0
1107,-0.18837049205920653,0
1108,-0.05651633185533088,0
1109,-0.024124021785455252,0
1110,-0.03636679539474126,0
1111,-0.012698948295203728,0
1112,-0.19276180500979181,0
1113,0.006545351212392046,0
1114,-0.012193291287913705,0
1115,0.015918372462359328,0
1116,0.004700333096325688,0
1117,1.114910164640743,0
1118,6.67325001506909,0
1119,1.0095215063012815,0
1120,-1.6153834426542781,0
1121,1.0108614577833135,0
1122,-0.5847698418279983,0
1123,0.21364927944910547,0
1124,0.0401110557447972,0
1125,-0.06893836090134968,0
1126,-0.06841732098876685,0
1127,0.00436792744105205,0
1128,-0.055220024566118034,0
1129,-0.1088539034810071,0
1130,-0.07012857983469617,0
1131,-0.10329622183743375,0
1132,-0.09432036781871406,0
1133,-0.016099590447228786,0
1134,2.654149208292115,0
1135,6.676172225596865,0
1136,-2.0462297059816152,0
1137,0.37115435342056297,0
1138,-0.0023347460166348033,0
1139,-0.12907562672069872,0
1140,-0.09575469806609976,0
1141,0.07234787590294792,0
1142,-0.0016637853866626508,0
1143,-0.018886074767971772,0
1144,-0.0009913959726173156,0
1145,0.02682406650596931,0
1146,0.02660090780766401,0
1147,-0.07690158310964255,0
1148,0.06894329443276657,0
1149,-0.03808669220606767,0
1150,0.3455666689144773,0
1151,4.861443451127137,0
1152,4.442963968747118,0
1153,-3.0387247928622694,0
1154,1.4824052086625905,0
1155,-0.7772328879729854,0
1156,0.3590915175882569,0
1157,-0.17162406780567194,0
1158,-0.04835438458425938,0
1159,-0.045299695640148144,0
1160,0.035745867561181865,0
1161,0.039721379111903966,0
1162,-0.014013298070909869,0
1163,-0.06266563147797403,0
1164,-0.0005455021049882228,0
1165,-0.054213879123442964,0
1166,-0.02623101057392202,0
1167,1.0750981630248988,0
1168,6.5180662585575835,0
1169,0.913313455826683,0
1170,-1.728712967914093,0
1171,1.081631514877117,0
1172,-0.5478475696547069,0
1173,0.17579223158967555,0
1174,-0.13932254317718631,0
1175,-0.00904240650702462,0
1176,-0.10025166771627059,0
1177,-0.0175323548621808,0
1178,-0.021387097378615858,0
1179,-0.09664431070843141,0
1180,-0.004795201567978864,0
1181,-0.021484850998429467,0
1182,0.01778068822924571,0
1183,-0.08617408881648336,0
1184,2.729583990851424,0
1185,6.613710839683935,0
1186,-2.187085345542688,0
1187,0.478796336633096,0
1188,-0.08106428876893917,0
1189,-0.11123768160286063,0
1190,-0.07821461535830801,0
1191,-0.0011698240021066827,0
1192,-0.07626453303056288,0
1193,-0.06917009528418518,0
1194,-0.039484390112397016,0
1195,-0.060467410972075024,0
1196,-0.1247393324489035,0
1197,-0.11029586929957541,0
1198,-0.08704499082395316,0
1199,-0.11829119880257229,0
1200,0.23685780611134738,0
1201,4.7780835344876325,0
1202,4.4156671226870206,0
1203,-3.071310138169136,0
1204,1.5113298305137126,0
1205,-0.9021267668779313,0
1206,0.18708367408060927,0
1207,-0.1951903627764828,0
1208,-0.06936770721563637,0
1209,-0.08522315069020052,0
1210,0.02953293628198181,0
1211,-0.0767818327073764,0
1212,-0.03666663665143308,0
1213,-0.03844869560488452,0
1214,-0.053612544459572906,0
1215,-0.02386426510096032,0
1216,-0.14165637790897878,0
1217,1.0669834724101084,0
1218,6.572023594043541,0
1219,0.9430495896938093,0
1220,-1.6308229567470054,0
1221,1.1125828219380405,0
1222,-0.5635475984096352,0
1223,0.2251345264663918,0
1224,-0.08622438780509292,0
1225,0.09286059529611591,0
1226,-0.02372338153791207,0
1227,-0.019415780784927613,0
1228,-0.09577590927933896,0
1229,-0.06449802347754341,0
1230,-0.08058512376753801,0
1231,0.05540352518055181,0
1232,-0.04578772171143212,0
1233,0.005256455183905619,0
1234,2.741568074355632,0
1235,6.711317077483165,0
1236,-2.202069777596599,0
1237,0.4778345111755435,0
1238,0.018016892551432268,0
1239,0.007090588788438438,0
1240,0.047078412144692404,0
1241,0.0354902104344072,0
1242,0.07473598881920093,0
1243,-0.0651738937270203,0
1244,0.07797036440039842,0
1245,-0.023141555326192824,0
1246,-0.014910765745667713,0
1247,-0.053095808553958616,0
1248,-0.07091152334680029,0
1249,-0.0703304989648885,0
1250,0.3366059398573723,0
1251,4.876341806499819,0
1252,4.4685216367966,0
1253,-2.9268942933305926,0
1254,1.4928852167238027,0
1255,-0.790465278018817,0
1256,0.25469668646796273,0
1257,-0.10115088921999141,0
1258,0.018335028249260664,0
1259,0.004839435368940673,0
1260,-0.04288736971335909,0
1261,-0.02945989573110988,0
1262,-0.04637920579297508,0
1263,-0.11555226143730686,0
1264,-0.03754574195788918,0
1265,0.02164155949654853,0
1266,-0.015067315670132343,0
1267,1.2324115056429958,0
1268,6.649411909071502,0
1269,0.8949464070388217,0
1270,-1.654888623276737,0
1271,1.0390533878254267,0
1272,-0.6151025050016267,0
1273,0.16344856496274263,0
1274,-0.10492766270571635,0
1275,0.009297541672692117,0
1276,-0.030737339306206125,0
1277,-0.11510128059990461,0
1278,-0.037359555079193925,0
1279,-0.03551047288992233,0
1280,-0.05651749641700522,0
1281,-0.039732858754769486,0
1282,-0.04268721387258268,0
1283,-0.10010993432135679,0
1284,2.753447300623667,0
1285,6.721578119032758,0
1286,-2.2467773944606817,0
1287,0.460201664923649,0
1288,-0.10742373196509099,0
1289,-0.1283129890503365,0
1290,-0.03901285461050301,0
1291,-0.05134114851963743,0
1292,-0.018223274465934372,0
1293,-0.0488632959414722,0
1294,-0.034688783938770534,0
1295,-0.036785701649602334,0
1296,-0.13900970776817445,0
1297,-0.06597830388837742,0
1298,-0.08880854008473116,0
1299,-0.06079424621198952,0
1300,0.24008825117716565,0
1301,4.813032607771073,0
1302,4.432822923123539,0
1303,-3.0578182665115996,0
1304,1.5975746145645786,0
1305,-0.8272887962742921,0
1306,0.2620310941580595,0
1307,-0.07467043321911693,0
1308,0.04540016703822557,0
1309,0.004604318538028333,0
1310,0.018464111110630142,0
1311,0.02138993070931965,0
1312,-0.11541957329282093,0
1313,-0.09213076399500436,0
1314,-0.018315477566488193,0
1315,-0.017282483914054927,0
1316,-0.03294270903339101,0
1317,1.1426992398507825,0
1318,6.695667861295267,0
1319,0.806492649312453,0
1320,-1.6995500649997357,0
1321,1.0455805762016053,0
1322,-0.6093228263803548,0
1323,0.15121425328722504,0
1324,-0.021899682271690285,0
1325,-0.0171718104223284,0
1326,0.025588235291323987,0
1327,0.06561369004807727,0
1328,-0.028608005739283376,0
1329,0.03373249028098882,0
1330,0.13498402699272063,0
1331,0.016265973562490234,0
1332,-0.038476072684987,0
1333,0.07654463704239206,0
1334,2.779823775646303,0
1335,6.715182665986912,0
1336,-2.218963545640522,0
1337,0.5286129690998155,0
1338,-0.023465433474657765,0
1339,0.021762791677971953,0
1340,-0.06304842401047095,0
1341,0.013658555009957371,0
1342,-0.0713407973870452,0
1343,-0.06525558185248358,0
1344,-0.08135070403948366,0
1345,-0.057906103842956344,0
1346,-0.025893050584010383,0
1347,-0.022836081583521736,0
1348,-0.03395978799784165,0
1349,0.0018630898859883175,0
1350,0.3176037571754405,0
1351,4.94185440566871,0
1352,4.38259762908054,0
1353,-2.9521233150442368,0
1354,1.5754561795094835,0
1355,-0.8085002914479222,0
1356,0.2884261360107763,0
1357,-0.19293890891805526,0
1358,0.005637805948824841,0
1359,-0.010464759890965826,0
1360,-0.052990016689230465,0
1361,-0.06680336365235526,0
1362,0.005443054953254808,0
1363,0.013733211550917487,0
1364,-0.018032333771337127,0
1365,-0.007815084150626546,0
1366,-0.012258562430383407,0
1367,1.2894868268058373,0
1368,6.706816520598574,0
1369,0.955067128929829,0
1370,-1.6475521004952942,0
1371,1.0995647811562104,0
1372,-0.5567830766359844,0
1373,0.3271249095743525,0
1374,0.04071252871651554,0
1375,0.024677890818212832,0
1376,0.02576200924572065,0
1377,-0.04890769047650689,0
1378,-0.027361865183177812,0
1379,-0.01623828076835849,0
1380,-0.059102004312168194,0
1381,-0.032294087211271055,0
1382,0.015190227989473629,0
1383,-0.06615054507981513,0
1384,2.8043520159103834,0
1385,6.746860003375703,0
1386,-2.2195400254931954,0
1387,0.5138713375532397,0
1388,0.08635057400988899,0
1389,-0.05478282054774925,0
1390,-0.037187917190661876,0
1391,-0.07414836937036444,0
1392,-0.03720179793511325,0
1393,0.06172544846124069,0
1394,-0.06301186087232047,0
1395,-0.03729700085697767,0
1396,0.029418038517746974,0
1397,-0.04629871498673031,0
1398,-0.07582302058619654,0
1399,0.013065434156469918,0
1400,0.31865176245708476,0
1401,5.064219802559326,0
1402,4.375998951449766,0
1403,-2.9871986156337322,0
1404,1.6888909455543573,0
1405,-0.6734158906763303,0
1406,0.3301265725396672,0
1407,-0.11322708461887737,0
1408,-0.004501480724071281,0
1409,-0.11311776507737986,0
1410,-0.048700776980325704,0
1411,-0.11043881537494701,0
1412,0.0010924601284621263,0
1413,-0.06075967120204122,0
1414,0.016528739636089286,0
1415,-0.039256453794275094,0
1416,-0.021787929877563197,0
1417,1.165491743277919,0
1418,6.66920616243463,0
1419,0.9243607695801982,0
1420,-1.537176744037887,0
1421,1.1130916409623604,0
1422,-0.5452044361091379,0
1423,0.2248104047157443,0
1424,0.03940278433057513,0
1425,0.014714432035788413,0
1426,0.0026978574016368086,0
1427,-0.038542047992650014,0
1428,0.04356476685874749,0
1429,-0.03835038880068673,0
1430,0.034228012207522744,0
1431,-0.006407998016571142,0
1432,0.09043090996895116,0
1433,0.054451154215784545,0
1434,2.783794117267476,0
1435,6.730504756334606,0
1436,-2.2002794998199287,0
1437,0.6030879215019763,0
1438,-0.04772886903703163,0
1439,-0.0002131823300570504,0
1440,0.02351263302929637,0
1441,0.0006409552986511094,0
1442,0.054659046543930126,0
1443,0.0532302754933031,0
1444,0.0004218663365232085,0
1445,-0.047810096587460174,0
1446,0.06445524038587143,0
1447,0.06325785204819535,0
1448,0.051522635695007826,0
1449,-0.014596008315575105,0
1450,0.4161864816473065,0
1451,4.996005233318864,0
1452,4.377502062772359,0
1453,-2.893911819447231,0
1454,1.6056416730171097,0
1455,-0.7757457750021276,0
1456,0.25945621135276137,0
1457,-0.023995141673984158,0
1458,0.11708437086965152,0
1459,0.0261680828477357,0
1460,0.10513443587971916,0
1461,-0.04132890877495359,0
1462,0.1183562734501386,0
1463,-0.01542030447743635,0
1464,-0.0025339487960866353,0
1465,-0.03891682612108793,0
1466,0.05261664699591835,0
1467,1.2947124266707877,0
1468,6.721395869457789,0
1469,0.9417651328010068,0
1470,-1.4572579653133204,0
1471,1.1516437237260395,0
1472,-0.5020986179065835,0
1473,0.3540594787870619,0
1474,-0.0481461721461026,0
1475,-0.004775798773214039,0
1476,-0.06186221204247443,0
1477,0.008829577934508252,0
1478,-0.02448819811091704,0
1479,-0.04296644266564509,0
1480,-0.04333158398714306,0
1481,0.02543554190011004,0
1482,-0.00710835453726351,0
1483,0.03719996880187502,0
1484,2.792583846199415,0
1485,6.634704690675947,0
1486,-2.185802392608923,0
1487,0.4866560838834857,0
1488,-0.0865120410191336,0
1489,-0.0014938991499557491,0
1490,0.0151661132691491,0
1491,-0.041866516401839006,0
1492,0.03847975576466775,0
1493,0.09303555061528831,0
1494,-0.04771824682430705,0
1495,0.04070705256139239,0
1496,0.04928605125304053,0
1497,0.016909687871204827,0
1498,0.031920479060277694,0
1499,0.08778098450981914,0
1500,0.44295424474511247,0
1501,5.130500603184728,0
1502,4.464756747077159,0
1503,-2.932565082540126,0
1504,1.6365939588310878,0
1505,-0.7588882598856554,0
1506,0.36453850079892886,0
1507,-0.04779243172920282,0
1508,0.07885296939951625,0
1509,-0.005985511595501404,0
1510,0.10989128668417639,0
1511,0.018392682226084527,0
1512,0.023014979727483155,0
1513,0.09196405293196734,0
1514,-0.0038684034588401042,0
1515,-0.027795318767923224,0
1516,0.06486298058299578,0
1517,1.3167883984923137,0
1518,6.845017193091242,0
1519,0.8341719154757109,0
1520,-1.4783505641306165,0
1521,1.1480944549988432,0
1522,-0.517167631301345,0
1523,0.28201720128137797,0
1524,0.029925468461878185,0
1525,0.10087035630881735,0
1526,0.17511246817227097,0
1527,0.026694879071798912,0
1528,0.14204134371973584,0
1529,0.04362288185495997,0
1530,0.15668995740460867,0
1531,-0.01571352089287302,0
1532,0.03276465831188927,0
1533,0.12176923074059215,0
1534,3.0786276250973046,0
1535,6.797823983165207,0
1536,-2.2250901319135505,0
1537,0.6181429828453847,0
1538,0.05392972610239664,0
1539,0.04968231043077028,0
1540,0.0313636829524732,0
1541,0.007763494080050788,0
1542,0.011246311471430383,0
1543,0.0949073005284245,0
1544,0.09266219701028436,0
1545,0.05618206059204641,0
1546,-0.04338856201918972,0
1547,0.00783065086294989,0
1548,0.013470050998761514,0
1549,-0.009991720228619199,0
1550,0.39981031148667884,0
1551,4.975954943178672,0
1552,4.348187979104489,0
1553,-2.9430928377939303,0
1554,1.5768072978319112,0
1555,-0.6885123853719152,0
1556,0.2945072434845014,0
1557,-0.08349289608691608,0
1558,-0.02004102408095542,0
1559,-0.08924346738255351,0
1560,0.05322692781969199,0
1561,0.03143912563131209,0
1562,0.07707813721454473,0
1563,-0.001910405939677326,0
1564,0.10519130283129706,0
1565,0.0015278073519374852,0
1566,0.02855614763829528,0
1567,1.2368785152443753,0
1568,6.741202233887729,0
1569,0.8064613767539371,0
1570,-1.4377072250672664,0
1571,1.112539089016914,0
1572,-0.5498193151139812,0
1573,0.22391352102088777,0
1574,-0.09777248801384866,0
1575,0.00030846767344443887,0
1576,-0.03948677037372975,0
1577,0.029451215547709804,0
1578,0.1494395469342244,0
1579,0.04613362036448496,0
1580,-0.05875433923945357,0
1581,0.05479227389780754,0
1582,0.030663861765249725,0
1583,0.021297600208854656,0
1584,2.8334518285762544,0
1585,6.645752549020878,0
1586,-2.256157506291626,0
1587,0.5329726702627685,0
1588,-0.08887089860753133,0
1589,0.05135527433307262,0
1590,0.0409713855250641,0
1591,-0.02805596077899884,0
1592,0.05745472531280341,0
1593,-0.04518667878443599,0
1594,-0.08873610072001323,0
1595,-0.05762293412948122,0
1596,-0.16882491965034482,0
1597,-0.15451572327033372,0
1598,0.053781477766737584,0
1599,-0.14382870240304513,0
1600,0.2706453496827013,0
1601,4.95672597748113,0
1602,4.258679489360221,0
1603,-2.9202457332567966,0
1604,1.5639985400256358,0
1605,-0.9098875008275753,0
1606,0.2752704133804293,0
1607,-0.1815942624655525,0
1608,-0.029951300973347805,0
1609,0.01641819792665174,0
1610,0.025406153968300746,0
1611,-0.10238125723059353,0
1612,-0.03764593354724833,0
1613,-0.0520547621446469,0
1614,-0.0826250833312722,0
1615,-0.007202894465264105,0
1616,-0.051479895090432444,0
1617,1.133102572662199,0
1618,6.795406105829483,0
1619,0.7462751805712831,0
1620,-1.5003332159143283,0
1621,0.9947895108042889,0
1622,-0.5241016362501338,0
1623,0.19573067439659741,0
1624,-0.10489302970707957,0
1625,-0.031816156902147424,0
1626,-0.05479020057955584,0
1627,-0.04586503634567182,0
1628,0.04533050367635427,0
1629,0.030539080819923646,0
1630,-0.025350116907160963,0
1631,-0.01158304891351715,0
1632,-0.04055846382835769,0
1633,0.045547281495282144,0
1634,3.0191323055369343,0
1635,6.581471543748543,0
1636,-2.238563167838663,0
1637,0.495669170865493,0
1638,-0.029243623664316466,0
1639,0.01926561385389959,0
1640,-0.06132734865887782,0
1641,-0.04516024405204238,0
1642,-0.11621489039310555,0
1643,-0.035587571532889405,0
1644,-0.01692835459326059,0
1645,0.024067447847219738,0
1646,0.006425398689394695,0
1647,0.05607602582139004,0
1648,0.05489044268659869,0
1649,0.05168611379240386,0
1650,0.3982436605564611,0
1651,5.0157768777258465,0
1652,4.3704459189743226,0
1653,-2.912028703391455,0
1654,1.6455739274168342,0
1655,-0.7707802721483725,0
1656,0.2769208542467354,0
1657,-0.22725095153743954,0
1658,0.07278802863402078,0
1659,0.018525033095063898,0
1660,0.022799443376623582,0
1661,-0.05865599132670609,0
1662,-0.03701806460519427,0
1663,-0.04862302806527248,0
1664,-0.11691511057104148,0
1665,-0.061944506700563166,0
1666,-0.027366187554913053,0
1667,1.251413963255788,0
1668,6.755269275588348,0
1669,0.6840052361934732,0
1670,-1.4236119385372652,0
1671,1.0438358841351987,0
1672,-0.5563271051337236,0
1673,0.177929489731454,0
1674,-0.003257876364749529,0
1675,-0.1037657017941519,0
1676,0.03658995751927173,0
1677,-0.032942339705873395,0
1678,-0.060699081154901885,0
1679,-0.0912549941818819,0
1680,-0.07149099237127274,0
1681,-0.04042367871385301,0
1682,0.008304893799348248,0
1683,0.04862927005164028,0
1684,2.8982718720368625,0
1685,6.57183387375872,0
1686,-2.4144074380989102,0
1687,0.6313260107931203,0
1688,-0.021939068349237048,0
1689,-0.004495506236485838,0
1690,0.07951909755803413,0
1691,0.09776996473975352,0
1692,-0.04426269455904212,0
1693,-0.06166135669498743,0
1694,0.0016450043720362597,0
1695,-0.01654259699154785,0
1696,0.028824410696355086,0
1697,-0.053336964159764265,0
1698,-0.09025532139013531,0
1699,-0.11202206453794816,0
1700,0.365518459303714,0
1701,5.063661391610919,0
1702,4.258940806016138,0
1703,-3.012897342230046,0
1704,1.6541149638120396,0
1705,-0.8541355168659197,0
1706,0.38041312545007444,0
1707,-0.1108112518203744,0
1708,-0.02557277779720473,0
1709,0.0012968185461432469,0
1710,-0.04633752632237192,0
1711,-0.04487265173116858,0
1712,-0.06595338504441074,0
1713,0.08238107352803326,0
1714,0.030213125182955096,0
1715,-0.039318679076378794,0
1716,-0.11811696030210536,0
1717,1.3333377131376511,0
1718,6.7017535650881594,0
1719,0.7367596973942082,0
1720,-1.5461291624046019,0
1721,1.0318989320698895,0
1722,-0.5834767169580424,0
1723,0.23034816193813965,0
1724,-0.1352567412908915,0
1725,-0.013783308528795238,0
1726,-0.0219136592729707,0
1727,-0.06358004162150269,0
1728,-0.04812539795557272,0
1729,-0.14103919186483588,0
1730,-0.08587631278428152,0
1731,-0.06742936484081465,0
1732,-0.0675414705189208,0
1733,-0.036654731959394594,0
1734,2.8710557035423703,0
1735,6.5388426361155485,0
1736,-2.3479577308439574,0
1737,0.5454817268328033,0
1738,-0.19738836605283713,0
1739,-0.11425260507553432,0
1740,-0.05927137751507591,0
1741,-0.13839264168814025,0
1742,-0.05109677314978869,0
1743,-0.053628467199224525,0
1744,-0.009559198257123206,0
1745,0.021196654063358963,0
1746,-0.016115006850893232,0
1747,-0.0060232668314526665,0
1748,-0.006158734088890621,0
1749,0.011548730769486006,0
1750,0.34030116300008567,0
1751,5.027111603990206,0
1752,4.262594132820511,0
1753,-2.9260992445067178,0
1754,1.6862277300094746,0
1755,-0.8279733685126389,0
1756,0.27581995955078636,0
1757,-0.09410002932135675,0
1758,-0.036106009420709184,0
1759,0.002738810550891301,0
1760,0.017771119900418388,0
1761,-0.011650419491850611,0
1762,0.03243066915503215,0
1763,0.07125668439056305,0
1764,-0.0035324756990885945,0
1765,0.05120078738514701,0
1766,0.04327321254906725,0
1767,1.2337745468156418,0
1768,6.734626371875819,0
1769,0.7099211287204639,0
1770,-1.4483025713974622,0
1771,1.0118192817012372,0
1772,-0.5127973123935184,0
1773,0.2370951342942742,0
1774,-0.11530544637402221,0
1775,0.06895826252761884,0
1776,-0.07840021299288236,0
1777,0.06690815481849971,0
1778,-0.01775510363811943,0
1779,0.06645378514281491,0
1780,-0.0238204933244332,0
1781,0.04908550259295824,0
1782,0.031166980779995315,0
1783,-0.019361060601054927,0
1784,2.9667781988148967,0
1785,6.596907467966727,0
1786,-2.342947880952575,0
1787,0.6518576487167056,0
1788,-0.10791605180258595,0
1789,0.04374118317816107,0
1790,-0.03097697270168471,0
1791,-0.044572545687282805,0
1792,-0.02674928344002485,0
1793,-0.0865822159177741,0
1794,-0.0859361038001589,0
1795,-0.0026998499910248688,0
1796,0.10480358637970695,0
1797,-0.08006457503364475,0
1798,-0.07374580970948648,0
1799,0.05244372856517407,0
1800,0.3232021040764384,0
1801,4.996397123729427,0
1802,4.242272050369443,0
1803,-2.9666729453251284,0
1804,1.5077558104630144,0
1805,-0.867569643128459,0
1806,0.3107401350045159,0
1807,-0.16633717062274261,0
1808,-0.043311284337743144,0
1809,-0.07624541463575948,0
1810,-0.057099149603306205,0
1811,-0.07175914975521397,0
1812,-0.09907750525123135,0
1813,-0.09433155576039201,0
1814,-0.09531697904832659,0
1815,-0.009696460779156153,0
1816,-0.05817227073452113,0
1817,1.2769538844686414,0
1818,6.659742458830571,0
1819,0.6302483568736482,0
1820,-1.5323041473693177,0
1821,0.9459993137480428,0
1822,-0.50356784564298,0
1823,0.23870531855320085,0
1824,-0.09263402953112355,0
1825,-0.020708514609079545,0
1826,0.09318160894336402,0
1827,-0.03739749710154969,0
1828,0.04359842856729021,0
1829,0.09355801578626394,0
1830,0.09342344059122955,0
1831,-0.00862892629374204,0
1832,0.050757630366035845,0
1833,0.10400507343097944,0
1834,3.058346696554253,0
1835,6.616927348174121,0
1836,-2.3569026585208244,0
1837,0.5881798373748962,0
1838,-0.07492984247362247,0
1839,0.010248073160898067,0
1840,0.012506962776651871,0
1841,-0.024258525052812972,0
1842,0.013247843074113957,0
1843,-0.037923931914728634,0
1844,0.11459863030064554,0
1845,-0.055724981353990594,0
1846,-0.034702633552584475,0
1847,0.028130318106013134,0
1848,-0.0375422571249807,0
1849,0.023965163741563187,0
1850,0.3801110465843987,0
1851,5.060676026540602,0
1852,4.292173163165129,0
1853,-2.9586429208584324,0
1854,1.6030748283618579,0
1855,-0.7526131291077006,0
1856,0.26413463243776925,0
1857,-0.13332333420105322,0
1858,0.02630972671158422,0
1859,0.04932574843326777,0
1860,0.007233235933820117,0
1861,-0.040538390699741515,0
1862,0.03169092422833917,0
1863,0.06247094098806519,0
1864,0.05715155829961635,0
1865,-0.032612720213266916,0
1866,0.06295157170776376,0
1867,1.2868459886253307,0
1868,6.705123346000419,0
1869,0.6658946908372771,0
1870,-1.379212106707883,0
1871,1.0951359234140305,0
1872,-0.4816289750051166,0
1873,0.18134309703095008,0
1874,-0.0538969491666712,0
1875,0.015239405834475826,0
1876,-0.053460347006605985,0
1877,-0.038278223220673355,0
1878,-0.04940453995667568,0
1879,0.03966076021020698,0
1880,-0.009489596561203847,0
1881,0.03777249615477842,0
1882,0.022396986212713216,0
1883,0.06656661703546828,0
1884,2.9356970547740318,0
1885,6.609915606477908,0
1886,-2.366263547420095,0
1887,0.5955321564932661,0
1888,-0.09467773200157291,0
1889,0.06612290951919775,0
1890,0.03660689148742754,0
1891,0.05869236086934533,0
1892,0.03341292303220238,0
1893,0.08538985326109688,0
1894,0.0745367742372397,0
1895,0.027145886076463337,0
1896,0.03954650996517808,0
1897,-0.0098463423101166,0
1898,-0.013797443623681772,0
1899,0.04864351351888549,0
1900,0.40988273675505404,0
1901,5.190707307145287,0
1902,4.244234448365344,0
1903,-2.9337014170549502,0
1904,1.6240815345418755,0
1905,-0.7170127306209234,0
1906,0.27807165255180943,0
1907,-0.11689041362933927,0
1908,0.034860799374657886,0
1909,0.10219669695548277,0
1910,0.003148265766611702,0
1911,-0.0626924020169087,0
1912,-0.04810374079797937,0
1913,-0.03224589315273215,0
1914,-0.01093399768318824,0
1915,0.035393312113872956,0
1916,0.0040393572930469985,0
1917,1.277497592246559,0
1918,6.691273866793089,0
1919,0.6148537931159517,0
1920,-1.5510185508419951,0
1921,0.976291910661685,0
1922,-0.5608519422742534,0
1923,0.22685551347726216,0
1924,-0.07547446486866106,0
1925,-0.024692635253304437,0
1926,-0.07889855311636954,0
1927,-0.1130958331960032,0
1928,-0.024179906545015072,0
1929,0.016741764666597908,0
1930,0.02208600876963504,0
1931,0.08288797296455429,0
1932,0.010028185126885431,0
1933,0.12532032312516236,0
1934,2.8700834793547956,0
1935,6.582340777752766,0
1936,-2.3739248905531327,0
1937,0.610785802520385,0
1938,-0.1855263834163391,0
1939,0.052553472417610096,0
1940,-0.134035957257536,0
1941,-0.09359299376313565,0
1942,-0.0897150492254282,0
1943,0.006382874453837256,0
1944,-0.013712238630182047,0
1945,0.016663343074204175,0
1946,0.05160516690011152,0
1947,-0.0013142365466757358,0
1948,0.025233408316773787,0
1949,0.018267165785591673,0
1950,0.3344588756500255,0
1951,5.119971414014447,0
1952,4.151238052848174,0
1953,-2.9689540813956574,0
1954,1.5623870658378138,0
1955,-0.8420234645240551,0
1956,0.274215780664319,0
1957,-0.15713508657992847,0
1958,0.04153565972400088,0
1959,-0.05557982090506587,0
1960,-0.11976128893751217,0
1961,-0.0971657805025605,0
1962,-0.016090303290232,0
1963,-0.03512162018198229,0
1964,-0.15882026418177014,0
1965,-0.06592766081549985,0
1966,-0.07120364492226053,0
1967,1.1298131714010364,0
1968,6.621947569597743,0
1969,0.5474622437592415,0
1970,-1.518883930217104,0
1971,1.01061862895074,0
1972,-0.6092775867269232,0
1973,0.06887292412857446,0
1974,-0.10347109658931318,0
1975,-0.09411932610967211,0
1976,-0.0811341829117047,0
1977,-0.13976273771225745,0
1978,0.005306001155902393,0
1979,-0.10173254705600529,0
1980,-0.09551034892764515,0
1981,-0.17305107598140468,0
1982,-0.12212761768811473,0
1983,-0.040456331612930954,0
1984,2.907185861466419,0
1985,6.556651754818699,0
1986,-2.5273604718760767,0
1987,0.6860370452600183,0
1988,-0.21449273583675185,0
1989,-0.04608853935993036,0
1990,-0.07446782827479775,0
1991,-0.0351102272142099,0
1992,-0.047910910281806676,0
1993,-0.1595366890717467,0
1994,-0.15382711787581693,0
1995,-0.06240351473211245,0
1996,-0.035340389106824764,0
1997,-0.08958781142793008,0
1998,0.07874527778701704,0
1999,-0.03795301359965205,0
2000,0.34752633040867764,0
2001,5.129575146813234,0
2002,4.086176845940118,0
2003,-2.9931920070444105,0
2004,1.4283027108522883,0
2005,-0.9229131778879311,0
2006,0.21157466678806913,0
2007,-0.1716993094160414,0
2008,-0.14273040068672038,0
2009,-0.08925320138008472,0
2010,-0.11354306408956383,0
2011,-0.1103201925655188,0
2012,-0.15331425764894985,0
2013,-0.21430499807626546,0
2014,-0.165786273703199,0
2015,-0.06965930662864425,0
2016,-0.08553328971889314,0
2017,1.1762241458130258,0
2018,6.652206087130801,0
2019,0.5147116365000995,0
2020,-1.6512880253814997,0
2021,0.8222654080489488,0
2022,-0.685866729064757,0
2023,0.15154765462347475,0
2024,-0.13492457560878773,0
2025,-0.08704086900510634,0
2026,-0.14455394731250237,0
2027,-0.12725333486172738,0
2028,-0.05971192387164912,0
2029,-0.10197153068297339,0
2030,-0.08474784121177797,0
2031,-0.11082968127074823,0
2032,-0.13113953506788573,0
2033,-0.06816668829395339,0
2034,2.9960152392129094,0
2035,6.5559327435370465,0
2036,-2.485464882072259,0
2037,0.5108444891651407,0
2038,-0.19772925795848156,0
2039,-0.12340735534167326,0
2040,-0.14979510031244825,0
2041,-0.06038969469260825,0
2042,-0.044372764916553696,0
2043,-0.08090703488737477,0
2044,-0.12213307148210961,0
2045,-0.06592991022116543,0
2046,-0.11915351131000157,0
2047,-0.021464871522168083,0
2048,-0.22741885243242754,0
2049,-0.08319742144561794,0
2050,0.3047637953947303,0
2051,5.070625969256055,0
2052,4.130527769777082,0
2053,-2.8856438814282948,0
2054,1.4860034413770873,0
2055,-0.8032358757667057,0
2056,0.31046733155562223,0
2057,-0.21476600745698035,0
2058,0.09365506349175068,0
2059,-0.025984660141395235,0
2060,-0.05717731163798135,0
2061,0.016670227954191798,0
2062,-0.013100824911642245,0
2063,-0.05377216814976652,0
2064,-0.015743117886681562,0
2065,-0.0033059590255155175,0
2066,0.047493666779427963,0
2067,1.3156762499305328,0
2068,6.705611930509626,0
2069,0.5065870282289433,0
2070,-1.4166335973668087,0
2071,0.9563133535378929,0
2072,-0.5760727052908556,0
2073,0.20261147991959177,0
2074,-0.1724141209872814,0
2075,-0.0005517774573706238,0
2076,-0.11093436882018572,0
2077,-0.07066913676776569,0
2078,-0.04822396520111351,0
2079,-0.10129134718299679,0
2080,-0.009444902004417048,0
2081,-0.014308971714992118,0
2082,-0.12520311289668115,0
2083,-0.016645855243516423,0
2084,3.075447856293072,0
2085,6.6410127340437635,0
2086,-2.4232229977259103,0
2087,0.5781614976796782,0
2088,-0.17192716707645175,0
2089,-0.024486914858383883,0
2090,0.009930863537777723,0
2091,-0.024137576613165027,0
2092,0.012683161808726504,0
2093,0.022819390429308632,0
2094,-0.07911332281206636,0
2095,-0.0008597383944004989,0
2096,-0.0678370531130936,0
2097,-0.017039710825589176,0
2098,-0.03658981946470805,0
2099,-0.019654837926861995,0
2100,0.335512891248156,0
2101,5.079598488771576,0
2102,4.166658402403798,0
2103,-2.9508886567172947,0
2104,1.6314091278206697,0
2105,-0.7436246599710863,0
2106,0.29773654843807723,0
2107,-0.08291299019336927,0
2108,0.06094826113666335,0
2109,-0.005289692615285927,0
2110,0.03467020280898603,0
2111,-0.005686209902359057,0
2112,-0.03252146288432056,0
2113,0.04032351749798202,0
2114,-0.014147248288331978,0
2115,0.10944456455525517,0
2116,0.12271317841267805,0
2117,1.4215514892520715,0
2118,6.699015919805366,0
2119,0.4783628306485924,0
2120,-1.4276563987047006,0
2121,1.0195990342166148,0
2122,-0.4199805621693897,0
2123,0.25636803514161555,0
2124,0.03169313362477702,0
2125,0.05680970146799161,0
2126,0.01565227364437987,0
2127,0.039961886379969065,0
2128,0.10982866327551617,0
2129,0.031062901882946827,0
2130,0.11463190548749139,0
2131,0.00018311222756899753,0
2132,0.045167740263767846,0
2133,0.06597329297799565,0
2134,3.028881719504021,0
2135,6.670471518434299,0
2136,-2.3352947257497787,0
2137,0.7934355079433584,0
2138,-0.13122793031334412,0
2139,0.09605813531564265,0
2140,0.05765517597544305,0
2141,0.05858630412126807,0
2142,0.07980970327529816,0
2143,0.14721399139706715,0
2144,0.08660323677132878,0
2145,0.1600692076173764,0
2146,0.11003751592114003,0
2147,0.14785245591122245,0
2148,0.09523634764357201,0
2149,0.1070013178556187,0
2150,0.46314726360689185,0
2151,5.33969325396437,0
2152,4.262836866014455,0
2153,-2.7289848829728465,0
2154,1.6652611260493513,0
2155,-0.6928797306115584,0
2156,0.32438722954657573,0
2157,0.07857812068753546,0
2158,0.15398402214865375,0
2159,0.02389018675355574,0
2160,0.10684254829468248,0
2161,0.1648529113256032,0
2162,0.14570820242165175,0
2163,0.01986487587022047,0
2164,0.09069875955562416,0
2165,0.06128961988549527,0
2166,0.08794538244140414,0
2167,1.482140336284785,0
2168,6.8605702083304685,0
2169,0.6893714309015513,0
2170,-1.2850833979786829,0
2171,1.1414430015007868,0
2172,-0.5073134595378103,0
2173,0.24492161200649132,0
2174,0.12638816069509184,0
2175,0.20048421493820023,0
2176,0.11034503560206074,0
2177,0.09575516159160129,0
2178,0.0386666627646193,0
2179,0.1346717924588096,0
2180,0.024541974164582453,0
2181,0.08852020176743333,0
2182,0.16104768649625248,0
2183,0.20948951350461556,0
2184,3.280209746043073,0
2185,6.625286219844821,0
2186,-2.2406695546033237,0
2187,0.8592211659480757,0
2188,-0.03345093066543728,0
2189,0.1526623131724862,0
2190,0.04335262195669792,0
2191,0.1517115536551141,0
2192,0.21725708790543283,0
2193,0.08868107566112018,0
2194,0.11055769367286057,0
2195,0.10681313534327733,0
2196,0.0709805540734481,0
2197,0.1685187332134875,0
2198,0.1763258745627866,0
2199,0.10592197570080801,0
2200,0.5729977149975772,0
2201,5.3689417155545165,0
2202,4.369867937803424,0
2203,-2.772998634709414,0
2204,1.7338868123124227,0
2205,-0.6959916906457573,0
2206,0.4885495109545221,0
2207,0.06937352634695375,0
2208,0.2706367725791532,0
2209,0.18871375693654877,0
2210,0.24363522453134856,0
2211,0.20383483410440456,0
2212,0.20985164628495018,0
2213,0.20327315489863707,0
2214,0.20469566822512436,0
2215,0.18312803468846378,0
2216,0.15480307018345413,0
2217,1.4935160005463703,0
2218,6.975709883249192,0
2219,0.6197949869855635,0
2220,-1.2061577367572296,0
2221,1.0587087844208531,0
2222,-0.38716468846798263,0
2223,0.32448222320974607,0
2224,0.029824351323795004,0
2225,0.1242993831468802,0
2226,0.17295908195109844,0
2227,0.14873281904904098,0
2228,0.1854205650006977,0
2229,0.1602628976295123,0
2230,0.11975512230685854,0
2231,0.05758647005367609,0
2232,0.2633178920212619,0
2233,0.20634387706606794,0
2234,3.161570964708838,0
2235,6.7161868356928025,0
2236,-2.2914144573769004,0
2237,0.8731420996609865,0
2238,-0.026815053668329505,0
2239,0.1824603170846993,0
2240,0.0843765671939754,0
2241,0.11287164920933204,0
2242,0.11406924929467625,0
2243,0.07892687226557885,0
2244,0.008333859698501075,0
2245,0.06347105266394425,0
2246,0.158595124509888,0
2247,0.07732918884172094,0
2248,0.05599677800978972,0
2249,0.14819688624342517,0
2250,0.4758831658610446,0
2251,5.45315716584182,0
2252,4.244204079701689,0
2253,-2.865600301671861,0
2254,1.7548525985695762,0
2255,-0.6169808501419374,0
2256,0.4886504832009585,0
2257,0.04280298204329332,0
2258,0.13204195229345622,0
2259,0.1088359201245243,0
2260,0.18116942266848032,0
2261,0.10475756527610916,0
2262,0.1384954886878826,0
2263,0.07878224314926666,0
2264,0.1720626803845015,0
2265,0.15004535514541228,0
2266,0.12268263059469761,0
2267,1.4410021946729947,0
2268,6.9328327127677545,0
2269,0.5779185649816393,0
2270,-1.21119112638814,0
2271,1.1235310661964013,0
2272,-0.41347638688237914,0
2273,0.366612303657781,0
2274,0.06096721997518424,0
2275,0.15861613558318585,0
2276,0.21554825278282116,0
2277,0.14256054147304417,0
2278,0.0672305900574662,0
2279,0.028460910981015622,0
2280,0.06106663387492457,0
2281,0.034970865404259976,0
2282,0.07361810728050433,0
2283,0.0762269921339492,0
2284,3.1909816427995046,0
2285,6.629642083141557,0
2286,-2.3903012418703624,0
2287,0.8484121932620505,0
2288,-0.09227938332924429,0
2289,0.07110162387375807,0
2290,-0.05219284220039905,0
2291,0.03234639617792534,0
2292,0.10327256664968124,0
2293,0.17067394234148395,0
2294,-0.01048207177906111,0
2295,0.06896171254431849,0
2296,0.04067911168494435,0
2297,-0.010147002380004155,0
2298,0.03596816798753899,0
2299,0.03816732085297658,0
2300,0.5173823545828947,0
2301,5.3246768937995475,0
2302,4.109984507756913,0
2303,-2.8843403994881114,0
2304,1.6522347263434962,0
2305,-0.6865717932151204,0
2306,0.3746606248369078,0
2307,-0.07351866061382542,0
2308,0.052548672821851085,0
2309,0.10785907718902318,0
2310,0.06623299282202068,0
2311,0.08462874028641565,0
2312,0.1331305640282619,0
2313,0.02393870419340783,0
2314,0.117952567069977,0
2315,0.037737505396272096,0
2316,-0.006403711276188898,0
2317,1.4419367293963605,0
2318,6.843651684429228,0
2319,0.4929281047129435,0
2320,-1.2739537170608632,0
2321,1.0677742048588172,0
2322,-0.4562073767896998,0
2323,0.29598061500039746,0
2324,-0.05656493323469856,0
2325,0.0736601031758121,0
2326,-0.03370035838129536,0
2327,-0.0329626201393853,0
2328,0.059735922480521106,0
2329,0.07118619968794662,0
2330,-0.0080206212584168,0
2331,-0.008954352336602217,0
2332,0.034745519892231326,0
2333,0.16702316511335238,0
2334,3.1400391298534096,0
2335,6.683964054264853,0
2336,-2.38995211926274,0
2337,0.810130321654714,0
2338,-0.19972118861712468,0
2339,0.07028843283449364,0
2340,-0.01017359537207151,0
2341,0.04923037556157365,0
2342,-0.0037300510752676097,0
2343,0.06267411116738468,0
2344,0.08645350499663285,0
2345,0.025995732677973553,0
2346,-0.03909488732396609,0
2347,-0.019705275742855747,0
2348,0.00583288121361146,0
2349,-0.006777240993088449,0
2350,0.41611533908865694,0
2351,5.212261295374604,0
2352,4.130815026762722,0
2353,-2.862436153339068,0
2354,1.6690942737550991,0
2355,-0.7521937163931791,0
2356,0.32572148542073637,0
2357,-0.007824660836210223,0
2358,0.12652679334228434,0
2359,0.04035732037950446,0
2360,0.07345125282070784,0
2361,0.08488867631676088,0
2362,0.10770684554020751,0
2363,0.20609943516497312,0
2364,0.0711125381556896,0
2365,0.08925721610486684,0
2366,0.08962317135818973,0
2367,1.4206967963995096,0
2368,6.776712899721087,0
2369,0.46252980932128046,0
2370,-1.317946935949124,0
2371,0.8489190148125307,0
2372,-0.47081627321219166,0
2373,0.2049769388634826,0
2374,0.01996693667958513,0
2375,0.05328073469212244,0
2376,-0.09014002831520723,0
2377,-0.045669938871608376,0
2378,-0.03454183859262885,0
2379,-0.03600478083334111,0
2380,0.07500010353347561,0
2381,0.02336637138164767,0
2382,-0.05623528734896725,0
2383,0.11296825714197119,0
2384,3.112584528224696,0
2385,6.548454339599704,0
2386,-2.437132832813512,0
2387,0.8479330057953354,0
2388,-0.07019399698635251,0
2389,0.0059159364601310965,0
2390,-0.008802843933199125,0
2391,0.018057022041143195,0
2392,0.09293187866049238,0
2393,-0.03814609890041498,0
2394,-0.04222891027906994,0
2395,0.0741368947839129,0
2396,0.0876165485726491,0
2397,-0.01072239735298918,0
2398,-0.07181095810611142,0
2399,-0.0072467682247628895,0
2400,0.30312388093575077,0
2401,5.195440404719458,0
2402,3.9598281221550637,0
2403,-2.9030249426520087,0
2404,1.5799176871416847,0
2405,-0.8852799488636031,0
2406,0.33797927590901644,0
2407,-0.12855674301949177,0
2408,-0.04855924616137185,0
2409,-0.022355684537610627,0
2410,0.037258993728780665,0
2411,-0.02034251248547668,0
2412,0.002592908635625772,0
2413,0.0567671425982052,0
2414,0.07084527325615098,0
2415,-0.016892115922472136,0
2416,0.0667025758571232,0
2417,1.402019684472014,0
2418,6.843830602139682,0
2419,0.4267316582309311,0
2420,-1.295481123714944,0
2421,0.9497500320851344,0
2422,-0.43332101234785214,0
2423,0.19197486184676746,0
2424,0.01782388590335629,0
2425,0.004498722383490084,0
2426,-0.08983633498031389,0
2427,-0.010358390922241889,0
2428,0.004894338679770389,0
2429,0.10110476254573239,0
2430,-0.031910936631699055,0
2431,-0.0004548080092633363,0
2432,0.011299558034546167,0
2433,0.07492913836606345,0
2434,3.0849101166832043,0
2435,6.505194553059802,0
2436,-2.4095459153720404,0
2437,0.7512306371147498,0
2438,-0.22873070251256686,0
2439,0.0741511705810069,0
2440,-0.023931021378827022,0
2441,-0.05536472095353583,0
2442,-0.010173511042184676,0
2443,-0.05926450014013905,0
2444,0.0011197104268040304,0
2445,0.0407344609202167,0
2446,0.04873100884603656,0
2447,-0.015028886311101122,0
2448,0.00048312694058516657,0
2449,0.043284402935638455,0
2450,0.38069726106180163,0
2451,5.235654354813032,0
2452,4.065822565207516,0
2453,-2.850614988012476,0
2454,1.5294574798391354,0
2455,-0.8564310018133241,0
2456,0.2895240734796641,0
2457,-0.09144961404176268,0
2458,0.059542144729762644,0
2459,0.01595462179736839,0
2460,-0.08541319235013464,0
2461,-0.0261440022153715,0
2462,-0.11719786796950568,0
2463,0.007080601186782796,0
2464,-0.03762687085827323,0
2465,-0.058633475807413106,0
2466,-0.1351197963001061,0
2467,1.3018184696068007,0
2468,6.720338846232701,0
2469,0.2899680041571211,0
2470,-1.2765491112075422,0
2471,0.980778085594816,0
2472,-0.48060440694974166,0
2473,0.21203123249483702,0
2474,-0.08179641292648004,0
2475,-0.02622791879778385,0
2476,0.05167503236123538,0
2477,-0.11130816457093505,0
2478,0.0035905894972747855,0
2479,-0.037931555940853214,0
2480,-0.027868458246452284,0
2481,-0.05798213700210466,0
2482,0.0605209911688862,0
2483,0.15232527756436365,0
2484,3.1332132313244756,0
2485,6.4982956631839475,0
2486,-2.4430580166708546,0
2487,0.7446892930525112,0
2488,-0.1999146577582535,0
2489,0.07116712779507699,0
2490,-0.14315444006796466,0
2491,-0.018071736854390154,0
2492,0.030667583688866348,0
2493,-0.035084348053962024,0
2494,0.04772086465879965,0
2495,0.03247378435602786,0
2496,-0.02498910512466359,0
2497,-0.012974767534570815,0
2498,0.01586883910384161,0
2499,-0.07874234126582273,0
2500,0.3563502049288494,0
2501,5.306541848716851,0
2502,4.00579097472699,0
2503,-2.8978608527937815,0
2504,1.5425480091128023,0
2505,-0.7323908939299445,0
2506,0.3925425496852655,0
2507,-0.11118145397348954,0
2508,0.03526086927730086,0
2509,0.017115173902500874,0
2510,-0.08227793930811117,0
2511,0.02599815892089548,0
2512,0.03400707157961084,0
2513,-0.006565000041336465,0
2514,0.06294268964283703,0
2515,0.012876011181688993,0
2516,0.07323508745604367,0
2517,1.3626157111954067,0
2518,6.830637315440759,0
2519,0.23331440765630213,0
2520,-1.367913336897196,0
2521,0.8152188805027677,0
2522,-0.47073509167436195,0
2523,0.14951164547234935,0
2524,0.014644615974934445,0
2525,-0.03637107145521847,0
2526,0.018076079057936886,0
2527,0.050628108468714975,0
2528,0.08094512486620753,0
2529,0.08359914690867962,0
2530,-0.003747194815962234,0
2531,0.08490882495342639,0
2532,0.03391921651928938,0
2533,0.04781897554692003,0
2534,3.203400256411033,0
2535,6.410427627987344,0
2536,-2.5332125439773434,0
2537,0.8812788703406467,0
2538,-0.28993503542620574,0
2539,-0.013817882580136151,0
2540,-0.10318071173451121,0
2541,-0.016394248957236304,0
2542,0.06995323021949931,0
2543,-0.06315694581713643,0
2544,-0.010904647248956827,0
2545,-0.06076702064006134,0
2546,-0.028460418713997886,0
2547,-0.008422544178904801,0
2548,-0.06383202975137635,0
2549,0.0008352152332653442,0
2550,0.4477597222144536,0
2551,5.271356756643512,0
2552,3.948441093001148,0
2553,-2.945667125944409,0
2554,1.6090770856724375,0
2555,-0.7304077781543343,0
2556,0.42296555447243167,0
2557,0.0034001052208463,0
2558,0.15411462536741424,0
2559,0.09072956703978158,0
2560,0.09579719745647938,0
2561,0.07218197251471753,0
2562,-0.15048073915049964,0
2563,0.03038309611051871,0
2564,0.02291479983939181,0
2565,-0.00278504908481585,0
2566,-0.03763423162878515,0
2567,1.3845076131753717,0
2568,6.72243180648865,0
2569,0.22764646026404403,0
2570,-1.3081918858899289,0
2571,0.9490132664709973,0
2572,-0.5481267936269779,0
2573,0.22799571960034054,0
2574,-0.11850432553910752,0
2575,-0.05272342094589624,0
2576,-0.08145075748503326,0
2577,0.021025674324198773,0
2578,-0.02999001868244531,0
2579,-0.0050625295130046575,0
2580,-0.04028056381831116,0
2581,-0.0009828435331931556,0
2582,0.031995244645755996,0
2583,0.020174737576517596,0
2584,3.1295750510460447,0
2585,6.454200019699014,0
2586,-2.502350606886363,0
2587,0.8288413343206192,0
2588,-0.16456096490900732,0
2589,0.07642354669468915,0
2590,-0.08919267470946751,0
2591,-0.03334555736383097,0
2592,-0.052203556362622056,0
2593,0.059057441453644284,0
2594,0.013302878763727367,0
2595,-0.00900774869351556,0
2596,-0.0013189406426475092,0
2597,-0.014843984143428357,0
2598,0.009441309858457324,0
2599,0.10781351511687905,0
2600,0.48602942262605836,0
2601,5.350103100438359,0
2602,3.924915210745381,0
2603,-2.866887213446095,0
2604,1.6096126132879478,0
2605,-0.80837758633554,0
2606,0.3179128973347468,0
2607,-0.08330506355981386,0
2608,0.027186280305080218,0
2609,0.0713247797090165,0
2610,0.04207051235416143,0
2611,-0.036341561387536844,0
2612,0.11637701142996865,0
2613,0.03818385601164016,0
2614,0.0010346038287158427,0
2615,-0.027890029116994668,0
2616,0.04154947062834944,0
2617,1.455350606128686,0
2618,6.785875556476295,0
2619,0.3024723524672421,0
2620,-1.1955149076711205,0
2621,0.9356339968835881,0
2622,-0.5463874792817502,0
2623,0.21051321463126887,0
2624,-0.00697172060651563,0
2625,0.03191587087214881,0
2626,0.040939560696097874,0
2627,0.10723687479708943,0
2628,0.018513527396754055,0
2629,0.06602322588543441,0
2630,-0.0013777771460130213,0
2631,0.04151605042125213,0
2632,0.1710769169284066,0
2633,0.1261670579091414,0
2634,3.2101152837642886,0
2635,6.510645461893347,0
2636,-2.4816721742056305,0
2637,0.8327879915246643,0
2638,-0.22948519974825574,0
2639,0.05858971181450996,0
2640,0.021410948279837756,0
2641,0.057345361251701296,0
2642,0.08734963851100017,0
2643,0.053741220257522225,0
2644,0.004055501561709788,0
2645,-0.0021509544513495654,0
2646,-0.010142414201488044,0
2647,-0.0179443066653987,0
2648,-0.005072671797801969,0
2649,-0.030598213782362382,0
2650,0.43954269561048775,0
2651,5.334258662901409,0
2652,3.871888589320682,0
2653,-2.8424844366727022,0
2654,1.6173431769248212,0
2655,-0.8190226295852852,0
2656,0.4521284893848089,0
2657,-0.13176865380913305,0
2658,0.09540961201559416,0
2659,0.019876475716643173,0
2660,0.10074736927602257,0
2661,0.049723365588228444,0
2662,0.06353731752737217,0
2663,0.04273869195952702,0
2664,0.058281673671595556,0
2665,0.10884933153949598,0
2666,0.13032816069040581,0
2667,1.4611149604564337,0
2668,6.867161656051859,0
2669,0.27866496128063944,0
2670,-1.2225917685481988,0
2671,0.9397572527729284,0
2672,-0.45980722402463603,0
2673,0.25277739731222376,0
2674,-0.061319007044857717,0
2675,0.039705638860139,0
2676,-0.04896299450826497,0
2677,-0.016445737056086044,0
2678,0.005249285652188693,0
2679,0.055049362896144774,0
2680,0.1567392525834949,0
2681,0.03933929117261549,0
2682,-0.01299264323658519,0
2683,-0.011031890189845628,0
2684,3.1900166685212334,0
2685,6.447131471605505,0
2686,-2.532394031962176,0
2687,0.8441147273388643,0
2688,-0.1997287830851885,0
2689,0.12390038368068579,0
2690,0.014546538053272086,0
2691,0.10222362700145421,0
2692,0.17302398259513152,0
2693,0.1041725477142262,0
2694,0.11474354170712317,0
2695,0.1057078105814317,0
2696,0.045872962092850855,0
2697,0.10630169608442941,0
2698,0.02510004361494502,0
2699,0.10657816434384301,0
2700,0.5433509294868513,0
2701,5.30880976520636,0
2702,3.93197370607677,0
2703,-2.8772779506967687,0
2704,1.4844009860550822,0
2705,-0.8126719032239548,0
2706,0.3510157816741334,0
2707,-0.16647828139346993,0
2708,0.11495793278098501,0
2709,-0.013401167152282945,0
2710,0.004659616628522323,0
2711,-0.03125204938717615,0
2712,0.08665547060133807,0
2713,-0.009670293218170874,0
2714,0.05422067465876197,0
2715,0.03290390997668306,0
2716,0.034805121901440986,0
2717,1.378042871695338,0
2718,6.819072992333525,0
2719,0.2551314226567631,0
2720,-1.1722654571739035,0
2721,0.9312294139918389,0
2722,-0.43601703877435244,0
2723,0.3763993082959691,0
2724,0.08233855517379945,0
2725,0.10744381463615367,0
2726,-0.002006588918957726,0
2727,0.0655964266887519,0
2728,0.02242400483789127,0
2729,0.016828798572767593,0
2730,0.016115897706836517,0
2731,0.13045870384588878,0
2732,0.04372600681263336,0
2733,0.10121920267458241,0
2734,3.2896038497184983,0
2735,6.434594276837424,0
2736,-2.5082605639480513,0
2737,0.9083297120430422,0
2738,-0.14551833401336298,0
2739,0.2030134183393187,0
2740,0.009591018937869913,0
2741,0.13606992098873907,0
2742,0.06725721372261792,0
2743,0.059180724949443764,0
2744,0.10479124081668298,0
2745,0.036598936541592596,0
2746,0.08633667517858433,0
2747,0.009107594252590834,0
2748,0.09190585034978632,0
2749,0.030531479109426888,0
2750,0.512148809337489,0
2751,5.423448555461416,0
2752,3.923557659517206,0
2753,-2.7544548484419127,0
2754,1.5539626770731623,0
2755,-0.7502006630109048,0
2756,0.396238496817572,0
2757,-0.13974112107253323,0
2758,0.02557990766579043,0
2759,-0.08705562561771157,0
2760,0.00815833022122968,0
2761,0.08627717494378198,0
2762,0.039580049081893345,0
2763,-0.003995518853569973,0
2764,-0.02060732582877453,0
2765,0.0359261578276776,0
2766,-0.07130409076672316,0
2767,1.473838373788559,0
2768,6.872658742352297,0
2769,0.31641137512253786,0
2770,-1.1580765801909834,0
2771,0.8821721092445302,0
2772,-0.39957689080288306,0
2773,0.2320082366090979,0
2774,-0.03329339279788188,0
2775,0.0736415054289461,0
2776,-0.006762382396927835,0
2777,0.10335310321714611,0
2778,0.041867273709213296,0
2779,0.09129209053418713,0
2780,0.03963683020982367,0
2781,0.03358558307001446,0
2782,0.04348569907432233,0
2783,0.170198267347428,0
2784,3.30431470638214,0
2785,6.432463450123337,0
2786,-2.5220988037732766,0
2787,0.8409204354730418,0
2788,-0.22386965995618946,0
2789,0.18693714918136484,0
2790,-0.06992941761658177,0
2791,0.055269429824550326,0
2792,0.03977285161888082,0
2793,0.07493746685030642,0
2794,0.03014049364079869,0
2795,0.03759691453896766,0
2796,0.06269992013731068,0
2797,0.0008413245041204651,0
2798,0.031575796196916486,0
2799,0.0735708208926179,0
2800,0.5548734394405238,0
2801,5.3210450397661,0
2802,3.8865768193564896,0
2803,-2.866946169579682,0
2804,1.5933183785506422,0
2805,-0.680676828811219,0
2806,0.3993081757955324,0
2807,-0.18617058126119113,0
2808,0.02931151193952647,0
2809,0.08651150691188428,0
2810,0.10069155478019404,0
2811,0.0496363531205554,0
2812,0.002557990071147237,0
2813,0.04173739123598979,0
2814,0.04385724676332462,0
2815,0.08528515498247784,0
2816,-0.035765208803375526,0
2817,1.4636790444130796,0
2818,6.862725688476344,0
2819,0.2138158202626439,0
2820,-1.1089804308445828,0
2821,0.8750219168447584,0
2822,-0.42946092984194584,0
2823,0.16580537248023092,0
2824,-0.014914306663691236,0
2825,-0.013729337517804648,0
2826,-0.03566140884103865,0
2827,-0.023477716805935148,0
2828,0.011784190417397405,0
2829,0.10462925641553669,0
2830,0.03572050245591676,0
2831,0.01734016310410299,0
2832,0.01855382427143952,0
2833,0.08292986781955192,0
2834,3.202985717811405,0
2835,6.492027922927501,0
2836,-2.536537821486036,0
2837,0.9692869269569105,0
2838,-0.2024362697896155,0
2839,0.1388468703789742,0
2840,-0.051210937356621626,0
2841,0.05685805138956317,0
2842,0.06311481958744045,0
2843,0.05000650517651556,0
2844,0.025759055372471737,0
2845,0.016713127333861228,0
2846,0.04160411654166512,0
2847,-0.07026447026874996,0
2848,0.012877199655787496,0
2849,0.0938715153291125,0
2850,0.6109229731898728,0
2851,5.325958248773036,0
2852,3.8345701213688086,0
2853,-2.7590833492347677,0
2854,1.619416985778583,0
2855,-0.6837081907524198,0
2856,0.40736632967768904,0
2857,-0.11013467583697327,0
2858,0.07993521169588114,0
2859,-0.01663187439910907,0
2860,-0.04660567923202648,0
2861,-0.007343025879273015,0
2862,-0.0422318617610844,0
2863,-0.015804480107437752,0
2864,0.005218865485701531,0
2865,0.05245115550764154,0
2866,0.0240475703066709,0
2867,1.5888244401405416,0
2868,6.838233153750011,0
2869,0.11338193102533711,0
2870,-1.1751094362637657,0
2871,0.9314103913926913,0
2872,-0.45836278781703016,0
2873,0.15411755736634863,0
2874,-0.01077251880443996,0
2875,-0.026471812367318815,0
2876,0.06632677000909332,0
2877,-0.009342544550036337,0
2878,-0.01977958308195106,0
2879,-0.005400356479187428,0
2880,0.03985182925467072,0
2881,-0.026872242095684725,0
2882,0.05679296949860589,0
2883,0.1771963874511755,0
2884,3.2824456514718223,0
2885,6.4855046740472035,0
2886,-2.517316727025324,0
2887,0.857893572081748,0
2888,-0.3018390131859498,0
2889,0.13060512587185172,0
2890,-0.07443065149622258,0
2891,0.09566288337489656,0
2892,0.05240062438211702,0
2893,-0.0916924001523976,0
2894,0.044168576324586026,0
2895,-0.005617767651508735,0
2896,-0.07895563053864556,0
2897,0.035456980318033196,0
2898,-0.05226384016406204,0
2899,0.05045415223503146,0
2900,0.45945215783993326,0
2901,5.4170507189511365,0
2902,3.8676125043836778,0
2903,-2.9194916263065114,0
2904,1.5562441114286638,0
2905,-0.7612125523568644,0
2906,0.2989252652067003,0
2907,-0.06385729237177684,0
2908,0.07076828199882945,0
2909,0.019980694321356976,0
2910,-0.08552372416618345,0
2911,-0.09766965737758353,0
2912,0.09062399714605841,0
2913,-0.09046937709547784,0
2914,0.04514691558528662,0
2915,-0.026409748182872637,0
2916,-0.0036838035645910803,0
2917,1.4171080154600812,0
2918,6.8363274414969615,0
2919,0.20252299561553105,0
2920,-1.171344364412698,0
2921,0.9329958770833549,0
2922,-0.40356977836218494,0
2923,0.23630199110661151,0
2924,-0.03913667592966984,0
2925,0.009132553170084413,0
2926,0.03414531069310163,0
2927,0.006627206386955839,0
2928,0.0539281009517093,0
2929,0.13375494753680456,0
2930,0.058535614233988224,0
2931,0.06776675698582338,0
2932,0.03209475319586483,0
2933,0.2446693784632213,0
2934,3.384436743739313,0
2935,6.56702890725573,0
2936,-2.424266682237577,0
2937,1.035076610586797,0
2938,-0.2507072958466614,0
2939,0.11983383974217127,0
2940,-0.013587725538237463,0
2941,0.0039492234181903105,0
2942,0.06644593361077464,0
2943,0.04072706680455894,0
2944,-0.08746070192713629,0
2945,-0.0021700217422749397,0
2946,0.022277798746169804,0
2947,-0.012211526514695962,0
2948,-0.015467230732279583,0
2949,0.004180465655405831,0
2950,0.4538335027414474,0
2951,5.496762348337709,0
2952,3.7847507264580784,0
2953,-2.8293112240567977,0
2954,1.6723838428187001,0
2955,-0.880655558605456,0
2956,0.2981691319032973,0
2957,-0.0959809390476901,0
2958,0.05793421140741712,0
2959,0.05276745995146885,0
2960,0.08308309928889865,0
2961,-0.05938281161858507,0
2962,-0.019651725062436863,0
2963,-0.0256547194306907,0
2964,-0.07736655265773108,0
2965,-0.07378372552353449,0
2966,-0.08520440483926864,0
2967,1.364948083472187,0
2968,6.8005238229348235,0
2969,0.08091636897837678,0
2970,-1.2090690760405123,0
2971,0.8466454601325327,0
2972,-0.5000794193238932,0
2973,0.1802224078019334,0
2974,-0.04025818688146374,0
2975,0.039465197359694316,0
2976,0.030785138609508763,0
2977,-0.026677508088996243,0
2978,-0.068079620923292,0
2979,-0.004901498189424747,0
2980,0.020095045140885857,0
2981,0.07710521402377404,0
2982,-0.061988375526854704,0
2983,0.029410710957102917,0
2984,3.4142843565683325,0
2985,6.43002566293681,0
2986,-2.523834663055852,0
2987,0.8831999462233616,0
2988,-0.26422088258486953,0
2989,0.05349715776558195,0
2990,-0.016734406053841445,0
2991,0.07656401463049467,0
2992,0.008522305611124378,0
2993,-0.004335272286179779,0
2994,0.0792566014065779,0
2995,0.051980627787478716,0
2996,0.07209888738290338,0
2997,0.014260143261789104,0
2998,0.027520781983435924,0
2999,0.04406748129515049,0
3000,0.4956341202765404,0
3001,5.487674495476237,0
3002,3.667126601462327,0
3003,-2.793109101836747,0
3004,1.6138203039091819,0
3005,-0.8293312257056977,0
3006,0.38470587463757244,0
3007,-0.06843519114798724,0
3008,0.08462002160983592,0
3009,-0.06673571392758978,0
3010,0.026032040383972475,0
3011,-0.019332942785333127,0
3012,0.0045305459078804206,0
3013,0.03154999162436676,0
3014,-0.01074692611915443,0
3015,0.11372005463341223,0
3016,0.07243639972991839,0
3017,1.5193484500899677,0
3018,6.806594068337831,0
3019,0.0697272319670314,0
3020,-1.1948306155577408,0
3021,0.7735782814478772,0
3022,-0.4414027191212832,0
3023,0.20437315623422142,0
3024,-0.03598420950061537,0
3025,-0.006751835325735429,0
3026,-0.07205564974199821,0
3027,-0.05280063473062426,0
3028,0.040731615343652626,0
3029,-0.0776846015313262,0
3030,-0.02491473258996151,0
3031,-0.033101807960466065,0
3032,0.05075628552270117,0
3033,0.02058139046574861,0
3034,3.3209864277105763,0
3035,6.401604498374146,0
3036,-2.5600204845575654,0
3037,0.9278690642501296,0
3038,-0.31244744007993824,0
3039,0.06482714503872625,0
3040,-0.09908924647046581,0
3041,0.08424740560513273,0
3042,-0.018813483915087734,0
3043,-0.07817565066017919,0
3044,0.07707915870488631,0
3045,0.125408966350244,0
3046,0.01207425088873395,0
3047,0.04848456937256193,0
3048,-0.02243762164416603,0
3049,-0.0347736904449653,0
3050,0.4877452666698759,0
3051,5.527584207820518,0
3052,3.798832950610584,0
3053,-2.8655487203745125,0
3054,1.5168461572112542,0
3055,-0.8072212512943855,0
3056,0.33102232982641366,0
3057,-0.04903589558639099,0
3058,-0.07165670902671606,0
3059,-0.051523119048627816,0
3060,0.08929674805311937,0
3061,0.03232274815467853,0
3062,0.018685569618738584,0
3063,0.01993778890747628,0
3064,-0.006729168844559472,0
3065,0.0038317474170353125,0
3066,-0.06104536707929167,0
3067,1.509528403940585,0
3068,6.926313921847379,0
3069,0.037025060900219064,0
3070,-1.116484238414952,0
3071,0.9487876512417854,0
3072,-0.37957956741209753,0
3073,0.24756130755326852,0
3074,-0.13150880553846203,0
3075,-0.06915318579156637,0
3076,-0.04788352106603669,0
3077,-0.034501393686266264,0
3078,0.0835962420333358,0
3079,0.08705200641969618,0
3080,0.09858587067847704,0
3081,0.012323306209486271,0
3082,0.004042810657120999,0
3083,0.10342785926376516,0
3084,3.4256515322676937,0
3085,6.37008173060765,0
3086,-2.656065520302042,0
3087,0.9262627022641615,0
3088,-0.22206047482989566,0
3089,0.14189829032272316,0
3090,-0.06980573303333035,0
3091,0.06619742318969755,0
3092,0.00028814978728412474,0
3093,0.01903470946458706,0
3094,0.003633475461442418,0
3095,0.01185048068903442,0
3096,0.03296193358494989,0
3097,-0.02217381555137113,0
3098,-0.03526507225844605,0
3099,-0.0049724320045602954,0
3100,0.5335741951698789,0
3101,5.411886900673899,0
3102,3.6629965031751612,0
3103,-2.7192732868324363,0
3104,1.6340424563819238,0
3105,-0.7573920554911855,0
3106,0.3607764022233267,0
3107,-0.09132257274147888,0
3108,0.009254935929071114,0
3109,0.05694002866437149,0
3110,-0.10138540895525805,0
3111,-0.010314582325095953,0
3112,-0.08603114688715274,0
3113,0.0001847868465336619,0
3114,-0.16178491240335965,0
3115,-0.03430019170586439,0
3116,-0.027052484400841518,0
3117,1.3955432299560975,0
3118,6.783952460065799,0
3119,0.054025323674887424,0
3120,-1.1834502915314349,0
3121,0.7644568050474405,0
3122,-0.4652077564224776,0
3123,0.15375995889129357,0
3124,-0.12919607326614552,0
3125,-0.03285885875397791,0
3126,-0.007177363954363735,0
3127,0.08410643244774152,0
3128,0.048032613802110206,0
3129,-0.00707809230802027,0
3130,-0.03882838992500458,0
3131,-0.1044056823498432,0
3132,0.05718897685879354,0
3133,0.09424961107720235,0
3134,3.322781444200642,0
3135,6.405084344909009,0
3136,-2.5822711913917207,0
3137,0.9137726935947037,0
3138,-0.2936242183470029,0
3139,0.08245381065337315,0
3140,-0.060916597773336335,0
3141,0.08757648635555038,0
3142,0.042241454958504135,0
3143,-0.007324775262642977,0
3144,-0.03119271303721092,0
3145,0.015864897151303074,0
3146,-0.08326327918030098,0
3147,0.07915838632500066,0
3148,0.08441587802734964,0
3149,0.10528208820190813,0
3150,0.47563998621876685,0
3151,5.4396057413882515,0
3152,3.7351446974316542,0
3153,-2.821376715514159,0
3154,1.576298289798928,0
3155,-0.8652326695845194,0
3156,0.3315295095966195,0
3157,-0.09467353562888273,0
3158,0.04723281476604961,0
3159,-0.0498408926099176,0
3160,-0.024515634048773716,0
3161,-0.016387834551361825,0
3162,0.050819430750405716,0
3163,-0.03463399523542575,0
3164,0.03002062490745349,0
3165,-0.043761173120101374,0
3166,-0.037308697823052794,0
3167,1.455046198927537,0
3168,6.8096556373777934,0
3169,-0.019082629701557958,0
3170,-1.1649325405534647,0
3171,0.8113929202534812,0
3172,-0.495284343622328,0
3173,0.07762755392035386,0
3174,-0.06806335221345967,0
3175,-0.06420887092631372,0
3176,0.0045352639899847655,0
3177,-0.02919676401928791,0
3178,-0.04756109810817341,0
3179,-0.043637364858437,0
3180,0.022078136379024796,0
3181,0.03018516959512163,0
3182,0.06439646583377659,0
3183,0.07211928891983438,0
3184,3.287344235036249,0
3185,6.345201150621897,0
3186,-2.636555926213176,0
3187,1.003186122879578,0
3188,-0.30622629788695077,0
3189,0.058206379005347426,0
3190,-0.046857242931278784,0
3191,0.06068382093584128,0
3192,-0.05368608201338923,0
3193,-0.0422091411383071,0
3194,0.029664093185054325,0
3195,0.007726479493472913,0
3196,-0.03494015035926901,0
3197,0.050094302065123525,0
3198,-0.036611490297874597,0
3199,-0.07261011963786873,0
3200,0.4741267687125532,0
3201,5.402583716350401,0
3202,3.557346056563412,0
3203,-2.797291447616259,0
3204,1.4120324345408053,0
3205,-0.8637306199895141,0
3206,0.2848654465436645,0
3207,-0.11338144624658789,0
3208,0.013611744069572305,0
3209,-0.06073673885584964,0
3210,-0.022012981657591534,0
3211,-0.12738568825305396,0
3212,0.007963764061156738,0
3213,0.039516885619689496,0
3214,-0.005284469744024252,0
3215,-0.05558178535600142,0
3216,-0.03077872971112504,0
3217,1.4894641498829975,0
3218,6.849577969821194,0
3219,0.01411736656941055,0
3220,-1.189237198274144,0
3221,0.7996872604793436,0
3222,-0.4399482154937918,0
3223,0.1632864126160583,0
3224,-0.08962717250377569,0
3225,-0.10247133961513674,0
3226,0.00958565893957454,0
3227,-0.0692624071603561,0
3228,-0.061797909811604705,0
3229,-0.06590899481877083,0
3230,-0.13030101067813385,0
3231,-0.16725784752099523,0
3232,-0.1614436297242224,0
3233,-0.11028954580121059,0
3234,3.163941978621831,0
3235,6.26374013392219,0
3236,-2.7717191627536972,0
3237,0.8470647973838514,0
3238,-0.37534902602677,0
3239,0.0035779545140072824,0
3240,-0.1621252551563328,0
3241,0.05853163018576309,0
3242,0.000819273427713027,0
3243,-0.038447122859636806,0
3244,-0.0022122604399017268,0
3245,-0.011019012822981166,0
3246,-0.019548758354650156,0
3247,-0.013710755552399471,0
3248,0.04600079074459099,0
3249,-0.01578501740402447,0
3250,0.5139828689654071,0
3251,5.475574172209568,0
3252,3.6288219063539207,0
3253,-2.8048010263620085,0
3254,1.5293749448037262,0
3255,-0.8046582768134605,0
3256,0.30514868881506746,0
3257,-0.055561998844812444,0
3258,-0.009264853193704833,0
3259,0.026841302019842046,0
3260,-0.004887650215097039,0
3261,-0.06632015195929022,0
3262,0.028419832789943627,0
3263,0.012673343870278249,0
3264,0.03313704908854798,0
3265,-0.06271180010526795,0
3266,-0.06598579346107936,0
3267,1.4836972552197476,0
3268,6.855396307273831,0
3269,-0.10329654640525392,0
3270,-1.104042737092998,0
3271,0.6710515960565028,0
3272,-0.5579697359400055,0
3273,0.1724490715138644,0
3274,-0.21178629024268872,0
3275,-0.03365504757037167,0
3276,-0.12160604300685254,0
3277,-0.012507540777705946,0
3278,-0.08427181568501939,0
3279,-0.060885385068667634,0
3280,0.008520388522175841,0
3281,-0.050846047129082125,0
3282,-0.04870866511432231,0
3283,0.015309231085978092,0
3284,3.338474833987235,0
3285,6.325193089460041,0
3286,-2.662745200087413,0
3287,0.9200809226767496,0
3288,-0.37692615979321986,0
3289,0.1059856136239348,0
3290,-0.10328284579315358,0
3291,-0.06694674225258829,0
3292,-0.05937100541655414,0
3293,-0.02254438865671868,0
3294,-0.08339720318143659,0
3295,-0.07196639723768046,0
3296,-0.09240028560410415,0
3297,0.005011632973979878,0
3298,0.03977984478961271,0
3299,-0.08063248495757812,0
3300,0.4793809126909427,0
3301,5.45311327563167,0
3302,3.622015393363813,0
3303,-2.8051160468997325,0
3304,1.5354575784614393,0
3305,-0.8322357653845431,0
3306,0.2219735991600009,0
3307,-0.08305480630225014,0
3308,0.002734092274812205,0
3309,0.017073658060896883,0
3310,0.03209046753331435,0
3311,-0.0053345951765252225,0
3312,-0.06992885017723358,0
3313,-0.009588131755412635,0
3314,-0.02365770597050778,0
3315,-0.025596957360672294,0
3316,-0.039998831535406426,0
3317,1.482131231191035,0
3318,6.926727027747382,0
3319,-0.03257445140545914,0
3320,-1.1285795760611201,0
3321,0.7316738492595084,0
3322,-0.5406640397201499,0
3323,0.03819358386249361,0
3324,-0.15870108096756086,0
3325,-0.13604074698433166,0
3326,-0.09656329102523346,0
3327,-0.046876821102507446,0
3328,-0.11223994975042371,0
3329,-0.05757111098297158,0
3330,-0.14266165528277583,0
3331,-0.03063635154322779,0
3332,-0.05303517962181352,0
3333,0.035928211424798004,0
3334,3.3870924223044887,0
3335,6.3283928067724595,0
3336,-2.7025931445249483,0
3337,0.9912173636552734,0
3338,-0.29452994679219296,0
3339,0.18369562449167143,0
3340,-0.05234716801894829,0
3341,0.018369579098778642,0
3342,-0.001235087380468315,0
3343,0.039880085754670676,0
3344,0.0002652005773672566,0
3345,0.003436614438351345,0
3346,-0.013367356871935738,0
3347,-0.01458179500083286,0
3348,-0.06298400029772264,0
3349,-0.04769000894939708,0
3350,0.48606435043399443,0
3351,5.4821116672127985,0
3352,3.5994384207025885,0
3353,-2.7805575204821813,0
3354,1.5612368835819466,0
3355,-0.7566317120030523,0
3356,0.22501043116507569,0
3357,-0.06703271182025466,0
3358,0.1186884649579991,0
3359,-0.06375103444364276,0
3360,0.037437818014231225,0
3361,-0.007157064593971094,0
3362,0.04452364643853486,0
3363,0.08885564798121695,0
3364,-0.04423706791124236,0
3365,0.08602056142854858,0
3366,-0.00973383974722241,0
3367,1.5572138427436308,0
3368,6.9481293157244455,0
3369,-0.04842946315518113,0
3370,-1.0148011649298534,0
3371,0.7554850767327007,0
3372,-0.3456564963980632,0
3373,0.13878098891597357,0
3374,0.02724590031101712,0
3375,0.061570849587717,0
3376,-0.029756831361572936,0
3377,-0.05879090280451335,0
3378,-0.03197486386860182,0
3379,0.04039378025171643,0
3380,0.017565274882759885,0
3381,-0.11366289353955639,0
3382,-0.041925403302204345,0
3383,-0.042145082435325554,0
3384,3.34442121858229,0
3385,6.238829393276876,0
3386,-2.7332385311449663,0
3387,1.0198140160661613,0
3388,-0.39832608283972915,0
3389,0.1148302482060974,0
3390,-0.1329159882055469,0
3391,0.009569906397774618,0
3392,-0.09184532987787218,0
3393,-0.0489712845783485,0
3394,0.057054377641178856,0
3395,-0.010510017414876721,0
3396,-0.04596510533014002,0
3397,-0.11453179386125872,0
3398,-0.027176073440330323,0
3399,-0.09654589807476376,0
3400,0.4157082947331715,0
3401,5.468311144492719,0
3402,3.5037529248076766,0
3403,-2.7283224048216854,0
3404,1.5114133704346802,0
3405,-0.8097443334568052,0
3406,0.33153823062246623,0
3407,-0.137841916623811,0
3408,0.033015980603200386,0
3409,-0.057105637216169514,0
3410,-0.06707839331873591,0
3411,-0.013607407574393384,0
3412,-0.007240072626206691,0
3413,-0.04038231203876007,0
3414,0.04809926560707056,0
3415,0.015474214647953575,0
3416,-0.006742409066641536,0
3417,1.547986053729697,0
3418,6.894016117935303,0
3419,-0.08367677846470363,0
3420,-1.0404246543297504,0
3421,0.7470923407949223,0
3422,-0.47508838846875945,0
3423,0.10757533532339209,0
3424,-0.009831145525304091,0
3425,-0.03727275874192364,0
3426,7.34540018675553e-05,0
3427,0.062027919499311135,0
3428,-0.091216610391052,0
3429,0.03168547920102215,0
3430,0.0061795255189215186,0
3431,-0.07062127243735153,0
3432,-0.0518476455313301,0
3433,0.05624209769844433,0
3434,3.341292207652993,0
3435,6.325234171538132,0
3436,-2.684357754739788,0
3437,0.8939441786483233,0
3438,-0.37150316056305216,0
3439,-0.018001331936699755,0
3440,-0.13050131290938438,0
3441,-0.03335189852312766,0
3442,0.05058762707618503,0
3443,0.05000122797129328,0
3444,0.028026673852493134,0
3445,-0.011894265363071893,0
3446,-0.006294709397151252,0
3447,0.03627191770003649,0
3448,-0.00028051609971746494,0
3449,-0.03423416415870853,0
3450,0.511414188005535,0
3451,5.512181807000117,0
3452,3.4623192174287087,0
3453,-2.8179501381566694,0
3454,1.5692231444256812,0
3455,-0.7936939819413782,0
3456,0.2661183860699931,0
3457,-0.20195096838697163,0
3458,-0.10264505761907776,0
3459,0.053288363480146615,0
3460,-0.0034920637868396734,0
3461,-0.02120726897405931,0
3462,-0.1767366726609711,0
3463,-0.07903893657931056,0
3464,-0.029305078896325887,0
3465,0.031176614860128456,0
3466,-0.13098918653719388,0
3467,1.5447603488221469,0
3468,7.015075957024646,0
3469,-0.13116728609780623,0
3470,-0.9843753331559255,0
3471,0.7638615796218812,0
3472,-0.3488051648720417,0
3473,0.17638999359196103,0
3474,-0.002883467432780798,0
3475,0.038314738122738654,0
3476,0.023597888676426218,0
3477,0.05215601868158082,0
3478,-0.05479931557764961,0
3479,0.007518160352430588,0
3480,-0.02513064064446563,0
3481,-0.023550543700259937,0
3482,-0.03323407804901409,0
3483,0.06979134691243856,0
3484,3.3839982265074524,0
3485,6.266968666056676,0
3486,-2.7323007147148717,0
3487,1.0671641328782917,0
3488,-0.3632488829341782,0
3489,0.09492611901784831,0
3490,-0.049434702151871374,0
3491,0.10249831916320254,0
3492,-0.024993451113185208,0
3493,0.007641406473038598,0
3494,-0.033167096784541106,0
3495,0.02623447624274091,0
3496,-0.02819049006950699,0
3497,-0.02895615576616185,0
3498,-0.10667023496161616,0
3499,-0.06332265698168714,0
3500,0.43508424873081375,0
3501,5.531573863327385,0
3502,3.4692381074443195,0
3503,-2.688888457207349,0
3504,1.44348130755606,0
3505,-0.8474371625081942,0
3506,0.24654194181990427,0
3507,-0.11252064171290667,0
3508,0.060115371123245595,0
3509,0.00584774915796598,0
3510,0.036203956847208285,0
3511,0.0882349959765289,0
3512,-0.08732793917271532,0
3513,-0.03528105253876099,0
3514,-0.1006163558225999,0
3515,-0.09899071602846274,0
3516,-0.10638166060345136,0
3517,1.5490017025105707,0
3518,6.851706875436916,0
3519,-0.22074289828274404,0
3520,-0.9961690114644309,0
3521,0.710418103147742,0
3522,-0.409875958458851,0
3523,0.11568908154295161,0
3524,-0.06544434994786331,0
3525,-0.035212362518047914,0
3526,-0.011550196846795868,0
3527,0.0012670267272149802,0
3528,-0.07432340825271443,0
3529,-0.03718880597768885,0
3530,-0.08980881377929366,0
3531,-0.13360142977821018,0
3532,-0.03728170930226528,0
3533,0.13287414791283303,0
3534,3.454374421512778,0
3535,6.176897325767421,0
3536,-2.72182271753889,0
3537,0.9478081045346171,0
3538,-0.3789019519317052,0
3539,0.09645528288132442,0
3540,-0.025245325057521334,0
3541,0.02060644394479953,0
3542,-0.07139045901575691,0
3543,-0.0998105459357916,0
3544,0.010017021417213404,0
3545,-0.049049553028216175,0
3546,-0.02848641708420617,0
3547,-0.03506901226007331,0
3548,-0.042964829202777034,0
3549,0.04488006409702218,0
3550,0.550367120624593,0
3551,5.588678251975818,0
3552,3.536830907670019,0
3553,-2.6990142193713593,0
3554,1.581028069273967,0
3555,-0.7516534372946739,0
3556,0.3281198546127399,0
3557,-0.14339186566966017,0
3558,-0.05487119921871582,0
3559,0.00700232493817894,0
3560,0.0758950242155482,0
3561,0.0025910755778218945,0
3562,0.06380484117727568,0
3563,0.007774934182459314,0
3564,0.010632277077640674,0
3565,-0.1187573523897334,0
3566,-0.11505762004238577,0
3567,1.5932218974997092,0
3568,6.858253717788976,0
3569,-0.1999994909819693,0
3570,-1.0385119688350195,0
3571,0.6909550830276766,0
3572,-0.49328782106901553,0
3573,0.09612120704200752,0
3574,-0.138407379431339,0
3575,0.01864917093690443,0
3576,-0.11710428910758161,0
3577,-0.06095635453388463,0
3578,-0.020480967436476167,0
3579,0.05624078904475748,0
3580,-0.0526068089079738,0
3581,-0.06009094641935684,0
3582,-0.06681114844899846,0
3583,-0.04834426803668514,0
3584,3.459690029068985,0
3585,6.192456244321288,0
3586,-2.8145800588011047,0
3587,0.8725201721050455,0
3588,-0.34876308228391684,0
3589,0.0356938918795279,0
3590,-0.17367316137004107,0
3591,-0.12775801884010976,0
3592,-0.12482209100309523,0
3593,-0.10630408322324139,0
3594,-0.1927344002316729,0
3595,-0.15450467717801208,0
3596,-0.11934461792492226,0
3597,-0.1595696551736071,0
3598,-0.0878783057590254,0
3599,-0.11106888178371391,0
3600,0.5628724766607787,0
3601,5.55172773277668,0
3602,3.4863423517319356,0
3603,-2.8148384032936846,0
3604,1.5612695427180399,0
3605,-0.8145523957565899,0
3606,0.390610096026448,0
3607,-0.07953205180980669,0
3608,0.10815843778632975,0
3609,0.06832511688040312,0
3610,0.007081472265306515,0
3611,0.09681431633065593,0
3612,0.04426608588001785,0
3613,-0.04265869962964171,0
3614,0.06642834336296775,0
3615,0.04729058889307347,0
3616,0.027448797029211894,0
3617,1.5736481919392946,0
3618,6.879847471804405,0
3619,-0.12400680197411826,0
3620,-0.8670603498627061,0
3621,0.8513795003515563,0
3622,-0.3937061459238786,0
3623,0.2563265344229118,0
3624,0.012462857183108363,0
3625,0.10065779061828906,0
3626,0.06177677507912413,0
3627,0.14673053599628977,0
3628,-0.03699300920610813,0
3629,0.07040647024844479,0
3630,0.1006710447773625,0
3631,0.07328158307077004,0
3632,-0.005145243060612703,0
3633,0.15505867145168167,0
3634,3.4377075547521,0
3635,6.304295262497258,0
3636,-2.753739601294215,0
3637,0.9965644606440262,0
3638,-0.35228176585751947,0
3639,0.13650513665471306,0
3640,-0.002489862988686087,0
3641,0.027848400295656047,0
3642,-0.019090662880025595,0
3643,-0.0028027123615025733,0
3644,-0.009819947981122814,0
3645,-0.0898342137139694,0
3646,-0.07309600485207239,0
3647,0.03013273819310352,0
3648,0.019316262953861806,0
3649,-0.015380013772121332,0
3650,0.5648934854586523,0
3651,5.508093457541399,0
3652,3.4171891951307227,0
3653,-2.7591642982554974,0
3654,1.5961480013227247,0
3655,-0.8371300456343753,0
3656,0.337140721343471,0
3657,-0.08465095838958986,0
3658,0.03772921530694019,0
3659,0.06911776134057117,0
3660,0.03872650061187293,0
3661,-0.010109317292572015,0
3662,0.0713028791053239,0
3663,-0.018480063813943726,0
3664,0.028242078917926818,0
3665,0.030828642624241752,0
3666,0.020902733237868523,0
3667,1.6019916038006932,0
3668,6.824770792188931,0
3669,-0.21775523407387531,0
3670,-0.94313871048741,0
3671,0.7968355739991608,0
3672,-0.44721238536598557,0
3673,0.1240535655988438,0
3674,-0.1603084465220573,0
3675,0.04273620251808554,0
3676,-0.009175810519223136,0
3677,-0.019557211533109922,0
3678,-0.08765376851701404,0
3679,-0.02337017572194091,0
3680,-0.014471675904611306,0
3681,-0.003328027942348988,0
3682,0.08438477661812857,0
3683,0.1842186991481745,0
3684,3.491576757998202,0
3685,6.165636262032603,0
3686,-2.6720599769928826,0
3687,1.0829877386478468,0
3688,-0.33300613919282746,0
3689,0.23660432442626655,0
3690,0.011433265336786912,0
3691,0.04289574967880086,0
3692,0.05921409502459782,0
3693,0.03774516514246861,0
3694,0.09413462000194013,0
3695,0.05735557203320121,0
3696,0.04878304268401035,0
3697,0.0016432877291286604,0
3698,-0.049701744014221824,0
3699,-0.0159085407158495,0
3700,0.6930335444236675,0
3701,5.629361146849541,0
3702,3.3689594410849377,0
3703,-2.758189595521151,0
3704,1.5829009426017921,0
3705,-0.7207938294613243,0
3706,0.3642854996565138,0
3707,-0.09404990376787353,0
3708,0.047169562666357454,0
3709,-0.022075731632629075,0
3710,0.042890465473041484,0
3711,0.033527994255682834,0
3712,-0.04323315498914897,0
3713,-0.054858295227666845,0
3714,-0.035651916619518914,0
3715,0.04621376240200008,0
3716,-0.01799368203247976,0
3717,1.5724777982844835,0
3718,6.953078068735434,0
3719,-0.22064314526989603,0
3720,-0.8677288903126907,0
3721,0.738553002525399,0
3722,-0.3892659653510486,0
3723,0.24139275489155074,0
3724,-0.01550766457683119,0
3725,-0.10937752542881689,0
3726,-0.014619239431220734,0
3727,-0.010435148363479568,0
3728,0.03711881637124074,0
3729,0.0747126978117913,0
3730,0.059442399102202156,0
3731,-0.09753257769683646,0
3732,-0.007869954745797884,0
3733,0.12127717856044798,0
3734,3.371081896747652,0
3735,6.1355048012854105,0
3736,-2.7902708695376512,0
3737,1.0207511111698002,0
3738,-0.364546933313473,0
3739,0.1223359389712886,0
3740,-0.10406031046933592,0
3741,0.04408449763345432,0
3742,0.08398663697075769,0
3743,0.13773579238113132,0
3744,-0.026991121842529074,0
3745,-0.019973821294471093,0
3746,-0.021400225112108134,0
3747,-0.020651843786180887,0
3748,-0.02498935352296743,0
3749,0.01099825901093131,0
3750,0.5148675603019706,0
3751,5.636789108984102,0
3752,3.4323376091880817,0
3753,-2.7171618808765934,0
3754,1.4864189515169504,0
3755,-0.8208187396691206,0
3756,0.3199788984840156,0
3757,-0.10761330371492969,0
3758,0.0156618550254524,0
3759,-0.06686371075079527,0
3760,0.04459785546879972,0
3761,-0.04233085230843966,0
3762,-0.024315803486601346,0
3763,-0.103987340172264,0
3764,0.07308157877507708,0
3765,0.02695461356455984,0
3766,-0.042662147983140136,0
3767,1.597187316630535,0
3768,6.932548546021024,0
3769,-0.17144193687068054,0
3770,-0.9367490018298983,0
3771,0.7579155208836811,0
3772,-0.38472227760276845,0
3773,0.06464120619958091,0
3774,-0.0018812526945953256,0
3775,0.028254542464890196,0
3776,-0.058714833155540706,0
3777,0.07163971061926003,0
3778,0.06195089355750715,0
3779,0.0116345188268148,0
3780,-0.040183130934008465,0
3781,-0.04728707332450009,0
3782,0.05444467520273112,0
3783,0.21966480516374653,0
3784,3.546278983623246,0
3785,6.207603202172856,0
3786,-2.769888375528496,0
3787,1.0194483625058295,0
3788,-0.435020143895959,0
3789,0.08812871933522487,0
3790,-0.04491900290929744,0
3791,-0.03353484673346649,0
3792,-0.049746050688810474,0
3793,-0.01686746374138332,0
3794,-0.03165205074728983,0
3795,0.10342589415621319,0
3796,0.01660454907191783,0
3797,-0.10650225423984568,0
3798,-0.01298614762288329,0
3799,-0.05051447139059186,0
3800,0.3572743744985787,0
3801,5.5812458877899545,0
3802,3.3860394669550398,0
3803,-2.730545258316568,0
3804,1.5515541515797246,0
3805,-0.7120678651816663,0
3806,0.3005000576304032,0
3807,-0.11687820095481205,0
3808,0.12157679783682193,0
3809,-0.10494227849182373,0
3810,-0.05440123681220886,0
3811,-0.01988276532382037,0
3812,-0.04531859728267597,0
3813,0.09932495172782352,0
3814,0.07029802198718192,0
3815,0.0011209055509658339,0
3816,0.06941288380265895,0
3817,1.6236427737782981,0
3818,6.962745237679157,0
3819,-0.20758000657304848,0
3820,-0.9272233407712108,0
3821,0.8289532294817715,0
3822,-0.31664355622614004,0
3823,0.14401833777560505,0
3824,-0.046282376083996046,0
3825,0.011778626577243483,0
3826,-0.11538286101993606,0
3827,0.005650330688185393,0
3828,-0.02867661971826968,0
3829,0.08604751787339183,0
3830,-0.04892745687848875,0
3831,-0.04476756596524722,0
3832,-0.06072040603828417,0
3833,0.11485734685431909,0
3834,3.461831447429892,0
3835,6.216634694096343,0
3836,-2.80380994727745,0
3837,1.1593204098414807,0
3838,-0.3805840620904999,0
3839,0.14905344472030146,0
3840,-0.17212579273243322,0
3841,-0.002255987765492011,0
3842,0.03537437895313189,0
3843,-0.004138814462236434,0
3844,0.026155401736494752,0
3845,-0.06009919902878215,0
3846,-0.02559209630091666,0
3847,0.10960789519752928,0
3848,-0.003987903157959467,0
3849,-0.02065006242203036,0
3850,0.512792743274316,0
3851,5.626091021508212,0
3852,3.2861792372568615,0
3853,-2.691712009824289,0
3854,1.5541470304596718,0
3855,-0.752966335995018,0
3856,0.3507995703765656,0
3857,-0.057758207062189704,0
3858,0.0018625722179571938,0
3859,0.07506509252257991,0
3860,0.005079809654825082,0
3861,-0.02417269066382097,0
3862,0.025021722434975694,0
3863,-0.0014617567991176104,0
3864,-0.0777755909633497,0
3865,-0.03187735449125372,0
3866,-0.016022913020841023,0
3867,1.627240418382478,0
3868,6.948208936424887,0
3869,-0.33730687952184474,0
3870,-0.9200747557966634,0
3871,0.7278394567647852,0
3872,-0.45895411265184405,0
3873,0.17724754115040015,0
3874,-0.04594143178228672,0
3875,-0.038940419486031067,0
3876,-0.024349269009892087,0
3877,-0.007759787749068764,0
3878,-0.05530915140556793,0
3879,-0.07023609192061675,0
3880,-0.0962584657313307,0
3881,-0.02194748252512091,0
3882,-0.06310315137785075,0
3883,0.007380804942874006,0
3884,3.397462384188727,0
3885,6.2087620544025475,0
3886,-2.76376212873688,0
3887,1.0479429902226363,0
3888,-0.3252438446400103,0
3889,0.10122130991438336,0
3890,-0.03485232883028797,0
3891,0.03776368475671319,0
3892,-0.009756696561726752,0
3893,0.031704174849450824,0
3894,0.08281303885096603,0
3895,0.02772807816460631,0
3896,-0.05022568452803215,0
3897,0.02933092545067212,0
3898,0.027087171519327023,0
3899,-0.07075316228466316,0
3900,0.5806419659382114,0
3901,5.630057924981209,0
3902,3.3994852678016168,0
3903,-2.6361842624895626,0
3904,1.6574855086601952,0
3905,-0.8194705231894784,0
3906,0.3341423095169977,0
3907,-0.1247597531596871,0
3908,0.008444324721413194,0
3909,-0.13954987154299472,0
3910,-0.02853048446444904,0
3911,0.06903461929740515,0
3912,0.028935938197459425,0
3913,0.005800435930627804,0
3914,-0.09382336778540329,0
3915,-0.011986388863434798,0
3916,0.028693174795908653,0
3917,1.5596753194580404,0
3918,6.9238080146892855,0
3919,-0.2908765968701301,0
3920,-0.8876306046904231,0
3921,0.7358400337217724,0
3922,-0.3991304621889017,0
3923,0.10338135321315814,0
3924,0.03197293369987558,0
3925,0.01995400263704005,0
3926,-0.005749138909601477,0
3927,0.009566659992016318,0
3928,0.008068406707549566,0
3929,0.03676737919665246,0
3930,0.002223807038526577,0
3931,0.004592027461406262,0
3932,0.06523025758974833,0
3933,0.15432186767041717,0
3934,3.4845507527378117,0
3935,6.207767120932582,0
3936,-2.841776416089817,0
3937,1.0663695461703968,0
3938,-0.5037512559768775,0
3939,-0.0011054017041424585,0
3940,-0.04463710506282305,0
3941,-0.03563718519740558,0
3942,-0.09675220824509345,0
3943,-0.06330511372078186,0
3944,0.017406725812972423,0
3945,-0.021978913415324944,0
3946,0.01576710931918404,0
3947,-0.06874429427684207,0
3948,-0.058110814460252944,0
3949,0.010117904653932919,0
3950,0.5331738495145945,0
3951,5.652945754404984,0
3952,3.3590225597965016,0
3953,-2.6508566107252745,0
3954,1.518044864480299,0
3955,-0.7038420198690976,0
3956,0.3457629031156833,0
3957,-0.07796596362857157,0
3958,0.00616204743756156,0
3959,0.026508296817733618,0
3960,0.06538348268457014,0
3961,0.11066910638370908,0
3962,-0.0029727022783826787,0
3963,-0.007435356174460169,0
3964,-0.007108771143754071,0
3965,0.0786516057539599,0
3966,-0.027596953502891028,0
3967,1.7185428419153181,0
3968,6.9397603207378324,0
3969,-0.29463127693922,0
3970,-1.0372827021992457,0
3971,0.6815378776685138,0
3972,-0.4408648145799788,0
3973,0.1619682381141812,0
3974,-0.05408988685416952,0
3975,-0.06597846382216277,0
3976,-0.00692889242202897,0
3977,0.0031081178403433237,0
3978,-0.1135332389403057,0
3979,0.01405612686695644,0
3980,-0.034683745873990326,0
3981,-0.023086906545936082,0
3982,-0.004617791780879798,0
3983,0.09223599706613167,0
3984,3.6104560924625595,0
3985,6.143446051850878,0
3986,-2.773116819361202,0
3987,1.0948666924795385,0
3988,-0.4061093994130661,0
3989,0.1936506760616658,0
3990,-0.10756242396792434,0
3991,0.05252016058185753,0
3992,-0.04061377895119478,0
3993,-0.03728077237417203,0
3994,0.027023954629398994,0
3995,-0.09340616234362809,0
3996,0.08670427362995867,0
3997,-0.05453319569198496,0
3998,0.010257917089026198,0
3999,-0.016083328116455166,0
4000,0.6655389036817891,0
4001,5.698692063596637,0
4002,3.308932486249777,0
4003,-2.694245801626761,0
4004,1.5044204427183525,0
4005,-0.7905031265748294,0
4006,0.33540121763462705,0
4007,-0.14607959368554618,0
4008,0.05163548847357885,0
4009,-0.02085797612978777,0
4010,-0.005459913852464495,0
4011,-0.03968013967111087,0
4012,0.006593796830261957,0
4013,0.04208520803676617,0
4014,0.0387039278466421,0
4015,0.00904675131194973,0
4016,0.00239844107313504,0
4017,1.5512162971041177,0
4018,6.931944539467069,0
4019,-0.39812918362535077,0
4020,-0.8906052202692876,0
4021,0.7215696875462146,0
4022,-0.4065055277181103,0
4023,0.12080908859531503,0
4024,-0.13202694661354994,0
4025,-0.0857286779936822,0
4026,-0.07981408266538387,0
4027,-0.016805676709541473,0
4028,-0.07871286745055447,0
4029,0.020868066999943168,0
4030,-0.009985838619674822,0
4031,-0.002524335579307216,0
4032,0.023559372310596603,0
4033,0.10382088822382693,0
4034,3.549255537909037,0
4035,6.196998717604681,0
4036,-2.856687388167966,0
4037,1.1620614825274513,0
4038,-0.38563579535460474,0
4039,0.06322942183585319,0
4040,0.004876821463426731,0
4041,-0.014262065688562028,0
4042,-0.08807641720578074,0
4043,-0.05832339694618064,0
4044,0.018770572925693462,0
4045,-0.14355690723586062,0
4046,0.008668518517810486,0
4047,-0.08376515209855948,0
4048,-0.047900337021100386,0
4049,0.05582734815893767,0
4050,0.5866117964742511,0
4051,5.692048799659485,0
4052,3.3085988207212185,0
4053,-2.6131102636472603,0
4054,1.6612439719007208,0
4055,-0.7869948163338747,0
4056,0.3209027789503966,0
4057,-0.09980663964443735,0
4058,0.1906628227599482,0
4059,0.017534861893167275,0
4060,0.03231506586221105,0
4061,0.006359594386446853,0
4062,0.08861501810949891,0
4063,0.03914783564448494,0
4064,-0.039899167676506045,0
4065,0.061493752103682624,0
4066,-0.07425538017038412,0
4067,1.7133314754521083,0
4068,6.973337164022717,0
4069,-0.3928739098877369,0
4070,-0.9055033766588896,0
4071,0.6544559624969328,0
4072,-0.4696691154355387,0
4073,0.1312698923049584,0
4074,-0.15865440072522136,0
4075,-0.03541287888855093,0
4076,-0.0569502515730453,0
4077,-0.05477131807091158,0
4078,-0.05944297461335906,0
4079,-0.07910627086942873,0
4080,0.008227024335876403,0
4081,-0.005405924568225383,0
4082,-0.05855110459100854,0
4083,0.0597490910286959,0
4084,3.5575820580268314,0
4085,6.063635979533929,0
4086,-2.7799737391274246,0
4087,1.0833741634864822,0
4088,-0.5273785706789385,0
4089,0.18929736406014297,0
4090,-0.08102047823426127,0
4091,-0.044180715783266294,0
4092,-0.023268954068446663,0
4093,-0.0962412255525604,0
4094,-0.09835006382462042,0
4095,0.07227180778876749,0
4096,0.05891931516095329,0
4097,-0.13398071123072283,0
4098,-0.04633739163961942,0
4099,-0.02669507024258376,0
4100,0.542862901210719,0
4101,5.6418155508898185,0
4102,3.2890361360928813,0
4103,-2.6504082783301866,0
4104,1.504662670258376,0
4105,-0.8944089886234395,0
4106,0.31891925359830325,0
4107,-0.06671493393560164,0
4108,-0.007217806150397093,0
4109,-0.09032547428299109,0
4110,-0.007675042191138296,0
4111,-0.08976337490192424,0
4112,-0.051635584199331355,0
4113,-0.03360819152256944,0
4114,-0.07581503447907086,0
4115,0.0853058382147003,0
4116,-0.0782131115033255,0
4117,1.5961695356789163,0
4118,6.881311690297868,0
4119,-0.4684552330361589,0
4120,-0.8550399695446922,0
4121,0.7659217894517355,0
4122,-0.31132581029773587,0
4123,0.18190647066381063,0
4124,-0.0033042133512417513,0
4125,-0.0552096715756671,0
4126,-0.04090394616736544,0
4127,0.014735173332438295,0
4128,0.08547124346577469,0
4129,-0.04747007358325267,0
4130,0.06708067979347043,0
4131,0.042201271970521585,0
4132,0.10340577765546122,0
4133,0.09376930760060201,0
4134,3.601701902880391,0
4135,6.102599586485322,0
4136,-2.769771603106705,0
4137,1.069385668321129,0
4138,-0.2843608283571057,0
4139,0.17584551579453492,0
4140,-0.03729214518452284,0
4141,-0.027438765858622146,0
4142,-0.08032542363691134,0
4143,-0.03119095638618666,0
4144,-0.05517337442946378,0
4145,-0.015492817767582174,0
4146,-0.11975171643609756,0
4147,-0.05807181926224968,0
4148,-0.01619053140447463,0
4149,-0.05455115672052184,0
4150,0.5413963207434641,0
4151,5.646384524925642,0
4152,3.1206330846817276,0
4153,-2.760534635889681,0
4154,1.4901792612141358,0
4155,-0.8300808910506052,0
4156,0.3857720298627818,0
4157,-0.15145519676130056,0
4158,0.06014527495879116,0
4159,-0.05520503503974283,0
4160,0.0884385111987527,0
4161,-0.08832258449290142,0
4162,-0.02683859133170683,0
4163,0.04113497249295033,0
4164,-0.05918880709798535,0
4165,-0.03125666129847792,0
4166,-0.014617439776270986,0
4167,1.6114535803980163,0
4168,6.853939211445525,0
4169,-0.5036394617281666,0
4170,-0.8118577217680869,0
4171,0.5722018251504434,0
4172,-0.3688212665163684,0
4173,-0.01584497572585522,0
4174,-0.0640437350464051,0
4175,-0.04791553246060101,0
4176,-0.01961430066973207,0
4177,-0.09830463911117338,0
4178,-0.1388263957445797,0
4179,-0.08388969317980828,0
4180,-0.024350713013611983,0
4181,-0.09556141675292822,0
4182,-0.10428471287094351,0
4183,0.06273329612559365,0
4184,3.6534116100238365,0
4185,6.084891146058219,0
4186,-2.8205161393478857,0
4187,1.03513663638712,0
4188,-0.4115629863258851,0
4189,0.07155980382289956,0
4190,-0.10265072553628735,0
4191,-0.022357123209825833,0
4192,0.030486303516364163,0
4193,0.03174139868604949,0
4194,-0.06174426257351755,0
4195,0.050766243090198705,0
4196,-0.005103645200769035,0
4197,0.03529757910122099,0
4198,0.15062141881997934,0
4199,-0.0496039193843578,0
4200,0.5927935113049135,0
4201,5.913993756832421,0
4202,3.191220632652349,0
4203,-2.5743916616249107,0
4204,1.4799262445017478,0
4205,-0.6597715063153057,0
4206,0.3001901525985845,0
4207,-0.10715846237516727,0
4208,0.015850338415924106,0
4209,6.0268180909057306e-05,0
4210,-0.00013221268047576389,0
4211,0.07388984045560248,0
4212,0.024231528368718645,0
4213,0.03408519786843355,0
4214,-0.0484061328877886,0
4215,0.047142050103246444,0
4216,0.07994422123697424,0
4217,1.6982305773897406,0
4218,7.031346397973745,0
4219,-0.46076819761380905,0
4220,-0.8863545879904243,0
4221,0.6681653247058988,0
4222,-0.3609935744280869,0
4223,0.17587872756161962,0
4224,-0.12627759084817747,0
4225,-0.02045586718981332,0
4226,-0.0028387414766505824,0
4227,0.06842652728347251,0
4228,0.02949002726228218,0
4229,0.03798045751264223,0
4230,0.08649652089996651,0
4231,0.04690493873610933,0
4232,0.022844948093826867,0
4233,0.20146914397694934,0
4234,3.674438481100456,0
4235,6.164976822120779,0
4236,-2.8578877655135217,0
4237,1.1367378360609277,0
4238,-0.42241990013830766,0
4239,0.09717094959566346,0
4240,-0.04470663349602473,0
4241,0.17759072186739872,0
4242,0.03625148604505436,0
4243,0.10109165038607187,0
4244,0.1145075916126376,0
4245,0.10872789740877574,0
4246,0.06425103625755106,0
4247,0.025673964866530553,0
4248,0.14509934945355416,0
4249,0.11219051807315003,0
4250,0.5849039760252432,0
4251,5.801584890962949,0
4252,3.220805144610185,0
4253,-2.5568791423190116,0
4254,1.6127796699324564,0
4255,-0.6951133235318511,0
4256,0.4190278967954413,0
4257,-0.09084969653423221,0
4258,0.06144082749797804,0
4259,-0.02565219757330414,0
4260,0.07995087833382197,0
4261,0.00447808674475399,0
4262,0.021380986264056365,0
4263,-0.1359452996377276,0
4264,0.02088735023814556,0
4265,0.04182762482571534,0
4266,0.04999817308437633,0
4267,1.830236315791452,0
4268,6.953906824435303,0
4269,-0.4084459674008051,0
4270,-0.7566866548915228,0
4271,0.7576331298781913,0
4272,-0.24969047183153975,0
4273,0.1818628715497258,0
4274,-0.11325851161354211,0
4275,0.08485923959465279,0
4276,0.005733585125043834,0
4277,0.10347431062952547,0
4278,-0.06494611439782454,0
4279,-0.04254630525289032,0
4280,-0.014489379567027498,0
4281,-0.1449617651275273,0
4282,-0.05015473910298357,0
4283,0.1631995963826517,0
4284,3.679628424520086,0
4285,6.0446268514022705,0
4286,-2.8570101852779772,0
4287,1.1246543664501552,0
4288,-0.5164238475537185,0
4289,0.21433986393832538,0
4290,-0.07003555670607117,0
4291,0.04767499611936653,0
4292,0.04097963200117374,0
4293,0.005020456599900292,0
4294,-0.025640578000357336,0
4295,0.0576481410656573,0
4296,0.04908596290733362,0
4297,0.01135404440271508,0
4298,0.029804131934075627,0
4299,-0.025921317826642025,0
4300,0.7044986089657767,0
4301,5.764007259303,0
4302,3.2385792163628198,0
4303,-2.621988791065328,0
4304,1.5235751301082092,0
4305,-0.6720455504727434,0
4306,0.4067200210996197,0
4307,0.03521485557437412,0
4308,0.08861851890100758,0
4309,-0.031821372794731184,0
4310,0.06742567024827832,0
4311,0.006486009602361134,0
4312,0.024861534918540918,0
4313,0.03733596867250026,0
4314,-0.003390362870138563,0
4315,-0.07133694944290435,0
4316,0.042645766086415085,0
4317,1.8295853580991022,0
4318,6.975678717192794,0
4319,-0.46332622256461165,0
4320,-0.7398704907098861,0
4321,0.6312978114275829,0
4322,-0.4633201632027334,0
4323,0.08996179623427145,0
4324,-0.021441894876898578,0
4325,-0.00678885355193214,0
4326,0.05007369676746201,0
4327,-0.016420108580764512,0
4328,-0.12338341843118586,0
4329,-0.019029734359384737,0
4330,-0.08317840749329575,0
4331,0.03913863624191162,0
4332,0.005233153669479938,0
4333,0.10506039198341341,0
4334,3.6986151712591124,0
4335,6.042269199719907,0
4336,-2.82684852461478,0
4337,1.2009862467750585,0
4338,-0.4625931979299872,0
4339,0.16335977824268477,0
4340,-0.11719836964260782,0
4341,0.031163103316589516,0
4342,0.0023521004743084356,0
4343,-0.012002068479826664,0
4344,-0.08097846595841249,0
4345,0.010541079894382344,0
4346,-0.03566510771708543,0
4347,-0.017357689021990697,0
4348,0.022336361177179326,0
4349,-0.017335108455862426,0
4350,0.5969519997771968,0
4351,5.649208261702253,0
4352,3.065565433908944,0
4353,-2.7300516784181084,0
4354,1.4812805204632917,0
4355,-0.8699594690562263,0
4356,0.4014546709773842,0
4357,-0.1750941645330716,0
4358,0.09683836916551587,0
4359,-0.039925028592144154,0
4360,0.06635150389981037,0
4361,-0.07256369353194556,0
4362,-0.06309303351415396,0
4363,0.009743314727996902,0
4364,-0.07322086812687209,0
4365,-0.013537859150535143,0
4366,0.050871219887988234,0
4367,1.7344862477515635,0
4368,6.939507076262097,0
4369,-0.519384211366738,0
4370,-0.7495348374762845,0
4371,0.5772223371892996,0
4372,-0.3939511268187765,0
4373,0.05050589862520499,0
4374,-0.04276840578897251,0
4375,-0.0003536249769632762,0
4376,-0.014775172861953095,0
4377,-0.0297838929379313,0
4378,0.08497911355670874,0
4379,0.03681936278047126,0
4380,-0.07876573736762096,0
4381,-0.06348936659077964,0
4382,-0.02870178834933943,0
4383,0.17286722322984713,0
4384,3.5829515836722385,0
4385,6.125603523762486,0
4386,-2.783250556680019,0
4387,1.2147620989969141,0
4388,-0.4424320657762717,0
4389,0.2137167550676401,0
4390,-0.1683861887698477,0
4391,0.05779028548774153,0
4392,-0.04525156094187587,0
4393,0.011419419769162898,0
4394,0.039425466073534365,0
4395,0.03647556230486665,0
4396,0.04471675316291558,0
4397,0.01817225149498071,0
4398,-0.027457651362554777,0
4399,0.007158979371200139,0
4400,0.5856261093034266,0
4401,5.806616554416244,0
4402,3.0827324288395124,0
4403,-2.6641171527591014,0
4404,1.549519546716657,0
4405,-0.8292021184011147,0
4406,0.2896974823376491,0
4407,-0.10949987097944455,0
4408,-0.0110262464010853,0
4409,0.0006988326046988517,0
4410,-0.08051187774952204,0
4411,0.009881125635924908,0
4412,-0.03995787570032773,0
4413,0.029514139904401895,0
4414,0.008991691257681757,0
4415,-0.04019864131712735,0
4416,-0.0675207079433516,0
4417,1.8384170453447377,0
4418,6.872807586627342,0
4419,-0.5270278353676331,0
4420,-0.7482224184347719,0
4421,0.6775860509038867,0
4422,-0.35085063279026274,0
4423,0.12632716015992074,0
4424,0.013125545397687222,0
4425,0.07022447718296246,0
4426,0.05759084706846508,0
4427,0.10399012984933093,0
4428,0.1325443816064108,0
4429,0.030016010817319465,0
4430,-0.10468046072264783,0
4431,0.060380412446149244,0
4432,0.0694330583309333,0
4433,0.2097013448557108,0
4434,3.6911505090865453,0
4435,6.0335760807476815,0
4436,-2.8019498512515333,0
4437,1.186011663827674,0
4438,-0.4082181854802748,0
4439,0.21698304526804424,0
4440,0.041692981328023966,0
4441,0.10786763241245743,0
4442,0.006557527082817441,0
4443,0.12966891018309157,0
4444,0.14537279684752044,0
4445,0.04433878651132331,0
4446,0.06699356703505605,0
4447,0.012953902858243271,0
4448,0.044424538541354704,0
4449,0.06259912653381997,0
4450,0.7009363464886003,0
4451,5.799125985923499,0
4452,3.1495053098726515,0
4453,-2.6230433556482646,0
4454,1.7045528766710323,0
4455,-0.7427594184081733,0
4456,0.419968208751158,0
