timestamp,value-0,is_anomaly
0,0.17859074768225608,0.0
1,4.713026117530445,0.0
2,4.9822070558078675,0.0
3,-2.944389863740657,0.0
4,1.5537257516252008,0.0
5,-0.6709688819858719,0.0
6,0.3011612656620572,0.0
7,-0.07934313159231171,0.0
8,0.12287579954894426,0.0
9,0.022775213904623788,0.0
10,0.07743171425658853,0.0
11,0.1116900304368654,0.0
12,-0.01143091098964586,0.0
13,0.09870869451376765,0.0
14,-0.0005421010022358952,0.0
15,0.004597020773587354,0.0
16,0.08493934062903326,0.0
17,0.9993332848912704,0.0
18,6.46915004194698,0.0
19,1.5814951850680121,0.0
20,-1.9905993976049925,0.0
21,1.2694319431952992,0.0
22,-0.6029593630508394,0.0
23,0.17484547136331324,0.0
24,-0.16312928181289046,0.0
25,-0.1142454665569227,0.0
26,0.024248290857568345,0.0
27,-0.016136225016501977,0.0
28,0.03784650575494128,0.0
29,-0.009624640885522298,0.0
30,0.048941885947404416,0.0
31,-0.047092486425647166,0.0
32,0.05176317942430759,0.0
33,0.08761959558016388,0.0
34,2.4669263739243132,0.0
35,6.89357356552502,0.0
36,-1.7722721511910042,0.0
37,0.34184413708379147,0.0
38,0.1502429164623467,0.0
39,-0.05007138595132289,0.0
40,0.09467566195889573,0.0
41,0.012406895533429354,0.0
42,0.06140279840249892,0.0
43,0.06342900967037825,0.0
44,0.005188960848070969,0.0
45,-0.09321501168838375,0.0
46,-0.09302762869704603,0.0
47,0.010321447753908843,0.0
48,0.028963217235227427,0.0
49,-0.06512357109384438,0.0
50,0.3527003497378697,0.0
51,4.602278158044235,0.0
52,4.976324887758216,0.0
53,-3.0398535712741195,0.0
54,1.4856006906420391,0.0
55,-0.7369842934071203,0.0
56,0.33174721337686763,0.0
57,-0.09783412855991412,0.0
58,-0.021363564577291612,0.0
59,-0.017488535137775173,0.0
60,0.05937543505138501,0.0
61,0.0034942081891514414,0.0
62,0.08540158237579512,0.0
63,-0.025071423832765154,0.0
64,0.026487177889321527,0.0
65,0.029268775854268136,0.0
66,-0.002176718042671691,0.0
67,0.9658466230069565,0.0
68,6.439650190166599,0.0
69,1.5819774057885276,0.0
70,-1.9274851207849404,0.0
71,1.3030247575296758,0.0
72,-0.6159239784294203,0.0
73,0.32264909091170557,0.0
74,-0.06297939128934427,0.0
75,-0.01497291903179735,0.0
76,-0.17657681623525143,0.0
77,0.025798533657785096,0.0
78,-0.01924961725325583,0.0
79,-0.003570866565055661,0.0
80,0.045463218949399656,0.0
81,0.040095939452315134,0.0
82,0.08492434198700312,0.0
83,-0.02318220353446533,0.0
84,2.5209261477365166,0.0
85,6.903005730816397,0.0
86,-1.6880641365365823,0.0
87,0.20289223472187723,0.0
88,0.16527998219381718,0.0
89,-0.015999002841910213,0.0
90,0.03402297501985538,0.0
91,0.07884443880302658,0.0
92,0.04999318711118498,0.0
93,0.10106918630665364,0.0
94,0.05901395252669068,0.0
95,0.017217750522403645,0.0
96,-0.044978895803142474,0.0
97,-0.09626514240715693,0.0
98,0.02996940930304883,0.0
99,0.01106463712717427,0.0
100,0.21550983576569047,0.0
101,4.524859005582915,0.0
102,4.854559552086941,0.0
103,-2.9995880430150845,0.0
104,1.552675727560329,0.0
105,-0.8090441603671616,0.0
106,0.21558301661952123,0.0
107,-0.07706135094279873,0.0
108,0.10016051217578079,0.0
109,0.016383198611555485,0.0
110,0.12074811051239324,0.0
111,-0.09078496296717774,0.0
112,0.04595290200016741,0.0
113,0.04175872397560178,0.0
114,0.05526200791357491,0.0
115,-0.02200204029784325,0.0
116,-0.04272202341324271,0.0
117,0.9483324773577212,0.0
118,6.431731467780572,0.0
119,1.666420707093564,0.0
120,-1.9418962414769234,0.0
121,1.1663971619689617,0.0
122,-0.6839388469062793,0.0
123,0.2843157011686569,0.0
124,-0.057087954311547784,0.0
125,-0.03358861829804508,0.0
126,0.028157366374670548,0.0
127,-0.0612616240263216,0.0
128,-0.05259484849010557,0.0
129,0.009379071360506051,0.0
130,-0.07425621703570807,0.0
131,-0.08709822586965339,0.0
132,-0.07708854260139117,0.0
133,-0.10017883330808183,0.0
134,2.4714737203800277,0.0
135,6.874908954742156,0.0
136,-1.7942691935239095,0.0
137,0.2223064419987486,0.0
138,0.08238271083788813,0.0
139,-0.08738930626376251,0.0
140,0.039340874426342626,0.0
141,0.02734652876369109,0.0
142,-0.027271033676648918,0.0
143,-0.08754915598996983,0.0
144,-0.044618365685157806,0.0
145,-0.051887310716491795,0.0
146,-0.0029638995178639794,0.0
147,-0.0966988526605567,0.0
148,-0.028895861237903307,0.0
149,-0.03385056377412236,0.0
150,0.2957768223474889,0.0
151,4.68600505303111,0.0
152,4.952615461225283,0.0
153,-3.0525199167257564,0.0
154,1.5217524319315283,0.0
155,-0.8084594330438166,0.0
156,0.26442995480570786,0.0
157,-0.05307175770107547,0.0
158,-0.04919503533213119,0.0
159,0.008260918309981026,0.0
160,-0.05352134701132094,0.0
161,-0.07161315948038918,0.0
162,-0.10874656748678801,0.0
163,-0.04178292107182776,0.0
164,-0.014994668060192985,0.0
165,0.0030008235825561454,0.0
166,0.02604098973344762,0.0
167,0.9801074625893614,0.0
168,6.398651375614388,0.0
169,1.5319916724508726,0.0
170,-1.9583089236368951,0.0
171,1.1555178348804336,0.0
172,-0.5863231611895178,0.0
173,0.28639665790126556,0.0
174,-0.18580591245675898,0.0
175,0.07063971833501104,0.0
176,-0.02272254219910232,0.0
177,-0.15925551330628457,0.0
178,-0.027393299476957206,0.0
179,-0.023154164799352776,0.0
180,-0.01689887775907233,0.0
181,0.04620487362211714,0.0
182,-0.07028216644814472,0.0
183,-0.08440051898921869,0.0
184,2.5692922523827963,0.0
185,6.8269471703427405,0.0
186,-1.8454840128507235,0.0
187,0.27090272108855684,0.0
188,0.15368209403113645,0.0
189,-0.0815956858610942,0.0
190,0.03095179056146455,0.0
191,0.0224893648815248,0.0
192,-0.036557188597121724,0.0
193,-0.025090439127687506,0.0
194,-0.05481571537431832,0.0
195,0.019156630546682908,0.0
196,-0.06405665980023863,0.0
197,0.005135142198754011,0.0
198,-0.02870614315215148,0.0
199,-0.1385222832310347,0.0
200,0.28709726046901274,0.0
201,4.521577314706197,0.0
202,4.9282941527744875,0.0
203,-2.9933222044557164,0.0
204,1.5715538119288184,0.0
205,-0.85148887195779,0.0
206,0.2766557722401373,0.0
207,-0.059153726523181877,0.0
208,-0.06865209439967107,0.0
209,-0.020985581050219776,0.0
210,-0.07367259049601554,0.0
211,0.05131215990701238,0.0
212,-0.00890933231002562,0.0
213,0.025871532121225747,0.0
214,-0.07971351848249797,0.0
215,-0.043681159532392884,0.0
216,0.03670908394850609,0.0
217,1.0004542387064592,0.0
218,6.577495292131328,0.0
219,1.459176544994843,0.0
220,-1.9213286721370182,0.0
221,1.2084923912274395,0.0
222,-0.6061075973415277,0.0
223,0.1965334096555647,0.0
224,-0.07133023593678897,0.0
225,-0.06241143967418348,0.0
226,0.08170950766404095,0.0
227,0.03087009739213218,0.0
228,-0.03756501524933592,0.0
229,0.03124899941694048,0.0
230,-0.027628328473354506,0.0
231,-0.07404292817818568,0.0
232,-0.06414024093305291,0.0
233,0.0246660215381448,0.0
234,2.450302787879887,0.0
235,6.940418001123506,0.0
236,-1.843761475686224,0.0
237,0.17466737220281991,0.0
238,0.029165234976806717,0.0
239,-0.039497713813729435,0.0
240,0.03031620566615964,0.0
241,-0.08330483884004951,0.0
242,0.02370251340468884,0.0
243,0.020768963408825784,0.0
244,-0.014024460351328358,0.0
245,0.0700660542653305,0.0
246,-0.026642980195333572,0.0
247,0.06898494389360525,0.0
248,0.018217269610411133,0.0
249,-0.06332547040607583,0.0
250,0.27528322710347314,0.0
251,4.692103956950086,0.0
252,4.996771124068558,0.0
253,-2.970610017532683,0.0
254,1.558333079619322,0.0
255,-0.8526159478874465,0.0
256,0.23431283142272583,0.0
257,-0.09866119395667475,0.0
258,-0.019815334310397212,0.0
259,-0.013938411091803719,0.0
260,-0.002954256961706732,0.0
261,-0.041219797406905165,0.0
262,-0.008916437508933145,0.0
263,-0.017569098814185106,0.0
264,-0.03356944832209492,0.0
265,-0.0014304574355947924,0.0
266,-0.001290031189152524,0.0
267,0.9604230428072213,0.0
268,6.461322152362102,0.0
269,1.4289467207629991,0.0
270,-1.8743547900749817,0.0
271,1.1772719101290325,0.0
272,-0.5274021458343687,0.0
273,0.19617783176705827,0.0
274,-0.12370564378437805,0.0
275,0.08233134363074485,0.0
276,-0.026946112436853423,0.0
277,0.007486909832637941,0.0
278,0.15178390019701582,0.0
279,0.02332194667037956,0.0
280,0.08366409244036224,0.0
281,0.06341839563603274,0.0
282,0.08082504220446882,0.0
283,0.06422840905777277,0.0
284,2.550133866412667,0.0
285,6.888554622048949,0.0
286,-1.7679981867655206,0.0
287,0.28946939713159764,0.0
288,0.13976921921315952,0.0
289,-0.17898895643160212,0.0
290,-0.04497693019349365,0.0
291,0.023441686473043448,0.0
292,0.05305059257104455,0.0
293,0.039304814101086154,0.0
294,-0.027854298845167845,0.0
295,-0.005149567765718245,0.0
296,0.035167152374279184,0.0
297,-0.09514029504550861,0.0
298,-0.08900974886414584,0.0
299,0.025280376480914732,0.0
300,0.3608026586112985,0.0
301,4.719483928212697,0.0
302,4.951356653845742,0.0
303,-2.948635220170667,0.0
304,1.543032437440455,0.0
305,-0.6145125035195592,0.0
306,0.2979353979627927,0.0
307,-0.10169708667039042,0.0
308,0.017589282586473926,0.0
309,-0.028345777978533573,0.0
310,-0.07229562426953898,0.0
311,0.10870881359109384,0.0
312,0.04043274847022883,0.0
313,0.00037318836438179036,0.0
314,0.013147921070175981,0.0
315,-0.020107998153675397,0.0
316,-0.04826801988505195,0.0
317,1.0252476573074365,0.0
318,6.396136361374118,0.0
319,1.385956063540855,0.0
320,-1.8405361458642557,0.0
321,1.2168515151641262,0.0
322,-0.7000324962427691,0.0
323,0.3012342277686131,0.0
324,-0.17669461389008093,0.0
325,0.007502840431776802,0.0
326,-0.09661373776380973,0.0
327,-0.059919384665492986,0.0
328,0.023770263628793822,0.0
329,-0.09096816207219927,0.0
330,0.01736428803241407,0.0
331,-0.036252343881835444,0.0
332,-0.04285633415451896,0.0
333,0.05830121279408762,0.0
334,2.5814320736532386,0.0
335,6.864149472391754,0.0
336,-1.9617207326901462,0.0
337,0.24431200245421172,0.0
338,0.12580065146229755,0.0
339,-0.11990465564238462,0.0
340,0.15532690946177383,0.0
341,-0.04934875152089793,0.0
342,0.03418708631656079,0.0
343,0.0438815417813712,0.0
344,0.0708920178057067,0.0
345,0.1340971415171417,0.0
346,-0.013411040355459437,0.0
347,0.03940034736067991,0.0
348,0.00674395923709796,0.0
349,-0.034797247746556986,0.0
350,0.21716083728886199,0.0
351,4.6316087670695705,0.0
352,4.860371596682379,0.0
353,-3.054648563902601,0.0
354,1.4998817238186652,0.0
355,-0.8549937776745853,0.0
356,0.2683457804680546,0.0
357,-0.1744105599477435,0.0
358,-0.05223729426982852,0.0
359,-0.09838895779281252,0.0
360,-0.06033013049621229,0.0
361,-0.04679560779152104,0.0
362,-0.068942936139821,0.0
363,-0.005172294339322249,0.0
364,0.05737276777206104,0.0
365,-0.02315094624020471,0.0
366,0.08447213346617445,0.0
367,1.0821433013893749,0.0
368,6.645184682196497,0.0
369,1.4216743530261904,0.0
370,-1.789305616127248,0.0
371,1.356443240095778,0.0
372,-0.5406889124431544,0.0
373,0.24911159460675114,0.0
374,-0.1735846976274217,0.0
375,0.08079572314024627,0.0
376,0.04158662917323525,0.0
377,0.06276137446188598,0.0
378,0.036376075907121316,0.0
379,-0.035412929558898326,0.0
380,-0.05342782750369945,0.0
381,0.05713793299652323,0.0
382,-0.03503236772194675,0.0
383,0.0664968257081353,0.0
384,2.4852253663040624,0.0
385,6.788436486743784,0.0
386,-1.9767132962948917,0.0
387,0.3451636969372276,0.0
388,0.021222397907339118,0.0
389,-0.19018975546203176,0.0
390,-0.02155402080428049,0.0
391,0.035576283890052185,0.0
392,-0.07895534651449851,0.0
393,-0.007315990604831214,0.0
394,-0.04817506562354633,0.0
395,-0.02531229732498593,0.0
396,-0.015295028937693862,0.0
397,-0.07425151531265328,0.0
398,-0.05515669930445292,0.0
399,-0.016624646159909703,0.0
400,0.27662649877062034,0.0
401,4.611864581813623,0.0
402,4.785504371787704,0.0
403,-2.9793065440946283,0.0
404,1.3978175271952735,0.0
405,-0.7052706336182182,0.0
406,0.18159438104328296,0.0
407,-0.17157214459483022,0.0
408,-0.06613584407706838,0.0
409,-0.006795953725515405,0.0
410,-0.0619039504075454,0.0
411,-0.011619594056623453,0.0
412,-0.06188155709202893,0.0
413,-0.08639818941166796,0.0
414,-0.10337253673424687,0.0
415,-0.005702715575930377,0.0
416,-0.051009373966429065,0.0
417,0.9524312314637468,0.0
418,6.456517495661919,0.0
419,1.3306115612972178,0.0
420,-1.8742072335271232,0.0
421,1.1830378196149467,0.0
422,-0.7851072022838703,0.0
423,0.22054751920789267,0.0
424,-0.12777343038660893,0.0
425,-0.06082331056153987,0.0
426,-0.03517409785407297,0.0
427,-0.1368284223814701,0.0
428,-0.03323517648567667,0.0
429,-0.11279577361759241,0.0
430,-0.051392323512739736,0.0
431,-0.10879346932473519,0.0
432,-0.10256469250402461,0.0
433,-0.03397273860021309,0.0
434,2.478930409609157,0.0
435,6.734986464005918,0.0
436,-2.040573556539532,0.0
437,0.2509051318207932,0.0
438,0.01687592178749635,0.0
439,-0.139049012138272,0.0
440,-0.001613140587816829,0.0
441,-0.1303029856061577,0.0
442,-0.04490469923908091,0.0
443,-0.03510390568608588,0.0
444,-0.09104370702267392,0.0
445,-0.08781454749900805,0.0
446,-0.0017396945281106975,0.0
447,-0.06908951739502607,0.0
448,0.04930653130220045,0.0
449,-0.04518538356567003,0.0
450,0.3003215183851521,0.0
451,4.6623630934094855,0.0
452,4.8327111004354535,0.0
453,-2.9975368324853777,0.0
454,1.549207257655,0.0
455,-0.7985734469262333,0.0
456,0.28064307760491336,0.0
457,-0.07764712079136712,0.0
458,0.008228518342592464,0.0
459,-0.04839740699050093,0.0
460,-0.06012683175407045,0.0
461,-0.06708187994499307,0.0
462,-0.005833636514973865,0.0
463,-0.10518741721731997,0.0
464,-0.011360889610005254,0.0
465,-0.016900649006219542,0.0
466,-0.028359423862561378,0.0
467,0.9153621297651502,0.0
468,6.575381928516038,0.0
469,1.317419604026748,0.0
470,-1.8890971754399186,0.0
471,1.189334892657334,0.0
472,-0.6767885645754144,0.0
473,0.13923130630455116,0.0
474,-0.18565499240085953,0.0
475,-0.04840170672509483,0.0
476,-0.002066185818280525,0.0
477,-0.019406859080341572,0.0
478,0.02571250952118017,0.0
479,0.0499343440080099,0.0
480,-0.01993178938610452,0.0
481,-0.09012001906870515,0.0
482,-0.15424500249154777,0.0
483,0.006514718584861954,0.0
484,2.577803017579508,0.0
485,6.804520224261406,0.0
486,-1.9791158582535335,0.0
487,0.412011970972169,0.0
488,-0.003997213002675096,0.0
489,-0.0677146328375863,0.0
490,-0.05312412966339372,0.0
491,-0.029169070077747328,0.0
492,0.08175556718781739,0.0
493,0.03691339900579895,0.0
494,-0.006726891608960797,0.0
495,-0.00386693476351508,0.0
496,-0.10664718804875462,0.0
497,-0.05643372178470407,0.0
498,-0.13509233111544644,0.0
499,-0.06549298523427553,0.0
500,0.23940193332413276,0.0
501,4.669587083820075,0.0
502,4.754093025385928,0.0
503,-3.020096200845989,0.0
504,1.5422085425612062,0.0
505,-0.8943322912623333,0.0
506,0.3092258844456719,0.0
507,-0.125786490200198,0.0
508,0.13177755489052131,0.0
509,0.09374813601025085,0.0
510,0.002644247115688045,0.0
511,0.023283729288559766,0.0
512,0.1077940616774446,0.0
513,0.07264498186426344,0.0
514,-0.02105148269632617,0.0
515,0.04951235025324416,0.0
516,-0.006001960542972191,0.0
517,1.1027796118414492,0.0
518,6.570085909741637,0.0
519,1.4020529425671129,0.0
520,-1.8236737988394007,0.0
521,1.1780770907161207,0.0
522,-0.7265896214478957,0.0
523,0.2638791985946441,0.0
524,-0.12009974288340543,0.0
525,-0.026527992803592523,0.0
526,-0.06045803281417285,0.0
527,0.028959891880899834,0.0
528,-0.17970948098570833,0.0
529,-0.025791059355340762,0.0
530,-0.025758729413194337,0.0
531,0.05243877296519135,0.0
532,0.0645941681367312,0.0
533,0.06615448556764754,0.0
534,2.643869328345064,0.0
535,6.897503769775298,0.0
536,-1.9331958369965072,0.0
537,0.3767442799350083,0.0
538,0.16572391963359312,0.0
539,-0.12757327323402096,0.0
540,0.017083897745910164,0.0
541,0.018335825815575437,0.0
542,-0.038524557316544035,0.0
543,-0.012211770108009747,0.0
544,-0.01205644684084171,0.0
545,0.08986275389754853,0.0
546,-0.06939188991746245,0.0
547,0.043183416399965716,0.0
548,-0.0059776990309657295,0.0
549,0.035842099991472115,0.0
550,0.3247338492826009,0.0
551,4.76723616457419,0.0
552,4.7876775675408005,0.0
553,-2.990549488308235,0.0
554,1.4651365879824372,0.0
555,-0.7669642094594127,0.0
556,0.26697513015206487,0.0
557,0.03895096082151622,0.0
558,0.007829516452204545,0.0
559,0.01255348491948555,0.0
560,0.023941259519421887,0.0
561,-0.06631036060943918,0.0
562,-0.07145877871211223,0.0
563,0.025156930657704454,0.0
564,0.05726751746932344,0.0
565,0.06635693672852945,0.0
566,0.0030219064693923145,0.0
567,1.0546723433475194,0.0
568,6.605016266256091,0.0
569,1.2902953961835666,0.0
570,-1.7828470978553081,0.0
571,1.3218696216215287,0.0
572,-0.4906722294422272,0.0
573,0.275796733438854,0.0
574,-0.08815690710709695,0.0
575,0.03533333942544449,0.0
576,-0.004575362323697197,0.0
577,0.033853020370535065,0.0
578,0.05155157408864839,0.0
579,0.010370059288366325,0.0
580,0.06231288285296824,0.0
581,-0.03802354436157308,0.0
582,-0.02144926307938598,0.0
583,-0.04019492475712449,0.0
584,2.6012331638013197,0.0
585,6.847642039341219,0.0
586,-1.8761583859117112,0.0
587,0.2714974155257865,0.0
588,0.018496934688272126,0.0
589,-0.04485903992604394,0.0
590,0.09286484589740725,0.0
591,0.03044476066390353,0.0
592,0.013235073453644117,0.0
593,0.0011474898460021522,0.0
594,0.0027393644269410686,0.0
595,-0.030817865779987137,0.0
596,-0.025505163869736166,0.0
597,-0.007567780336808931,0.0
598,-0.02228431954335261,0.0
599,-0.044811764254360856,0.0
600,0.3251680882155501,0.0
601,4.704720552812665,0.0
602,4.744398452883343,0.0
603,-3.0054750877610394,0.0
604,1.63029136767028,0.0
605,-0.6400607672210133,0.0
606,0.331386540626375,0.0
607,-0.06732410809399698,0.0
608,0.08681437209499687,0.0
609,0.049391515455137334,0.0
610,0.022618332717315188,0.0
611,-0.0315446733053513,0.0
612,0.06769938198432715,0.0
613,-0.004931890274702484,0.0
614,0.006817908492755861,0.0
615,0.08337638494255163,0.0
616,-0.034742228278003745,0.0
617,1.139609405781463,0.0
618,6.582008760791258,0.0
619,1.2703126762896766,0.0
620,-1.706636720676454,0.0
621,1.1982955457710922,0.0
622,-0.6459196955731781,0.0
623,0.28132359416941793,0.0
624,-0.06392248956507471,0.0
625,-0.06187791191775408,0.0
626,-0.01590033442208573,0.0
627,0.05425641662825344,0.0
628,0.01045814465040476,0.0
629,-0.09922346506239847,0.0
630,0.07969407144127619,0.0
631,-0.009054439178156352,0.0
632,0.013294822128723061,0.0
633,0.1190671062940579,0.0
634,2.728420041627719,0.0
635,6.867469448049524,0.0
636,-1.9902546711472915,0.0
637,0.3503518573197467,0.0
638,0.015546859774180813,0.0
639,-0.07886632792736184,0.0
640,0.0864603548937097,0.0
641,0.018875240399748933,0.0
642,0.015428919154285724,0.0
643,0.07062167798036346,0.0
644,0.045234375771067384,0.0
645,-0.043165710493011336,0.0
646,-0.03007997771443862,0.0
647,0.04206568382657556,0.0
648,0.028035766672770912,0.0
649,-0.031855398625138795,0.0
650,0.3424633116126897,0.0
651,4.820461829767174,0.0
652,4.750520536247431,0.0
653,-3.0049832653680655,0.0
654,1.5560404258962999,0.0
655,-0.6612599135618736,0.0
656,0.3385463663420874,0.0
657,-0.09520531861934244,0.0
658,0.07208956344268484,0.0
659,0.0526144435189845,0.0
660,0.005118366210629225,0.0
661,0.062452099685327056,0.0
662,0.014755993097186535,0.0
663,-0.04074491137140625,0.0
664,-0.03916117981057307,0.0
665,0.05688603167381618,0.0
666,-0.02631233028147641,0.0
667,1.1609202305910702,0.0
668,6.514919801437589,0.0
669,1.1335513513234903,0.0
670,-1.7994834095108165,0.0
671,1.1379101841895525,0.0
672,-0.5613076409165264,0.0
673,0.30564023161421494,0.0
674,-0.10493957625817585,0.0
675,0.030102108200296754,0.0
676,0.02572561926333657,0.0
677,0.1368799166959137,0.0
678,0.058387917876134066,0.0
679,-0.00016834824475363275,0.0
680,0.008033914931530023,0.0
681,-0.019927833587065534,0.0
682,-0.026835002553008365,0.0
683,0.2041738388429507,0.0
684,2.7451473031770366,0.0
685,6.905667172405453,0.0
686,-2.012993031609237,0.0
687,0.345402662914737,0.0
688,0.09603301685227697,0.0
689,0.022476469237066907,0.0
690,0.0027087865198759872,0.0
691,0.05170672004659209,0.0
692,0.01070489190584235,0.0
693,-0.08106855196937221,0.0
694,0.12177013525161727,0.0
695,0.0568500526840071,0.0
696,-0.0012696763133749345,0.0
697,0.048262583197862634,0.0
698,-0.045805068955950365,0.0
699,-0.012674257633907218,0.0
700,0.27754557136607394,0.0
701,4.741291817067309,0.0
702,4.731963941159346,0.0
703,-2.901048056914274,0.0
704,1.551234239447091,0.0
705,-0.7150899316693342,0.0
706,0.34783703211241246,0.0
707,-0.06068678332525283,0.0
708,0.05150192697322712,0.0
709,0.019513572328150777,0.0
710,0.037815277700514446,0.0
711,0.15032337589809253,0.0
712,0.042335153296591946,0.0
713,0.02258616128483841,0.0
714,-0.03444239163049741,0.0
715,0.11883353100483772,0.0
716,0.05160822730917989,0.0
717,1.0612011259458807,0.0
718,6.593902174935413,0.0
719,1.275414095151928,0.0
720,-1.799059435503566,0.0
721,1.198354811804184,0.0
722,-0.6158051992677165,0.0
723,0.24877333201655094,0.0
724,-0.034277412306235086,0.0
725,-0.05510497616762787,0.0
726,-0.014916465028931652,0.0
727,-0.0012724350447207277,0.0
728,-0.006750053195854838,0.0
729,-0.0035067141008993004,0.0
730,-0.09053558203832146,0.0
731,-0.04545823994068004,0.0
732,0.02017066707405092,0.0
733,0.019719187787670622,0.0
734,2.592682312271323,0.0
735,6.788675511739034,0.0
736,-2.0165400747144435,0.0
737,0.2238587326457426,0.0
738,0.11314274057112153,0.0
739,-0.09815148703914675,0.0
740,0.06359087060331221,0.0
741,0.057704758824236785,0.0
742,0.012017281714592482,0.0
743,0.009180674814522768,0.0
744,-0.06622467437731526,0.0
745,0.025087609815873674,0.0
746,-0.033242492464395784,0.0
747,-0.1193925125370668,0.0
748,-0.0352670772453315,0.0
749,-0.0363496481089872,0.0
750,0.19828682420782784,0.0
751,4.788542694443018,0.0
752,4.687884075209606,0.0
753,-3.075518992610484,0.0
754,1.5247312308230734,0.0
755,-0.7914141412066013,0.0
756,0.1960750854130448,0.0
757,-0.02253980842071661,0.0
758,0.06198313450876071,0.0
759,-0.07494377939844267,0.0
760,0.020368051960548327,0.0
761,0.023488736829920732,0.0
762,0.04417302617874342,0.0
763,-0.029777983735533118,0.0
764,0.06544038861155768,0.0
765,0.06564993551398192,0.0
766,-0.017138038189588804,0.0
767,1.2390403837794128,0.0
768,6.585007422132023,0.0
769,1.3627439518212756,0.0
770,-1.7575249795615442,0.0
771,1.2169967040305174,0.0
772,-0.45176593496522105,0.0
773,0.3894276644875589,0.0
774,-0.022819203130610175,0.0
775,0.06448185029295142,0.0
776,0.07310865078008458,0.0
777,0.05447083688612389,0.0
778,-0.03870613240907938,0.0
779,-0.028968764021634903,0.0
780,0.018561786854369974,0.0
781,-0.006654730956390293,0.0
782,0.03958852524619641,0.0
783,-0.011004102617375465,0.0
784,2.6389193914541074,0.0
785,6.792041793099986,0.0
786,-1.979278520491145,0.0
787,0.34721021138217273,0.0
788,0.02500007462670419,0.0
789,0.009648556165769137,0.0
790,-0.0009297777977280083,0.0
791,0.006789881311012284,0.0
792,0.003036064940736499,0.0
793,-0.013170196401553242,0.0
794,-0.028650949627609217,0.0
795,0.04171603834544978,0.0
796,0.0613564053597214,0.0
797,0.06135433972241998,0.0
798,0.08926807664603473,0.0
799,-0.0682130414126049,0.0
800,0.4045301305455903,0.0
801,4.742328107728987,0.0
802,4.710187722908994,0.0
803,-3.1156304815525298,0.0
804,1.5151489684746853,0.0
805,-0.8164032190077811,0.0
806,0.33818980704585677,0.0
807,-0.10985534401746629,0.0
808,-0.06042670822592042,0.0
809,-0.07157235873953686,0.0
810,0.049028677997934166,0.0
811,-0.030603164555675584,0.0
812,0.0816386463288127,0.0
813,-0.07761898439872858,0.0
814,0.04772311369924674,0.0
815,-0.07426406828034325,0.0
816,0.046053334563716776,0.0
817,1.0046126256873509,0.0
818,6.615221382890953,0.0
819,1.20156836724886,0.0
820,-1.8479448502689888,0.0
821,1.0333592042359219,0.0
822,-0.6013406414079889,0.0
823,0.2073007417190914,0.0
824,-0.21149176081157992,0.0
825,-0.03670930442104313,0.0
826,-0.06279390555250118,0.0
827,-0.010190895999251447,0.0
828,-0.09600321718299165,0.0
829,-0.04510800195577534,0.0
830,-0.10391541715532895,0.0
831,-0.011889568617018668,0.0
832,0.024223363815515722,0.0
833,-0.06844849357146844,0.0
834,2.6292389337589595,0.0
835,6.706350129610302,0.0
836,-2.0990331067141006,0.0
837,0.4135093285709302,0.0
838,0.0987960836937875,0.0
839,0.04074681937953642,0.0
840,-0.04384416293239814,0.0
841,0.10056077179425978,0.0
842,-0.03546822778713382,0.0
843,-0.05013605517012109,0.0
844,0.05909685656242966,0.0
845,-0.056803604539488434,0.0
846,-0.03574396814255858,0.0
847,-0.04466245468934585,0.0
848,0.024633962621686788,0.0
849,-0.06922396697778972,0.0
850,0.31453032908439554,0.0
851,4.6710353532100655,0.0
852,4.601606186066484,0.0
853,-3.040610641841097,0.0
854,1.5661126795756701,0.0
855,-0.7428765203741152,0.0
856,0.2538325358413776,0.0
857,-0.045857798791346285,0.0
858,0.10850214375066158,0.0
859,0.013734313962173046,0.0
860,0.004830875979743305,0.0
861,-0.0030759515857174107,0.0
862,-0.022308763953945727,0.0
863,-0.00625661515125029,0.0
864,0.039866071433436616,0.0
865,-0.04103723424443226,0.0
866,-0.06255873186037474,0.0
867,1.1195885621174844,0.0
868,6.589014420089252,0.0
869,1.1228413957872967,0.0
870,-1.6118586152753385,0.0
871,1.119259099576744,0.0
872,-0.635413291843638,0.0
873,0.1985091217205166,0.0
874,-0.12189822154022142,0.0
875,0.05813602977597357,0.0
876,-0.02081454497379372,0.0
877,-0.04021248237104062,0.0
878,-0.021041294436844084,0.0
879,-0.03091186162170441,0.0
880,-0.10197831591301203,0.0
881,0.001199609281371583,0.0
882,-0.0735218419412669,0.0
883,-0.045473686129766586,0.0
884,2.6538070324459224,0.0
885,6.668678653734485,0.0
886,-2.1215543841190057,0.0
887,0.39981488350993183,0.0
888,0.01044343553202454,0.0
889,-0.132564436679309,0.0
890,-0.05647614659090655,0.0
891,-0.08326967538441508,0.0
892,0.026546011660492856,0.0
893,0.03838903849521537,0.0
894,-0.03698878454983252,0.0
895,0.010819644828608926,0.0
896,0.08301267308840082,0.0
897,-0.05264856290898829,0.0
898,0.01848799326989544,0.0
899,0.07245499848803776,0.0
900,0.3015354613113161,0.0
901,4.9158365210920385,0.0
902,4.696634841072517,0.0
903,-3.0005575645095197,0.0
904,1.5987704014303938,0.0
905,-0.8061351133781247,0.0
906,0.32704377631481363,0.0
907,-0.17085326667766212,0.0
908,-0.0026969956012964993,0.0
909,0.0012945405102902097,0.0
910,-0.06811568772292162,0.0
911,-0.03996524635333528,0.0
912,-0.02818384107347233,0.0
913,-0.06823871900907291,0.0
914,0.022465192762710928,0.0
915,-0.007504759449768732,0.0
916,-0.09598967699415947,0.0
917,1.0671458116309607,0.0
918,6.50605279164172,0.0
919,1.0868098980944845,0.0
920,-1.6376175002651834,0.0
921,1.1566705384120417,0.0
922,-0.6205516108327279,0.0
923,0.1802010730085881,0.0
924,-0.09779948154579336,0.0
925,0.014351056316710381,0.0
926,-0.08503588210123632,0.0
927,0.020195204637886884,0.0
928,0.09366604323084843,0.0
929,0.03184023429622035,0.0
930,-0.08893282516022089,0.0
931,0.007070293761871956,0.0
932,0.004662002715959193,0.0
933,0.006315977305838175,0.0
934,2.6296718249812283,0.0
935,6.703305399358391,0.0
936,-2.106956630029099,0.0
937,0.30706109677405413,0.0
938,-0.0009199180202931131,0.0
939,-0.07673820679366898,0.0
940,-0.05612222703624375,0.0
941,-0.04633332199216625,0.0
942,-0.05340259719137405,0.0
943,-0.04004354671789317,0.0
944,0.053314577751114575,0.0
945,-0.025240407644490148,0.0
946,-0.12159099685043011,0.0
947,-0.11119272315694201,0.0
948,0.07456551311724109,0.0
949,-0.023016115140983746,0.0
950,0.35972472123352317,0.0
951,4.81563304293931,0.0
952,4.647003525981922,0.0
953,-3.074258289068493,0.0
954,1.528380087968532,0.0
955,-0.7738898560051337,0.0
956,0.2610564694062218,0.0
957,-0.15195856282057685,0.0
958,-0.15922242685512444,0.0
959,-0.154292335747798,0.0
960,0.006665512943689417,0.0
961,-0.09863624899378051,0.0
962,-0.1482305770294325,0.0
963,0.0006779787023159164,0.0
964,0.011665814070786602,0.0
965,-0.03669741751135168,0.0
966,-0.03827598593257481,0.0
967,1.1789784649462627,0.0
968,6.608368810362722,0.0
969,1.0761107500329357,0.0
970,-1.6792649483165276,0.0
971,1.093885902611216,0.0
972,-0.5810121565194709,0.0
973,0.31082976470871126,0.0
974,-0.05372524124759588,0.0
975,-0.00044506107315258475,0.0
976,-0.009843275048369477,0.0
977,-0.05248133099487138,0.0
978,0.04489184704520715,0.0
979,-0.04366879320880542,0.0
980,-0.011976674022753698,0.0
981,0.002262590179676817,0.0
982,-0.021814857655434842,0.0
983,0.0026383953108111424,0.0
984,2.7052407065221766,0.0
985,6.792081093064752,0.0
986,-2.0503788492915462,0.0
987,0.4178940499486117,0.0
988,-0.015360300198959074,0.0
989,-0.04449247745251948,0.0
990,-0.039068438633829874,0.0
991,0.06893706509671592,0.0
992,-0.07664176447324873,0.0
993,-0.0713455645586126,0.0
994,-0.11837398987601505,0.0
995,-0.014745958451415476,0.0
996,-0.13767226436905,0.0
997,-0.022516916999931757,0.0
998,0.01082550811816791,0.0
999,-0.06980882348205837,0.0
1000,0.24135991393980777,0.0
1001,4.788297846389978,0.0
1002,4.624518003448419,0.0
1003,-3.0459166933724835,0.0
1004,1.5825427828355019,0.0
1005,-0.8109909361594008,0.0
1006,0.30977418215142005,0.0
1007,-0.012225499511821294,0.0
1008,-0.054349760674521574,0.0
1009,0.048118628427266,0.0
1010,0.06565827997070275,0.0
1011,0.0036869225060396915,0.0
1012,-0.12985608694675466,0.0
1013,-0.007345124274579493,0.0
1014,0.008350009880758014,0.0
1015,-0.1200014860068217,0.0
1016,-0.16207008944628998,0.0
1017,1.1374546868608706,0.0
1018,6.632920151906807,0.0
1019,0.9730632002714975,0.0
1020,-1.8042516906504862,0.0
1021,1.0386743382859907,0.0
1022,-0.6025446205448723,0.0
1023,0.16597250520131274,0.0
1024,-0.09551661126392968,0.0
1025,-0.02591311151857663,0.0
1026,-0.056949617064170045,0.0
1027,0.027299862382007288,0.0
1028,-0.06358157327818056,0.0
1029,-0.057516122495043946,0.0
1030,-0.10915512217371054,0.0
1031,0.029751370511625498,0.0
1032,-0.046068258387504404,0.0
1033,0.0982331109340071,0.0
1034,2.698097032828306,0.0
1035,6.7495723576604245,0.0
1036,-2.211612174768184,0.0
1037,0.44548904020362623,0.0
1038,-0.06055364199199012,0.0
1039,-0.13933808532558734,0.0
1040,-0.061769569377772685,0.0
1041,-0.059712273934413335,0.0
1042,-0.15428786061662447,0.0
1043,-0.02913133609597649,0.0
1044,-0.01653944650407721,0.0
1045,-0.114749757130333,0.0
1046,-0.07976963575504062,0.0
1047,-0.16464192128365707,0.0
1048,-0.08322326587228443,0.0
1049,-0.08525250177838069,0.0
1050,0.26016644082636836,0.0
1051,4.686787246816427,0.0
1052,4.363096215869906,0.0
1053,-3.17511607496607,0.0
1054,1.4287675366125798,0.0
1055,-0.9638995312701369,0.0
1056,0.16064311737275155,0.0
1057,-0.23813081808302458,0.0
1058,0.05003585567493654,0.0
1059,-0.19347635922351047,0.0
1060,-0.14210256257125,0.0
1061,-0.20043410434429026,0.0
1062,-0.1367194330872492,0.0
1063,-0.04480268071863184,0.0
1064,-0.11544390318860434,0.0
1065,-0.06546114658725957,0.0
1066,-0.10431559989677765,0.0
1067,1.0816356342755937,0.0
1068,6.492126015122889,0.0
1069,0.9490150774025281,0.0
1070,-1.716270281377614,0.0
1071,1.0620413206276031,0.0
1072,-0.6495701204849563,0.0
1073,0.1926969241831018,0.0
1074,-0.18141606980350017,0.0
1075,-0.05325568462176143,0.0
1076,-0.044878888949522446,0.0
1077,-0.06648917863638859,0.0
1078,-0.14202587860836652,0.0
1079,-0.06080878829885917,0.0
1080,-0.06693643904256116,0.0
1081,-0.1371568023866592,0.0
1082,-0.09140054906244499,0.0
1083,-0.06886466017896672,0.0
1084,2.7165496460630183,0.0
1085,6.602995674900113,0.0
1086,-2.23545301946509,0.0
1087,0.41301237645981215,0.0
1088,-0.0544073178446119,0.0
1089,-0.07333011107900869,0.0
1090,-0.009250292525264148,0.0
1091,-0.025969876453061792,0.0
1092,-0.04271468891198918,0.0
1093,-0.1433974463277211,0.0
1094,-0.011309032465356441,0.0
1095,-0.022077372306792572,0.0
1096,-0.061284833277946316,0.0
1097,-0.03046915034848063,0.0
1098,-0.05760047063325935,0.0
1099,-0.0901371847198445,0.0
1100,0.19883356449673814,0.0
1101,4.755493714872903,0.0
1102,4.518131174909756,0.0
1103,-3.1010853547989705,0.0
1104,1.530151484197566,0.0
1105,-0.8838479985566289,0.0
1106,0.18107355084678342,0.0
1107,-0.21130041190214896,0.0
1108,-0.06300607201040326,0.0
1109,-0.200258876595101,0.0
1110,-0.16779699977017382,0.0
1111,-0.14787916423572633,0.0
1112,-0.18601037123107161,0.0
1113,-0.08160734147945223,0.0
1114,-0.10805906814771554,0.0
1115,-0.1559149631447787,0.0
1116,-0.10426420330402696,0.0
1117,0.998299842097038,0.0
1118,6.535939200383387,0.0
1119,0.8943177514182752,0.0
1120,-1.80800809899109,0.0
1121,1.0279657295828852,0.0
1122,-0.6805491878647849,0.0
1123,0.24960903205070198,0.0
1124,-0.20762534626420726,0.0
1125,-0.008424908378356993,0.0
1126,-0.08555257542179767,0.0
1127,-0.10144621658063785,0.0
1128,-0.1391556058668552,0.0
1129,-0.1747403457885519,0.0
1130,-0.055372872826180614,0.0
1131,-0.0929374829670285,0.0
1132,-0.07602149306719128,0.0
1133,-0.02114286333989392,0.0
1134,2.666331600426828,0.0
1135,6.605912172756945,0.0
1136,-2.246576679456213,0.0
1137,0.4062599873376296,0.0
1138,-0.09161077364402763,0.0
1139,-0.19427799877737228,0.0
1140,-0.04453493557638034,0.0
1141,-0.06916131666627737,0.0
1142,-0.057981581593045436,0.0
1143,-0.09306795409028447,0.0
1144,-0.11467301938987365,0.0
1145,-0.1320012321007498,0.0
1146,-0.07859891248439195,0.0
1147,-0.10520394736262123,0.0
1148,0.0007881967336133833,0.0
1149,-0.09469997392160764,0.0
1150,0.2296794427919063,0.0
1151,4.795072042996108,0.0
1152,4.476363460650888,0.0
1153,-3.049190967399791,0.0
1154,1.55827400629721,0.0
1155,-0.8528334200809006,0.0
1156,0.2074413532488135,0.0
1157,-0.33637892623534216,0.0
1158,-0.1730475598184192,0.0
1159,-0.14178522426735618,0.0
1160,-0.186037549470658,0.0
1161,-0.09733337863184294,0.0
1162,-0.1768034160232015,0.0
1163,-0.2009008099654544,0.0
1164,-0.16097929548107062,0.0
1165,-0.09000312610704815,0.0
1166,0.006935763203484241,0.0
1167,1.1535604917380917,0.0
1168,6.656726080315282,0.0
1169,0.9152913908142317,0.0
1170,-1.8038688698226666,0.0
1171,1.0419024294244437,0.0
1172,-0.6314760570475934,0.0
1173,0.17890277669064766,0.0
1174,-0.04623596955651012,0.0
1175,0.011240688877198663,0.0
1176,-0.06293352365968435,0.0
1177,0.02983685358926832,0.0
1178,0.028080622857840923,0.0
1179,-0.03730438871804147,0.0
1180,-0.03256631833200074,0.0
1181,0.05841569223665054,0.0
1182,-0.059505611345641904,0.0
1183,0.051791592926872035,0.0
1184,2.7041049113967497,0.0
1185,6.762854393699028,0.0
1186,-2.186798379737387,0.0
1187,0.49638064614784777,0.0
1188,0.07599451136936894,0.0
1189,-0.029937345522318796,0.0
1190,0.0173378306133119,0.0
1191,0.03566220254055402,0.0
1192,-0.05370984773586643,0.0
1193,0.04145541948800012,0.0
1194,-0.018623824051474766,0.0
1195,0.10227879413024418,0.0
1196,-0.08753547345680052,0.0
1197,-0.04394019640570211,0.0
1198,-0.007537429555433491,0.0
1199,0.050773151611773364,0.0
1200,0.387199661894806,0.0
1201,4.89762394489085,0.0
1202,4.562292941822684,0.0
1203,-2.948644049334413,0.0
1204,1.5487461980367505,0.0
1205,-0.6933730442837214,0.0
1206,0.3898694858701944,0.0
1207,-0.007147731304842572,0.0
1208,0.13009772124662292,0.0
1209,-0.012424396972262636,0.0
1210,0.12592429534395047,0.0
1211,0.03234060033443178,0.0
1212,0.10023301853689466,0.0
1213,-0.04979827872871943,0.0
1214,-0.035504869721486323,0.0
1215,0.08385099971921402,0.0
1216,-0.055796804589925225,0.0
1217,1.241762422553265,0.0
1218,6.5807850988916305,0.0
1219,1.0236057330918131,0.0
1220,-1.6058560068317147,0.0
1221,1.1211352635908767,0.0
1222,-0.5549748464679268,0.0
1223,0.26088983492476714,0.0
1224,-0.08831623374967573,0.0
1225,-0.02847897586446297,0.0
1226,0.027915967638273996,0.0
1227,-0.043689286082999094,0.0
1228,-0.02796463057769783,0.0
1229,0.04075002444281018,0.0
1230,-0.05232782207430011,0.0
1231,-0.021464331696114093,0.0
1232,0.024787084196273727,0.0
1233,0.06155957683287733,0.0
1234,2.851632964114198,0.0
1235,6.7288679354266625,0.0
1236,-2.157025995840257,0.0
1237,0.524085057497677,0.0
1238,-0.010384392964694074,0.0
1239,0.031627620294823355,0.0
1240,0.07806026676108174,0.0
1241,0.020023333532791593,0.0
1242,0.026791242193573372,0.0
1243,0.018536131469336838,0.0
1244,0.016212390010956763,0.0
1245,0.004175677976956858,0.0
1246,0.018304505381007537,0.0
1247,0.054899543252677846,0.0
1248,0.005142203295035203,0.0
1249,0.08392832078978776,0.0
1250,0.3508486793630437,0.0
1251,4.926071122381568,0.0
1252,4.492517318211581,0.0
1253,-3.0460327644624554,0.0
1254,1.5446629001394145,0.0
1255,-0.7534682439026811,0.0
1256,0.24622587295566728,0.0
1257,-0.1106639494165931,0.0
1258,-0.04975391537418747,0.0
1259,-0.0787436135299654,0.0
1260,-0.026173851832375583,0.0
1261,0.004765474266464703,0.0
1262,-0.06832041547832325,0.0
1263,-0.1519014247396884,0.0
1264,-0.08851985537504099,0.0
1265,-0.14344004573987107,0.0
1266,-0.04769735565276109,0.0
1267,1.1495557444731255,0.0
1268,6.628244197684049,0.0
1269,0.9397941323143911,0.0
1270,-1.5886651059067118,0.0
1271,1.0704772652848986,0.0
1272,-0.5204859511158052,0.0
1273,0.2573021594274917,0.0
1274,-0.039526545871208796,0.0
1275,0.05916502244016993,0.0
1276,0.11220266262105526,0.0
1277,-0.037478954907782316,0.0
1278,0.028364787886710922,0.0
1279,0.08634524998677287,0.0
1280,0.07446553870994838,0.0
1281,0.019029025039297126,0.0
1282,0.11353793212415597,0.0
1283,0.17109195595996737,0.0
1284,2.8438486541621635,0.0
1285,6.788869215588116,0.0
1286,-2.1443972771925335,0.0
1287,0.6369997678900754,0.0
1288,0.07628875881761002,0.0
1289,-0.10123871485140162,0.0
1290,0.13047239823994874,0.0
1291,0.0265714841557569,0.0
1292,0.06714565480099077,0.0
1293,0.07284223786924501,0.0
1294,0.03898379571534006,0.0
1295,0.08037568076219553,0.0
1296,-0.015391654272887786,0.0
1297,0.06470705709597095,0.0
1298,0.07250322542435497,0.0
1299,0.09290423000364262,0.0
1300,0.4568131294972468,0.0
1301,4.962406872168983,0.0
1302,4.4969025854101545,0.0
1303,-2.954346850958411,0.0
1304,1.6459761948627556,0.0
1305,-0.7165715378240788,0.0
1306,0.3188915066936681,0.0
1307,-0.07433192053567864,0.0
1308,0.041995086991964095,0.0
1309,0.06606193824514983,0.0
1310,-0.06240594362467508,0.0
1311,0.0068942045245429465,0.0
1312,-0.005263696710261444,0.0
1313,0.05432239075546497,0.0
1314,0.017257099688126405,0.0
1315,-0.011258250399883776,0.0
1316,0.05350300999544451,0.0
1317,1.1594851980363676,0.0
1318,6.5947742367940325,0.0
1319,0.9198270613034263,0.0
1320,-1.744246281549844,0.0
1321,1.1230765808786567,0.0
1322,-0.5213668523664008,0.0
1323,0.24735469745259853,0.0
1324,-0.0473566894510348,0.0
1325,0.07025293134879484,0.0
1326,0.08909078313786829,0.0
1327,0.03116800603581046,0.0
1328,-0.026822753808183948,0.0
1329,0.04230536743524409,0.0
1330,0.024961683284909244,0.0
1331,0.053458816556262806,0.0
1332,0.02171854848905433,0.0
1333,0.20944946580944784,0.0
1334,2.7646278285427903,0.0
1335,6.832559607282067,0.0
1336,-2.133466249086984,0.0
1337,0.5871555976717755,0.0
1338,-0.05949882796474113,0.0
1339,0.06782295449534426,0.0
1340,0.06892262219408476,0.0
1341,0.0019676846812455157,0.0
1342,0.0161877881882102,0.0
1343,-0.0417964333981725,0.0
1344,0.06352143217464047,0.0
1345,0.08351462697592699,0.0
1346,-0.02273667853740234,0.0
1347,0.04019073978709369,0.0
1348,0.04574800123144106,0.0
1349,0.03631280832358816,0.0
1350,0.39615875777486154,0.0
1351,4.949535064262638,0.0
1352,4.547660050876404,0.0
1353,-2.836249770806878,0.0
1354,1.686040468213112,0.0
1355,-0.7042806017534525,0.0
1356,0.40462320261890483,0.0
1357,-0.03227610164792619,0.0
1358,0.15838399833402605,0.0
1359,0.1052622214594854,0.0
1360,0.21096881714650811,0.0
1361,-0.06217121817510403,0.0
1362,0.0729042922418702,0.0
1363,0.18650147225117814,0.0
1364,0.05588910942742611,0.0
1365,0.13115152452395568,0.0
1366,0.047694224799647494,0.0
1367,1.2325331061285814,0.0
1368,6.780500384713503,0.0
1369,0.9388829785105065,0.0
1370,-1.502815221674192,0.0
1371,1.1026884654042155,0.0
1372,-0.5584797901932881,0.0
1373,0.21422658060149097,0.0
1374,-0.055731206261779465,0.0
1375,0.10547884959642796,0.0
1376,0.036810856510889306,0.0
1377,-0.06752594188616244,0.0
1378,0.034988242417434263,0.0
1379,-0.04788118896164359,0.0
1380,0.10330581773185564,0.0
1381,0.062261599470153584,0.0
1382,-0.03554831594045367,0.0
1383,0.10732388508164857,0.0
1384,2.850833430617189,0.0
1385,6.773891468672744,0.0
1386,-2.1503537514098388,0.0
1387,0.6015968109318385,0.0
1388,0.044461604110133335,0.0
1389,0.03338997524804132,0.0
1390,0.1031567660736658,0.0
1391,0.09663669764432359,0.0
1392,0.0415707845839713,0.0
1393,0.019244652563337437,0.0
1394,0.08825805509399182,0.0
1395,-0.0644110051968976,0.0
1396,0.14586282666114792,0.0
1397,0.01371048433673408,0.0
1398,0.047641239614727965,0.0
1399,0.10303487221359314,0.0
1400,0.41776584670252737,0.0
1401,5.040703027450936,0.0
1402,4.3963191829551125,0.0
1403,-2.8842375574950014,0.0
1404,1.783442601655631,0.0
1405,-0.640992153216847,0.0
1406,0.32760795893133876,0.0
1407,-0.09785433127927687,0.0
1408,0.10213972063602961,0.0
1409,-0.005619305546640037,0.0
1410,0.05000224068936995,0.0
1411,0.07062697881669686,0.0
1412,0.03580042607428712,0.0
1413,-0.001866011591681302,0.0
1414,0.026464165148346118,0.0
1415,0.07919496652808439,0.0
1416,0.03365850809373282,0.0
1417,1.2984404750244345,0.0
1418,6.750958260742262,0.0
1419,0.9409728066832136,0.0
1420,-1.4826151812037145,0.0
1421,1.1471726901901682,0.0
1422,-0.4924977442566026,0.0
1423,0.3400847310046018,0.0
1424,-0.1118396056627802,0.0
1425,0.00970707136349827,0.0
1426,0.05617084853795476,0.0
1427,0.02735786122326172,0.0
1428,0.06272921901653701,0.0
1429,-0.07107501350983039,0.0
1430,0.12816556742624086,0.0
1431,0.09390246050131892,0.0
1432,-0.004706588772471598,0.0
1433,0.1368410653857942,0.0
1434,2.8663894932565244,0.0
1435,6.723611388638636,0.0
1436,-2.196899909455349,0.0
1437,0.5230708571528213,0.0
1438,-0.032654770254007884,0.0
1439,0.030354474829446948,0.0
1440,0.014126381361642796,0.0
1441,0.08138100074815055,0.0
1442,-0.04192860152123394,0.0
1443,0.0024347443292817225,0.0
1444,0.027423450736272982,0.0
1445,0.08283888433795623,0.0
1446,0.08038549630898467,0.0
1447,0.026939398270119923,0.0
1448,0.024589701766120062,0.0
1449,-0.02476369605726981,0.0
1450,0.41341103144093694,0.0
1451,4.948908937575518,0.0
1452,4.421428323270014,0.0
1453,-3.021280547199881,0.0
1454,1.557656661373492,0.0
1455,-0.7270976610368626,0.0
1456,0.24878229987533831,0.0
1457,-0.16861975178477967,0.0
1458,0.04571801921030891,0.0
1459,-0.05508915400924342,0.0
1460,-0.01032873749735332,0.0
1461,-0.011347151320682454,0.0
1462,-0.04407707332624176,0.0
1463,-0.048705118494614646,0.0
1464,0.03412017363331708,0.0
1465,0.022649584071441596,0.0
1466,0.08764375131691463,0.0
1467,1.2585230213685172,0.0
1468,6.671846930829991,0.0
1469,0.9145709065306894,0.0
1470,-1.4746213273188176,0.0
1471,1.1007238142025386,0.0
1472,-0.5586038043001876,0.0
1473,0.24206851986276956,0.0
1474,-0.0005230610083246691,0.0
1475,0.13268497804646784,0.0
1476,0.03582394874542885,0.0
1477,-0.010176157556533654,0.0
1478,-0.07211181537571566,0.0
1479,0.08241483348091334,0.0
1480,-0.08442329034996426,0.0
1481,-0.019167552378747246,0.0
1482,-0.08408398612278324,0.0
1483,-0.040157559472429244,0.0
1484,2.807889862630375,0.0
1485,6.598616960250976,0.0
1486,-2.3074328388540173,0.0
1487,0.3901378928602165,0.0
1488,-0.11895984503389741,0.0
1489,-0.037038201176812474,0.0
1490,-0.007491025042303069,0.0
1491,-0.028448882899391188,0.0
1492,-0.009721341169339509,0.0
1493,-0.027532680182855214,0.0
1494,-0.042719728893700175,0.0
1495,-0.04935677636860974,0.0
1496,0.07535689081607796,0.0
1497,0.02423937720114564,0.0
1498,-0.08165799515047342,0.0
1499,-0.08961980757726772,0.0
1500,0.33095037358942636,0.0
1501,4.984225738327895,0.0
1502,4.331131457335757,0.0
1503,-2.9642545320117595,0.0
1504,1.5624524482675985,0.0
1505,-0.8188230880433356,0.0
1506,0.30627582329678654,0.0
1507,-0.08995247579562737,0.0
1508,0.10316565240260432,0.0
1509,0.04086366281617501,0.0
1510,0.018910611861829636,0.0
1511,0.018944351028025722,0.0
1512,0.0551086823168357,0.0
1513,0.12499544855594699,0.0
1514,0.0507705542282631,0.0
1515,0.06227190039139658,0.0
1516,-0.02279153560429832,0.0
1517,1.1724554578696185,0.0
1518,6.626733070750096,0.0
1519,0.7951582987510625,0.0
1520,-1.6184257853575463,0.0
1521,1.0477774893487988,0.0
1522,-0.5779709225438145,0.0
1523,0.13085827747936052,0.0
1524,-0.17898967705367297,0.0
1525,0.005513029712692255,0.0
1526,-0.07664906044580724,0.0
1527,-0.04450125490096638,0.0
1528,-0.14420843162620017,0.0
1529,-0.028528653421665502,0.0
1530,-0.05234636387951273,0.0
1531,-0.03102832172177627,0.0
1532,-0.0751245248883727,0.0
1533,-0.061061244761724025,0.0
1534,2.8128880564658503,0.0
1535,6.677347878946144,0.0
1536,-2.2917349643030605,0.0
1537,0.5288882835368168,0.0
1538,-0.15506236744869314,0.0
1539,-0.17366807565330875,0.0
1540,-0.0866535195232916,0.0
1541,-0.09892202219432052,0.0
1542,-0.04959980139570891,0.0
1543,-0.09101972182496312,0.0
1544,-0.08430530163602762,0.0
1545,-0.04068624663562932,0.0
1546,-0.1280826066746272,0.0
1547,-0.017440815501732845,0.0
1548,-0.007134678730479325,0.0
1549,0.022208370682515587,0.0
1550,0.3919737043565279,0.0
1551,5.048002135063588,0.0
1552,4.3721271387372695,0.0
1553,-2.917796464520144,0.0
1554,1.5657411554483656,0.0
1555,-0.7838599967684716,0.0
1556,0.32852481221499685,0.0
1557,-0.031785262466935624,0.0
1558,0.007948617368406005,0.0
1559,0.06046453511956511,0.0
1560,-0.12209784715660665,0.0
1561,-0.15518426801714058,0.0
1562,-0.031331040383790795,0.0
1563,-0.05479957350009695,0.0
1564,-0.11282268370045062,0.0
1565,-0.057350515650523,0.0
1566,-0.0661979544176484,0.0
1567,1.177485244019516,0.0
1568,6.660046714710493,0.0
1569,0.8095206535037145,0.0
1570,-1.5920734543438222,0.0
1571,0.8706555398111041,0.0
1572,-0.5743325228822787,0.0
1573,0.13379315450025325,0.0
1574,-0.15143486471914508,0.0
1575,-0.04143392571873149,0.0
1576,-0.13951839692628173,0.0
1577,-0.030913782489798463,0.0
1578,-0.024692157841724773,0.0
1579,0.012666782090493565,0.0
1580,-0.09206768435288934,0.0
1581,-0.07880862921685644,0.0
1582,-0.012735104270328573,0.0
1583,-0.026726616098519368,0.0
1584,2.813178549709958,0.0
1585,6.670714638078075,0.0
1586,-2.344652707622909,0.0
1587,0.45005033099831826,0.0
1588,-0.1203711204677701,0.0
1589,-0.028685505913805115,0.0
1590,-0.13478926628927865,0.0
1591,-0.05110264725895895,0.0
1592,-0.08838415609527354,0.0
1593,-0.12459677374003059,0.0
1594,-0.1192638271512665,0.0
1595,-0.05763197360602504,0.0
1596,-0.2077026611904484,0.0
1597,-0.08537450559931739,0.0
1598,-0.05278910860192679,0.0
1599,-0.049741898372413176,0.0
1600,0.3949225984826835,0.0
1601,5.002314292458746,0.0
1602,4.381406895992638,0.0
1603,-2.98710008914904,0.0
1604,1.6553342891317884,0.0
1605,-0.7794086012873869,0.0
1606,0.27103578040012205,0.0
1607,-0.060655116633791056,0.0
1608,0.04445250222209173,0.0
1609,-0.014055154787975683,0.0
1610,-0.040077823573812794,0.0
1611,-0.015474601246010437,0.0
1612,0.039981173247134225,0.0
1613,-0.12359133443007009,0.0
1614,0.04507104826000621,0.0
1615,-0.026742945096223106,0.0
1616,-0.006816371247717022,0.0
1617,1.1815352882197159,0.0
1618,6.651598126136558,0.0
1619,0.6879292038438525,0.0
1620,-1.5879585759123758,0.0
1621,0.9356595570910895,0.0
1622,-0.6133071817179587,0.0
1623,0.15566147685074985,0.0
1624,-0.17106268909133776,0.0
1625,-0.0725864731659133,0.0
1626,-0.08545185495002106,0.0
1627,-0.10154490681920883,0.0
1628,-0.10807907226551101,0.0
1629,-0.04111840950319322,0.0
1630,0.011874714220728867,0.0
1631,-0.033006360116974595,0.0
1632,-0.06161031515619701,0.0
1633,0.07350248165041127,0.0
1634,2.773046895240599,0.0
1635,6.53983284047589,0.0
1636,-2.387965712866227,0.0
1637,0.5976989089034211,0.0
1638,-0.07019384763451766,0.0
1639,-0.0006733521514155957,0.0
1640,-0.022197504985288493,0.0
1641,-0.05775884879937041,0.0
1642,0.005794187313355913,0.0
1643,-0.014677564711989001,0.0
1644,-0.11040147569728095,0.0
1645,-0.062444990134949654,0.0
1646,-0.06407266832699604,0.0
1647,-0.04477825333839537,0.0
1648,-0.04407442836537387,0.0
1649,-0.08651024263901737,0.0
1650,0.4226144413956828,0.0
1651,4.982301043884163,0.0
1652,4.294067392732753,0.0
1653,-2.992331756857434,0.0
1654,1.5430096003329252,0.0
1655,-0.8539623223433599,0.0
1656,0.27566696509916705,0.0
1657,-0.21369019523777621,0.0
1658,-0.06038963533214107,0.0
1659,-0.04455463554908071,0.0
1660,-0.06757726421567652,0.0
1661,-0.0804320498016354,0.0
1662,-0.05724550496377973,0.0
1663,-0.03548397745020918,0.0
1664,0.079092617972549,0.0
1665,-0.08702725083998142,0.0
1666,-0.021479185894446112,0.0
1667,1.1326710952740022,0.0
1668,6.6378402950385595,0.0
1669,0.6583754752617198,0.0
1670,-1.5907519421726801,0.0
1671,0.9949777503372463,0.0
1672,-0.6183895825922852,0.0
1673,0.16269381481460435,0.0
1674,-0.0718034239171713,0.0
1675,-0.07136072046545741,0.0
1676,-0.12106581537973105,0.0
1677,-0.09619155881902078,0.0
1678,-0.099610027402223,0.0
1679,0.029075124443120375,0.0
1680,-0.11508803245401768,0.0
1681,0.06108381917066565,0.0
1682,0.0332700626209776,0.0
1683,0.05897864920812075,0.0
1684,2.975434091303768,0.0
1685,6.630386933043586,0.0
1686,-2.388050387000545,0.0
1687,0.4647368245177472,0.0
1688,-0.08904866702486257,0.0
1689,-0.10677979362658084,0.0
1690,-0.023208223455695974,0.0
1691,-0.03831850294816683,0.0
1692,0.031113766571388757,0.0
1693,-0.02351941590011408,0.0
1694,-0.0026498124670126313,0.0
1695,-0.07296757622503965,0.0
1696,-0.09263432376362171,0.0
1697,-0.13490157819633253,0.0
1698,-0.12558488125304892,0.0
1699,-0.07478508535753131,0.0
1700,0.23854509482897523,0.0
1701,4.8975734664556985,0.0
1702,4.164959094757369,0.0
1703,-2.9959391265372,0.0
1704,1.5565063779734165,0.0
1705,-0.8598620952853361,0.0
1706,0.3210826932139326,0.0
1707,-0.17522155840955764,0.0
1708,-0.051758105464836925,0.0
1709,-0.13833299168509058,0.0
1710,-0.11094241579121786,0.0
1711,0.011943190824721284,0.0
1712,-0.023361678427268523,0.0
1713,-0.04520276435790757,0.0
1714,-0.10059260021329422,0.0
1715,-0.10958717725003059,0.0
1716,-0.006620973634608847,0.0
1717,1.1839066028355238,0.0
1718,6.7306870619810075,0.0
1719,0.6124488673553206,0.0
1720,-1.6136921801910493,0.0
1721,1.0060516581153682,0.0
1722,-0.5757413803808605,0.0
1723,0.18440769270151733,0.0
1724,-0.1528573424763371,0.0
1725,-0.07409683062324196,0.0
1726,-0.017952974452224983,0.0
1727,-0.03301822814712955,0.0
1728,-0.13211474174598875,0.0
1729,-0.035232108093511814,0.0
1730,-0.08797029065650634,0.0
1731,-0.09535924761647308,0.0
1732,-0.09507230129984358,0.0
1733,-0.06898103204691977,0.0
1734,2.8520829272238144,0.0
1735,6.6349770666224055,0.0
1736,-2.398639488324161,0.0
1737,0.6155328724684331,0.0
1738,-0.20248701792072538,0.0
1739,-0.12364978201994886,0.0
1740,-0.06822130884340918,0.0
1741,-0.011041037061900197,0.0
1742,-0.22432572687421232,0.0
1743,-0.0696292113767743,0.0
1744,-0.03631686016379044,0.0
1745,-0.09541912061163582,0.0
1746,-0.01866041103482692,0.0
1747,-0.14209329865241335,0.0
1748,-0.04388276273459209,0.0
1749,-0.1049015425805487,0.0
1750,0.2609276865057363,0.0
1751,5.005659532554539,0.0
1752,4.142253339228005,0.0
1753,-3.002174504541151,0.0
1754,1.3698607561874923,0.0
1755,-0.8479291172309537,0.0
1756,0.17751724286173473,0.0
1757,-0.11251656697906914,0.0
1758,-0.10375579932046253,0.0
1759,-0.16053222147157048,0.0
1760,-0.06263972746074759,0.0
1761,-0.13011412003226674,0.0
1762,-0.10789564111010551,0.0
1763,0.06274985308129241,0.0
1764,-0.0401476445157231,0.0
1765,0.015122850407527755,0.0
1766,-0.08865513588768713,0.0
1767,1.170105204312125,0.0
1768,6.542905292378828,0.0
1769,0.6204016844438394,0.0
1770,-1.5696092270968494,0.0
1771,1.0119490900504293,0.0
1772,-0.5857461068546379,0.0
1773,0.1998506388762037,0.0
1774,-0.12942352920979766,0.0
1775,-0.010463692739064015,0.0
1776,-0.044639671827200286,0.0
1777,-0.13478958784783554,0.0
1778,-0.08136105368251673,0.0
1779,-0.020178422450334535,0.0
1780,-0.02940245773435512,0.0
1781,-0.1371791143461214,0.0
1782,-0.13832993935175658,0.0
1783,0.078358250778781,0.0
1784,2.886409624264272,0.0
1785,6.572661054628753,0.0
1786,-2.390911521580799,0.0
1787,0.6040120552118037,0.0
1788,-0.16245449348490484,0.0
1789,0.016945159481708882,0.0
1790,-0.14502363926255069,0.0
1791,0.029869807899867797,0.0
1792,-0.02894015763201816,0.0
1793,-0.04098982940570034,0.0
1794,-0.027521864514894967,0.0
1795,0.02102929411757501,0.0
1796,-0.05573169584557545,0.0
1797,-0.04628735502550857,0.0
1798,-0.015560689578986073,0.0
1799,-0.05674554439179369,0.0
1800,0.3820880044899645,0.0
1801,5.025928776587977,0.0
1802,4.189158355892087,0.0
1803,-3.0466353932939456,0.0
1804,1.5690900399529248,0.0
1805,-0.8074584706485853,0.0
1806,0.3318512457365713,0.0
1807,-0.11381019185059257,0.0
1808,0.01309230369368616,0.0
1809,-0.08061034384855263,0.0
1810,-0.04688164471603155,0.0
1811,-0.13882490203392905,0.0
1812,-0.03700541194019439,0.0
1813,-0.0934893150356083,0.0
1814,-0.031459622364056646,0.0
1815,-0.10514648261061527,0.0
1816,-0.06523109192328094,0.0
1817,1.1876142611478875,0.0
1818,6.700824180507685,0.0
1819,0.6535207660832278,0.0
1820,-1.5644787127699016,0.0
1821,1.0161245706071658,0.0
1822,-0.6487116356565471,0.0
1823,0.1296128133526503,0.0
1824,-0.05824235601269526,0.0
1825,-0.10758192193808516,0.0
1826,-0.041849093876975794,0.0
1827,-0.08457921199178206,0.0
1828,-0.05871255362665946,0.0
1829,-0.07369887735196122,0.0
1830,-0.07281075086704186,0.0
1831,0.0008374223598237099,0.0
1832,-0.06190380950847943,0.0
1833,0.015771247398754337,0.0
1834,2.974063689438857,0.0
1835,6.546139016214823,0.0
1836,-2.383263926246118,0.0
1837,0.6774843964910572,0.0
1838,-0.18870938678047738,0.0
1839,-0.035332624802900545,0.0
1840,-0.06191739564078426,0.0
1841,-0.13644154556933813,0.0
1842,-0.02491989794351261,0.0
1843,-0.10723022750877824,0.0
1844,-0.03856265762694187,0.0
1845,-0.04630043409270326,0.0
1846,-0.08656315476165076,0.0
1847,-0.09948862236646215,0.0
1848,-0.1429780520265146,0.0
1849,-0.02972676264381794,0.0
1850,0.23780516471002916,0.0
1851,5.115693497103166,0.0
1852,4.114162027046669,0.0
1853,-3.0570099608034913,0.0
1854,1.5383093211511445,0.0
1855,-0.8312180057635439,0.0
1856,0.32361272809216113,0.0
1857,-0.19800164316634405,0.0
1858,0.06006930691142302,0.0
1859,-0.005663368093573269,0.0
1860,-0.08560822528851796,0.0
1861,-0.06388844885862517,0.0
1862,0.0013658341711642735,0.0
1863,-0.05498610659974922,0.0
1864,-0.13698648759062668,0.0
1865,-0.06840432114070795,0.0
1866,-0.05612678444921949,0.0
1867,1.2001469007434609,0.0
1868,6.703508597584199,0.0
1869,0.6742734239207346,0.0
1870,-1.5104743360104653,0.0
1871,1.0025426170957785,0.0
1872,-0.5489515167251263,0.0
1873,0.15077623489425934,0.0
1874,-0.14395016315490033,0.0
1875,-0.06635880494859384,0.0
1876,-0.08998677261484239,0.0
1877,-0.09591162479658194,0.0
1878,0.07191145973280386,0.0
1879,0.007742095615579215,0.0
1880,0.06887937605764761,0.0
1881,-0.010317518186375853,0.0
1882,0.05022612506201426,0.0
1883,0.09463136731536491,0.0
1884,3.025065880525105,0.0
1885,6.679661935249343,0.0
1886,-2.4536409164693214,0.0
1887,0.5416182731992077,0.0
1888,-0.2205550146574239,0.0
1889,-0.042855798611618215,0.0
1890,-0.11857767516901198,0.0
1891,0.009440622644429297,0.0
1892,-0.043585729472991025,0.0
1893,0.053293679166017564,0.0
1894,-0.0689870693371834,0.0
1895,-0.05594838150712274,0.0
1896,-0.10584873371297353,0.0
1897,-0.010196868678693558,0.0
1898,-0.17225448700880341,0.0
1899,-0.05651981553355206,0.0
1900,0.38315191411381916,0.0
1901,5.0945683508200235,0.0
1902,4.266401391251202,0.0
1903,-2.9976625630566542,0.0
1904,1.5216726419957434,0.0
1905,-0.8460562864408592,0.0
1906,0.3508634359462363,0.0
1907,-0.17455719213847531,0.0
1908,-0.093507287536821,0.0
1909,-0.023759094833853966,0.0
1910,-0.053879652674477294,0.0
1911,0.02093379323521708,0.0
1912,-0.047026465003721034,0.0
1913,0.001977099484839339,0.0
1914,0.024165708247502533,0.0
1915,0.03750732658638509,0.0
1916,-0.058411082430649935,0.0
1917,1.2648695375565187,0.0
1918,6.859566651783529,0.0
1919,0.6483009870247066,0.0
1920,-1.4493239376090614,0.0
1921,1.0503232506423392,0.0
1922,-0.48555805155650844,0.0
1923,0.15251794803973417,0.0
1924,-0.10157753435689218,0.0
1925,-0.06960704738269793,0.0
1926,-0.12612538869828027,0.0
1927,-0.0025630955752571974,0.0
1928,-0.05845121971318684,0.0
1929,-0.06021968874787123,0.0
1930,-0.08306156989890973,0.0
1931,-0.07327873307449062,0.0
1932,-0.08622647518364826,0.0
1933,0.021736798882655128,0.0
1934,2.9634702582879,0.0
1935,6.676655990945807,0.0
1936,-2.284458737830128,0.0
1937,0.8290356314402612,0.0
1938,-0.04852877777648115,0.0
1939,0.13104401098140672,0.0
1940,0.0813541272763052,0.0
1941,0.08431657429280948,0.0
1942,0.11296798330521574,0.0
1943,0.1058906614447999,0.0
1944,0.1638849835102652,0.0
1945,0.14606297891992398,0.0
1946,0.057784856117940916,0.0
1947,0.033792723295139035,0.0
1948,0.08771890893194993,0.0
1949,0.01591963639695644,0.0
1950,0.3910308023886558,0.0
1951,5.137402403140896,0.0
1952,4.153874623166821,0.0
1953,-2.806080929213735,0.0
1954,1.6588686158080252,0.0
1955,-0.6785322909097762,0.0
1956,0.30572192524169445,0.0
1957,-0.14187277013812946,0.0
1958,0.08856297835681168,0.0
1959,-0.14748799704108345,0.0
1960,-0.03461917370220813,0.0
1961,-0.08340792612810648,0.0
1962,-0.007497459595218248,0.0
1963,-0.04895661950176342,0.0
1964,0.11465948639143153,0.0
1965,0.07478088502216701,0.0
1966,-0.011676818450397811,0.0
1967,1.2955275380232207,0.0
1968,6.736824924546715,0.0
1969,0.5886646611965505,0.0
1970,-1.363330603486045,0.0
1971,0.9563770428480164,0.0
1972,-0.6226610008134124,0.0
1973,0.2273081393448099,0.0
1974,-0.05845302816381986,0.0
1975,0.05172725113666994,0.0
1976,-0.01887912747511246,0.0
1977,0.006687507721877737,0.0
1978,-0.050827901302500963,0.0
1979,-0.10366418897676202,0.0
1980,0.08326767831797346,0.0
1981,0.0058273125557253965,0.0
1982,-0.05604875711552895,0.0
1983,0.015022175428413283,0.0
1984,2.959369014492455,0.0
1985,6.616524011889317,0.0
1986,-2.3204729154787707,0.0
1987,0.7925207059678389,0.0
1988,-0.17738700942944313,0.0
1989,0.023254638576380517,0.0
1990,0.03478268445348122,0.0
1991,-0.11167778972021519,0.0
1992,0.00480470392725499,0.0
1993,0.0370431179959314,0.0
1994,-0.051086549606578914,0.0
1995,-0.038711815824167065,0.0
1996,0.07358747092271434,0.0
1997,-0.052519903704908805,0.0
1998,-0.032935197197719056,0.0
1999,0.0011408502270393653,0.0
2000,0.4414297202148256,0.0
2001,5.161566782561387,0.0
2002,4.208340271053925,0.0
2003,-2.9688091029336405,0.0
2004,1.5213932022316443,0.0
2005,-0.7100231571091704,0.0
2006,0.28410095632170096,0.0
2007,-0.17316868670015115,0.0
2008,0.014680816845432222,0.0
2009,-0.038842724283434,0.0
2010,-0.06393211074407719,0.0
2011,0.010279036491479716,0.0
2012,-0.043259523295187736,0.0
2013,-0.056875931515845524,0.0
2014,0.054338257164010854,0.0
2015,-0.010462574407544988,0.0
2016,0.07540033591972319,0.0
2017,1.235769311055317,0.0
2018,6.784789417638322,0.0
2019,0.6122526435797087,0.0
2020,-1.3269183677693448,0.0
2021,1.066121591690286,0.0
2022,-0.4838517255054424,0.0
2023,0.258422263091603,0.0
2024,-0.017216916433286877,0.0
2025,0.006899256919224328,0.0
2026,0.0019277172248609517,0.0
2027,0.08267638033582268,0.0
2028,0.04611132559822612,0.0
2029,-0.006565737587040134,0.0
2030,0.04118337057075983,0.0
2031,-0.034064766717788575,0.0
2032,-0.1367624755969298,0.0
2033,-0.006964310552736955,0.0
2034,2.9203875799860795,0.0
2035,6.502972361993524,0.0
2036,-2.3509104164501586,0.0
2037,0.5779791536829069,0.0
2038,-0.1252554618557273,0.0
2039,-0.010387947087785242,0.0
2040,-0.016263969292582524,0.0
2041,-0.020563656745816103,0.0
2042,-0.06500773533849444,0.0
2043,0.02719801755807387,0.0
2044,-0.058515528409036954,0.0
2045,0.00936167697552166,0.0
2046,0.04365894308402861,0.0
2047,-0.02212372463734175,0.0
2048,-0.019011824053258016,0.0
2049,0.0021150901447630696,0.0
2050,0.3517704094496241,0.0
2051,5.107943796949744,0.0
2052,4.1694054278059065,0.0
2053,-2.9773354692776586,0.0
2054,1.5428869010575208,0.0
2055,-0.8539565353018005,0.0
2056,0.3018971613645656,0.0
2057,-0.15063019052281906,0.0
2058,-0.02916983557917342,0.0
2059,-0.03995098458888703,0.0
2060,-0.05761625929735878,0.0
2061,0.062137132637536056,0.0
2062,-0.022782120890676175,0.0
2063,-0.06720110635737903,0.0
2064,-0.009522303210848258,0.0
2065,0.0409029595911307,0.0
2066,0.019135431484298773,0.0
2067,1.2920832048755226,0.0
2068,6.619744542121268,0.0
2069,0.5994758223677166,0.0
2070,-1.368444507368843,0.0
2071,0.8900599251889563,0.0
2072,-0.4958072842961207,0.0
2073,0.22906282278314652,0.0
2074,-0.052948378826698235,0.0
2075,-0.004082814191206678,0.0
2076,-0.10536896460320332,0.0
2077,0.009351527861139599,0.0
2078,0.02392567472400505,0.0
2079,0.07404649556793119,0.0
2080,-0.08508158912942673,0.0
2081,-0.012051903036596326,0.0
2082,-0.09430215417399719,0.0
2083,-0.013585156115023488,0.0
2084,2.989710218527072,0.0
2085,6.523879157421874,0.0
2086,-2.390946039938467,0.0
2087,0.644887169512669,0.0
2088,-0.19074197949979368,0.0
2089,-0.012997621154478979,0.0
2090,-0.01693520884450843,0.0
2091,-0.011517686487164232,0.0
2092,-0.018074976639631334,0.0
2093,0.005962159937921055,0.0
2094,-0.11035674502349917,0.0
2095,-0.04593049731754698,0.0
2096,-0.055104493234227225,0.0
2097,0.012586291372716545,0.0
2098,0.025779641858902854,0.0
2099,0.014269313264410985,0.0
2100,0.40473238041333887,0.0
2101,5.052146438690337,0.0
2102,4.078643886132773,0.0
2103,-2.9163326371137415,0.0
2104,1.5546661660470906,0.0
2105,-0.7890915886255697,0.0
2106,0.3271937120707792,0.0
2107,-0.14534849418224194,0.0
2108,-0.06053311544806894,0.0
2109,-0.004725346059308001,0.0
2110,-0.04365561117005756,0.0
2111,-0.04821102477256576,0.0
2112,-0.045165235357688585,0.0
2113,-0.10613519261679286,0.0
2114,-0.052560686925489264,0.0
2115,-0.026482864489551124,0.0
2116,-0.07976758394453566,0.0
2117,1.3402146172986504,0.0
2118,6.813098702818802,0.0
2119,0.523815948174078,0.0
2120,-1.4178807395259685,0.0
2121,1.00503860975754,0.0
2122,-0.5413019884600643,0.0
2123,0.2631629513216872,0.0
2124,-0.025960520880737303,0.0
2125,0.06911474322344267,0.0
2126,-0.027058813587169772,0.0
2127,-0.03221786072304046,0.0
2128,0.006928593852838349,0.0
2129,-0.03088795278859241,0.0
2130,-0.0025979301354275564,0.0
2131,-0.08367385510272371,0.0
2132,-0.08004974778445464,0.0
2133,-0.02053327614160281,0.0
2134,3.0175387401394222,0.0
2135,6.450864618187232,0.0
2136,-2.4288258700129606,0.0
2137,0.751656337337906,0.0
2138,-0.24253793812498115,0.0
2139,-0.15204878792507934,0.0
2140,-0.038477460419494756,0.0
2141,-0.07328938938604677,0.0
2142,-0.060178222312503186,0.0
2143,-0.0015643962173047914,0.0
2144,0.038233450929041304,0.0
2145,-0.03252831970896575,0.0
2146,-0.0480534269870733,0.0
2147,0.02290614038300514,0.0
2148,-0.017894009820771467,0.0
2149,-0.024862632651055476,0.0
2150,0.38593754014914816,0.0
2151,5.271949588057821,0.0
2152,4.075159244644662,0.0
2153,-2.93919167080566,0.0
2154,1.61087195504503,0.0
2155,-0.9038642949842837,0.0
2156,0.3352655586060913,0.0
2157,-0.13458293660117418,0.0
2158,-0.0031086862087438202,0.0
2159,-0.013552067331579931,0.0
2160,-0.009595162555422589,0.0
2161,-0.016049991965404083,0.0
2162,-0.009518434302476664,0.0
2163,-0.07191924923733183,0.0
2164,-0.0713511507239973,0.0
2165,-0.14667583199018286,0.0
2166,-0.018732167428390234,0.0
2167,1.299677561661007,0.0
2168,6.599358292001529,0.0
2169,0.4729358825226685,0.0
2170,-1.5261550733028806,0.0
2171,0.9077831072654912,0.0
2172,-0.6125556410330174,0.0
2173,0.06524200186894807,0.0
2174,-0.1668262926339023,0.0
2175,-0.055606245999972055,0.0
2176,-0.08997307161802331,0.0
2177,-0.18997124085664063,0.0
2178,-0.21274793941359238,0.0
2179,-0.05655888960773118,0.0
2180,-0.029931070502944468,0.0
2181,-0.08066838282470316,0.0
2182,-0.021005651292842098,0.0
2183,-0.01570689899243085,0.0
2184,2.9744083698940167,0.0
2185,6.514224438804355,0.0
2186,-2.557268170288786,0.0
2187,0.6917717471787775,0.0
2188,-0.2498960813935694,0.0
2189,-0.03333267218607017,0.0
2190,-0.10353509507189924,0.0
2191,-0.09968629815631389,0.0
2192,-0.09057048799942749,0.0
2193,0.08470087898266526,0.0
2194,-0.04416186061011396,0.0
2195,-0.01536933520758113,0.0
2196,-0.03811519638459744,0.0
2197,-0.10897800825919947,0.0
2198,-0.019094312351412776,0.0
2199,-0.0034661521527866793,0.0
2200,0.2789518608494817,0.0
2201,5.103952609202514,0.0
2202,4.032613183429454,0.0
2203,-2.907399286922551,0.0
2204,1.5197722433291594,0.0
2205,-0.8309112873754565,0.0
2206,0.25815228497582005,0.0
2207,-0.17897734981953703,0.0
2208,-0.1846173177045769,0.0
2209,-0.17281075629478354,0.0
2210,-0.07241912965501432,0.0
2211,-0.09929770064356286,0.0
2212,-0.10575277513914004,0.0
2213,-0.12591141498118605,0.0
2214,-0.10214619380598354,0.0
2215,-0.003405304400825704,0.0
2216,-0.09406848072134635,0.0
2217,1.1874657081761861,0.0
2218,6.661340223375161,0.0
2219,0.3713973372183136,0.0
2220,-1.467786073033094,0.0
2221,0.8829984926541256,0.0
2222,-0.5713832247371116,0.0
2223,0.09057526563138224,0.0
2224,-0.06322920704890325,0.0
2225,-0.05632508768984403,0.0
2226,-0.14039914222607613,0.0
2227,-0.0009752919897555445,0.0
2228,-0.008591626643777273,0.0
2229,-0.04573025527714602,0.0
2230,-0.08549995328364407,0.0
2231,-0.06263774175463664,0.0
2232,-0.057397189489809416,0.0
2233,-0.013085302119394196,0.0
2234,2.975694389652625,0.0
2235,6.479718117182118,0.0
2236,-2.4648258567620256,0.0
2237,0.6062563882264469,0.0
2238,-0.261846506584762,0.0
2239,-0.08679948204475431,0.0
2240,-0.14664200804163613,0.0
2241,-0.10303555664147382,0.0
2242,-0.08431180003811387,0.0
2243,-0.05786064885794964,0.0
2244,-0.10404764481258348,0.0
2245,-0.05060344953883678,0.0
2246,-0.15830666803904925,0.0
2247,-0.1298205614697716,0.0
2248,-0.11508854373089973,0.0
2249,-0.09553002723739554,0.0
2250,0.2454041765496861,0.0
2251,5.026995861272337,0.0
2252,3.9126667701590314,0.0
2253,-2.833230613500495,0.0
2254,1.4819934312307785,0.0
2255,-0.9642616944414826,0.0
2256,0.30283478363093497,0.0
2257,-0.21112343829968022,0.0
2258,0.007819078393703376,0.0
2259,-0.1493730242612859,0.0
2260,-0.06800150829186351,0.0
2261,-0.05631178362327337,0.0
2262,-0.09630817183018087,0.0
2263,-0.09534350760046972,0.0
2264,-0.046629992288207314,0.0
2265,-0.1542957675554409,0.0
2266,-0.12423110047833584,0.0
2267,1.3059356864716847,0.0
2268,6.61657036505944,0.0
2269,0.3827490158809406,0.0
2270,-1.4831477880809931,0.0
2271,0.8449906313427302,0.0
2272,-0.6342678625674737,0.0
2273,0.11719989177706101,0.0
2274,-0.22505056735374765,0.0
2275,-0.15580440038493598,0.0
2276,-0.13499714021583223,0.0
2277,-0.07684586865478954,0.0
2278,-0.08113200603928142,0.0
2279,-0.22549026255824367,0.0
2280,-0.11062536215425701,0.0
2281,-0.20000879036598546,0.0
2282,-0.1385232442253495,0.0
2283,-0.011797379876120534,0.0
2284,3.054991898680771,0.0
2285,6.5255273852346525,0.0
2286,-2.575654798374117,0.0
2287,0.6232398317455902,0.0
2288,-0.20277610536316587,0.0
2289,-0.0008181768247931126,0.0
2290,-0.09557813108289247,0.0
2291,-0.05054805470206504,0.0
2292,-0.1179879385279726,0.0
2293,-0.12954975111523837,0.0
2294,-0.06354497338858342,0.0
2295,-0.10836555212554254,0.0
2296,0.03917556005977031,0.0
2297,0.03595709970121608,0.0
2298,-0.03954087521852066,0.0
2299,-0.046885843278541436,0.0
2300,0.33336437349415776,0.0
2301,5.245276797133972,0.0
2302,4.013885482528942,0.0
2303,-2.8815886433661286,0.0
2304,1.5433869803798193,0.0
2305,-0.8112773482646417,0.0
2306,0.21970994592369847,0.0
2307,-0.15100291525515258,0.0
2308,0.04367448680064198,0.0
2309,-0.09998164567157763,0.0
2310,-0.14635782989017515,0.0
2311,-0.019858473410019686,0.0
2312,-0.05424900285484682,0.0
2313,-0.09875060870655084,0.0
2314,-0.15631470774009532,0.0
2315,-0.10567056887123086,0.0
2316,-0.06891097255363395,0.0
2317,1.3109403749711246,0.0
2318,6.85969329131287,0.0
2319,0.30772342314236467,0.0
2320,-1.312850205078365,0.0
2321,0.8887458576587276,0.0
2322,-0.48625539753134595,0.0
2323,0.20193413977704927,0.0
2324,-0.06478217828922017,0.0
2325,-0.04775511147039567,0.0
2326,-0.04993910758604474,0.0
2327,-0.0498678824942239,0.0
2328,0.010142378254573224,0.0
2329,0.01934752660600129,0.0
2330,0.025941079438416795,0.0
2331,-0.030997421354287402,0.0
2332,-0.0177928549416401,0.0
2333,0.08699146357938244,0.0
2334,3.1035941371405933,0.0
2335,6.469033224402114,0.0
2336,-2.671705302056122,0.0
2337,0.6527644974459971,0.0
2338,-0.2218546874165355,0.0
2339,-0.01164877912899992,0.0
2340,-0.09020912372037887,0.0
2341,-0.04395087489618562,0.0
2342,-0.11367597298732177,0.0
2343,-0.09874011873817183,0.0
2344,-0.09251331786539319,0.0
2345,-0.009055271081960761,0.0
2346,0.03380097166215611,0.0
2347,-0.10438589256776845,0.0
2348,-0.05928172873403607,0.0
2349,-0.09085844216194422,0.0
2350,0.42382749820186116,0.0
2351,5.142477085255882,0.0
2352,4.035507452260722,0.0
2353,-2.898036653542799,0.0
2354,1.5385249338952243,0.0
2355,-0.8953380471046573,0.0
2356,0.28264125936998097,0.0
2357,-0.18880536460954633,0.0
2358,-0.07548221769172914,0.0
2359,-0.015514022240266198,0.0
2360,-0.0791310010333392,0.0
2361,-0.10364248536518815,0.0
2362,-0.06262447565561796,0.0
2363,-0.07737883623175869,0.0
2364,-0.05618301935296595,0.0
2365,-0.007718057158618792,0.0
2366,-0.07952283062597662,0.0
2367,1.3304959848505675,0.0
2368,6.711101935440352,0.0
2369,0.39147109455106105,0.0
2370,-1.3307837643562348,0.0
2371,0.9625402463656136,0.0
2372,-0.4969898987107139,0.0
2373,0.22218422616840672,0.0
2374,-0.08888692615889396,0.0
2375,0.034033483013398536,0.0
2376,-0.029179255145592303,0.0
2377,-0.03224801019240258,0.0
2378,0.0643122366514049,0.0
2379,-0.14900725212645016,0.0
2380,0.0187351492189676,0.0
2381,-0.05925667194905459,0.0
2382,-0.0048929404178964285,0.0
2383,0.1209842256686113,0.0
2384,3.1110755737924385,0.0
2385,6.538123442174923,0.0
2386,-2.4340419404759004,0.0
2387,0.7816742649181064,0.0
2388,-0.1654037351228049,0.0
2389,0.07913668818690264,0.0
2390,-0.02370699004613233,0.0
2391,0.05346263127814002,0.0
2392,0.0167788359821049,0.0
2393,-0.09009290718865802,0.0
2394,-0.08039233314861062,0.0
2395,-0.06487390271095797,0.0
2396,-0.009245476674515595,0.0
2397,-0.038229571979314,0.0
2398,-0.013525261195938765,0.0
2399,-0.047357388458446656,0.0
2400,0.43404410017455325,0.0
2401,5.254217978427114,0.0
2402,3.9787641350177094,0.0
2403,-2.8862477590195583,0.0
2404,1.4429962689991247,0.0
2405,-0.7597029248390043,0.0
2406,0.3527329605754568,0.0
2407,-0.16117919593137803,0.0
2408,0.09582154886819721,0.0
2409,0.05923289207748819,0.0
2410,-0.0012707002321714492,0.0
2411,0.052114309108935185,0.0
2412,-0.01002322535660746,0.0
2413,0.013400832516448273,0.0
2414,0.06316744904985194,0.0
2415,-0.00022734865336738498,0.0
2416,0.007275482151163332,0.0
2417,1.3055261691714604,0.0
2418,6.807518658395222,0.0
2419,0.4125350335052421,0.0
2420,-1.2996023670312447,0.0
2421,0.8325407111725749,0.0
2422,-0.4729851749941321,0.0
2423,0.18535295243620994,0.0
2424,-0.09302436851034929,0.0
2425,0.026120369600939296,0.0
2426,0.009102702795485518,0.0
2427,-0.012642184901497155,0.0
2428,0.0587149740001179,0.0
2429,0.023169878278638117,0.0
2430,-0.029563246198538232,0.0
2431,0.0635377309942834,0.0
2432,-0.01653732015627198,0.0
2433,0.0955844536603835,0.0
2434,3.208245461823441,0.0
2435,6.483656592723456,0.0
2436,-2.4444172570371725,0.0
2437,0.7720937822834636,0.0
2438,-0.1647680433142972,0.0
2439,0.12551928717949207,0.0
2440,-0.05297100245578759,0.0
2441,0.03736271767719744,0.0
2442,0.06841536301666508,0.0
2443,0.01902985422450445,0.0
2444,0.004524581998802672,0.0
2445,0.008168954670699734,0.0
2446,0.029037676095345046,0.0
2447,0.08654005068947733,0.0
2448,-0.060661156798938895,0.0
2449,-0.057093412230986906,0.0
2450,0.4461307403604401,0.0
2451,5.213012640302761,0.0
2452,4.032445387099123,0.0
2453,-2.8403710917788083,0.0
2454,1.666867229341773,0.0
2455,-0.6562462375954035,0.0
2456,0.3673969761863257,0.0
2457,-0.1253736634933693,0.0
2458,0.022776389901193156,0.0
2459,0.03700648308253615,0.0
2460,0.10439141132758026,0.0
2461,0.01843041057221946,0.0
2462,-0.08455766975361736,0.0
2463,0.013833612543812442,0.0
2464,0.04452484355620068,0.0
2465,0.03798605690161612,0.0
2466,0.12496068608640258,0.0
2467,1.3757874852571619,0.0
2468,6.805566105390596,0.0
2469,0.37182161035287786,0.0
2470,-1.2255578066899335,0.0
2471,1.0187397446202198,0.0
2472,-0.3942415711953955,0.0
2473,0.2759334639466278,0.0
2474,-0.08725879163349021,0.0
2475,0.07566684827901743,0.0
2476,0.031641634379566116,0.0
2477,0.02461935814925317,0.0
2478,0.06223409241040987,0.0
2479,0.06056142390845873,0.0
2480,0.025683880273720965,0.0
2481,0.00895515752559485,0.0
2482,0.020517715701618776,0.0
2483,0.08847988049905414,0.0
2484,3.1299459110294605,0.0
2485,6.673542858425584,0.0
2486,-2.5068768167120816,0.0
2487,0.8524218104308577,0.0
2488,-0.11131345806409904,0.0
2489,0.07995181258222303,0.0
2490,0.02189586078014915,0.0
2491,0.06633667764650254,0.0
2492,0.09787634481700831,0.0
2493,0.046111762114006,0.0
2494,0.061219587951828386,0.0
2495,0.06160021118558603,0.0
2496,0.03148150476714082,0.0
2497,-0.018269871609207115,0.0
2498,0.027015448742008945,0.0
2499,0.07619482443589767,0.0
2500,0.4247020775626921,0.0
2501,5.2872251091734865,0.0
2502,3.9430054474431753,0.0
2503,-2.8950253590591193,0.0
2504,1.6907884966346243,0.0
2505,-0.7653804364101874,0.0
2506,0.43766886244231484,0.0
2507,-0.06086439724594955,0.0
2508,0.20095541915988288,0.0
2509,-0.016553260127398245,0.0
2510,0.11188981013355982,0.0
2511,0.1261118317910163,0.0
2512,0.08952539292935704,0.0
2513,0.042519280936540366,0.0
2514,0.03821822975470646,0.0
2515,-0.009266676983251482,0.0
2516,-0.0498341834830044,0.0
2517,1.4511504458005293,0.0
2518,6.8809262170524,0.0
2519,0.32760516842639187,0.0
2520,-1.2456329973890832,0.0
2521,0.8266782859705988,0.0
2522,-0.4841789656410738,0.0
2523,0.24217705797782946,0.0
2524,0.0010113868948903731,0.0
2525,0.059338590358067655,0.0
2526,0.034562778464168074,0.0
2527,0.0042432416316626085,0.0
2528,-0.020152631717350114,0.0
2529,-0.023906434845044275,0.0
2530,0.0028520294997349807,0.0
2531,-0.03907347750652103,0.0
2532,-0.012822248866249782,0.0
2533,0.027535496728014627,0.0
2534,3.1378809716714082,0.0
2535,6.508244664906401,0.0
2536,-2.4581679830121894,0.0
2537,0.7853696117005119,0.0
2538,-0.3208522225190552,0.0
2539,0.04070200031649915,0.0
2540,0.0017334985992815497,0.0
2541,-0.041970079560262274,0.0
2542,0.037413421377562,0.0
2543,-0.03791629267326013,0.0
2544,-0.050610578651589654,0.0
2545,-0.06159320967132355,0.0
2546,-0.03399195421196691,0.0
2547,-0.012984721338673117,0.0
2548,0.01255153450433583,0.0
2549,-0.009713056963953633,0.0
2550,0.5026675233680034,0.0
2551,5.193664744847275,0.0
2552,3.920606804766642,0.0
2553,-2.89203679292551,0.0
2554,1.6317665949337528,0.0
2555,-0.7087381025193188,0.0
2556,0.2944351548563036,0.0
2557,-0.08263808194606642,0.0
2558,0.053848130223196455,0.0
2559,-0.03173141816402132,0.0
2560,-0.013484043529578268,0.0
2561,0.0627209910889342,0.0
2562,-0.017928736608106184,0.0
2563,-0.058720408185549196,0.0
2564,0.03765969298382575,0.0
2565,0.010494113210847221,0.0
2566,-0.03368260119995563,0.0
2567,1.4260184701334262,0.0
2568,6.7376717668089805,0.0
2569,0.309306442302447,0.0
2570,-1.2844349483681088,0.0
2571,0.8829657350245322,0.0
2572,-0.4287659494433008,0.0
2573,0.17478420166259476,0.0
2574,-0.14913095933850068,0.0
2575,-0.015553359843185791,0.0
2576,-0.02930158648105359,0.0
2577,-0.04202725949423853,0.0
2578,-0.036044225463560085,0.0
2579,0.004251262662349615,0.0
2580,0.02926425582820932,0.0
2581,-1.074183983653526e-05,0.0
2582,-0.04007813605380577,0.0
2583,0.05265772430485595,0.0
2584,3.1455737904969023,0.0
2585,6.432264206351421,0.0
2586,-2.606081581129712,0.0
2587,0.7014001543757115,0.0
2588,-0.33317961167984345,0.0
2589,-0.019134623166456612,0.0
2590,-0.07110629169077451,0.0
2591,-0.035351888979571325,0.0
2592,-0.10688544217421564,0.0
2593,-0.04474932484841008,0.0
2594,-0.11798522140596915,0.0
2595,-0.12622934116465998,0.0
2596,0.07153280424158229,0.0
2597,-0.051600617726067985,0.0
2598,-0.05834730760865507,0.0
2599,-0.10563308700496195,0.0
2600,0.4184469103661914,0.0
2601,5.230364784378924,0.0
2602,3.8368789387958597,0.0
2603,-2.854910761714745,0.0
2604,1.5652393480441973,0.0
2605,-0.8577770260485903,0.0
2606,0.28138399286151294,0.0
2607,-0.14014969462892365,0.0
2608,-0.12225639655867666,0.0
2609,-0.07868452796952527,0.0
2610,-0.09292517334970848,0.0
2611,-0.09744783342288936,0.0
2612,-0.11079434467518949,0.0
2613,-0.12343450258713319,0.0
2614,-0.014530293491545852,0.0
2615,-0.06998568960327507,0.0
2616,-0.09279005980928634,0.0
2617,1.3015595671788578,0.0
2618,6.768655750291908,0.0
2619,0.15003540386397096,0.0
2620,-1.340270059020376,0.0
2621,0.871176647834382,0.0
2622,-0.5662214302905217,0.0
2623,0.13570243101357046,0.0
2624,-0.18279543966801998,0.0
2625,-0.044328496799052736,0.0
2626,0.027460975402447685,0.0
2627,-0.09970548337200211,0.0
2628,-0.06307888344809717,0.0
2629,-0.07579945023156698,0.0
2630,-0.08421018589899615,0.0
2631,-0.05750845780311157,0.0
2632,-0.034987997119208095,0.0
2633,-0.018692910339251915,0.0
2634,3.081268158087145,0.0
2635,6.388127219857681,0.0
2636,-2.5034700527817058,0.0
2637,0.7543995061137089,0.0
2638,-0.2524526876397331,0.0
2639,-0.03365480587705853,0.0
2640,-0.0806584612288198,0.0
2641,0.05213174224624014,0.0
2642,-0.07436078764356907,0.0
2643,0.04240324014487233,0.0
2644,-0.059885626158239794,0.0
2645,-0.08621596695112754,0.0
2646,-0.06467189813517008,0.0
2647,-0.10599323942176614,0.0
2648,-0.004498923495340715,0.0
2649,0.007852004506848594,0.0
2650,0.410661062328283,0.0
2651,5.283659043733296,0.0
2652,3.7996233583293475,0.0
2653,-2.951215793628963,0.0
2654,1.575763580929957,0.0
2655,-0.8299464553816358,0.0
2656,0.2292242632312915,0.0
2657,-0.16513341341268076,0.0
2658,-0.055968456041057976,0.0
2659,-0.08458301954236222,0.0
2660,-0.20089855159582792,0.0
2661,-0.0927538307032048,0.0
2662,-0.1584140368081565,0.0
2663,-0.0669098982818598,0.0
2664,0.007172870161214748,0.0
2665,-0.014674006156513708,0.0
2666,-0.029747922397740476,0.0
2667,1.3903424562523568,0.0
2668,6.766151658872892,0.0
2669,0.20669967826203856,0.0
2670,-1.2712682769837869,0.0
2671,0.7772454070142318,0.0
2672,-0.524615394233582,0.0
2673,0.29586480405947024,0.0
2674,0.0950755272925114,0.0
2675,-0.09895227076898214,0.0
2676,-0.010149967089365625,0.0
2677,0.012413252355931138,0.0
2678,-0.04337260505579742,0.0
2679,-0.09229188301786627,0.0
2680,0.05627205653432185,0.0
2681,0.011025820998969215,0.0
2682,-0.01172989408544653,0.0
2683,-0.02279660930989541,0.0
2684,3.1666995960780895,0.0
2685,6.481102568329585,0.0
2686,-2.5254739540713076,0.0
2687,0.8488951213323355,0.0
2688,-0.2448922385011676,0.0
2689,0.01219721792595533,0.0
2690,-0.02248933303542022,0.0
2691,0.1021532907205835,0.0
2692,0.03435262209657887,0.0
2693,0.0060879130476449725,0.0
2694,0.03803343367309355,0.0
2695,-0.012466673761288967,0.0
2696,0.00179689465987587,0.0
2697,0.06552606415007266,0.0
2698,0.03978256961571258,0.0
2699,-0.08437285657087198,0.0
2700,0.49689436114199076,0.0
2701,5.307848940538168,0.0
2702,3.8431831737403073,0.0
2703,-2.81308424381644,0.0
2704,1.5414545735664176,0.0
2705,-0.9287296810434051,0.0
2706,0.32661056688244233,0.0
2707,-0.19589611297259107,0.0
2708,0.005592890057865816,0.0
2709,-0.11260889064920251,0.0
2710,-0.08776473935898248,0.0
2711,0.047789323327241756,0.0
2712,0.0032331286644271063,0.0
2713,0.0017738420595830341,0.0
2714,-0.022148014373627366,0.0
2715,-0.0004133641052762541,0.0
2716,0.02021168123960647,0.0
2717,1.5490422541645452,0.0
2718,6.7513963170259865,0.0
2719,0.26867639385507874,0.0
2720,-1.156652862642762,0.0
2721,0.8378365111693311,0.0
2722,-0.5413571408166866,0.0
2723,0.2008801943318161,0.0
2724,-0.009894175756928025,0.0
2725,-0.07538426497341354,0.0
2726,-0.010214782069698962,0.0
2727,-0.02662604909941308,0.0
2728,0.023351057112974312,0.0
2729,-0.0014705015132596994,0.0
2730,-0.05161232546058594,0.0
2731,0.05052226250207947,0.0
2732,-0.018571237654670555,0.0
2733,0.17471833635421896,0.0
2734,3.2340309857822813,0.0
2735,6.480938952063572,0.0
2736,-2.5294945134583333,0.0
2737,0.8567602851009695,0.0
2738,-0.2569579285694212,0.0
2739,0.12535277253761953,0.0
2740,-0.07902404291568262,0.0
2741,-0.057976070192561166,0.0
2742,-0.03780255524474764,0.0
2743,0.07596768415113829,0.0
2744,0.03705020197350364,0.0
2745,0.10984716670930676,0.0
2746,0.011770207450840424,0.0
2747,-0.009918441699871126,0.0
2748,0.13006417616038346,0.0
2749,-0.03893002926157456,0.0
2750,0.4319880634357616,0.0
2751,5.384731161449409,0.0
2752,3.83044593355387,0.0
2753,-2.758841869646329,0.0
2754,1.5941190150560374,0.0
2755,-0.7569473625300319,0.0
2756,0.2629783400615839,0.0
2757,-0.07690657666224396,0.0
2758,-0.017182790327060035,0.0
2759,0.06103717686972881,0.0
2760,0.03420057879883275,0.0
2761,0.04588875096325931,0.0
2762,0.06319739829798665,0.0
2763,-0.04749317509975148,0.0
2764,-0.04420181927972999,0.0
2765,-0.09722953287355374,0.0
2766,0.06615921897511891,0.0
2767,1.4615666557962799,0.0
2768,6.9085534434151645,0.0
2769,0.2664270417093767,0.0
2770,-1.196641063558977,0.0
2771,0.9044598962388571,0.0
2772,-0.42201570888827317,0.0
2773,0.3720238162923033,0.0
2774,-0.018058345136563857,0.0
2775,0.06398928298849052,0.0
2776,-0.006591671222375261,0.0
2777,0.00931820476040564,0.0
2778,0.03136610176199686,0.0
2779,0.045585964734716926,0.0
2780,-0.008686631069973746,0.0
2781,0.045191411775684635,0.0
2782,0.04558221917047559,0.0
2783,0.02761829998203995,0.0
2784,3.2206118718415166,0.0
2785,6.443435919525017,0.0
2786,-2.621455203049987,0.0
2787,0.7817233745681821,0.0
2788,-0.2273800460327252,0.0
2789,0.042494693647861057,0.0
2790,0.0007991711568328466,0.0
2791,-0.04833246552627553,0.0
2792,-0.12191015751453319,0.0
2793,-0.05372819177542499,0.0
2794,-0.039322116971033834,0.0
2795,-0.03265497736343627,0.0
2796,0.057354058974639556,0.0
2797,-0.10420653490418821,0.0
2798,-0.03385663153359477,0.0
2799,0.023252627916565745,0.0
2800,0.46495601270874004,0.0
2801,5.239050111121562,0.0
2802,3.7860672788876406,0.0
2803,-2.8652766204296682,0.0
2804,1.6294751415156183,0.0
2805,-0.8596456296265118,0.0
2806,0.22954545620139957,0.0
2807,-0.16305117428751206,0.0
2808,-0.03279158935540186,0.0
2809,-0.006412073432958045,0.0
2810,-0.02992274028408056,0.0
2811,0.04167304310821901,0.0
2812,-0.010546695398751686,0.0
2813,-0.01947459752292361,0.0
2814,-0.1436293320690821,0.0
2815,-0.014867809755321098,0.0
2816,-0.08665616666253832,0.0
2817,1.3862400903956102,0.0
2818,6.763622505397384,0.0
2819,0.16366611037064868,0.0
2820,-1.2293319099365723,0.0
2821,0.8023509707827726,0.0
2822,-0.500064367506168,0.0
2823,0.05676908565690382,0.0
2824,-0.08663052589755912,0.0
2825,0.03366557499500058,0.0
2826,-0.020454716192726662,0.0
2827,-0.07162043380251634,0.0
2828,-0.005479118899185148,0.0
2829,-0.01917309781955486,0.0
2830,-0.05260777630552795,0.0
2831,-0.10153475122551718,0.0
2832,0.062486285828494095,0.0
2833,-0.017606318535460852,0.0
2834,3.2263005282550914,0.0
2835,6.426553096888172,0.0
2836,-2.5507106078686665,0.0
2837,0.9332617271684606,0.0
2838,-0.33015365671504826,0.0
2839,0.07188858344138337,0.0
2840,0.01057800311933662,0.0
2841,0.0019760274971321948,0.0
2842,0.035075761803124224,0.0
2843,-0.040526808979966064,0.0
2844,-0.11072942849174042,0.0
2845,0.011757041230330008,0.0
2846,-0.043919744269922394,0.0
2847,0.01964490532877195,0.0
2848,-0.02069192655246788,0.0
2849,-0.03270186536914357,0.0
2850,0.45962723001389194,0.0
2851,5.393854631868076,0.0
2852,3.840155868365288,0.0
2853,-2.8110777059371843,0.0
2854,1.6446925109598705,0.0
2855,-0.917261385972149,0.0
2856,0.3210175126518433,0.0
2857,-0.15736688444446356,0.0
2858,-0.02809751061340102,0.0
2859,-0.08392958856457731,0.0
2860,0.019380986539713124,0.0
2861,-0.017201063803432698,0.0
2862,-0.14581347032523823,0.0
2863,-0.09954636691760868,0.0
2864,-0.1498253272167698,0.0
2865,-0.06049208509423792,0.0
2866,-0.07408851032360796,0.0
2867,1.4222760896863686,0.0
2868,6.804020447669831,0.0
2869,0.11245717341094438,0.0
2870,-1.2447699591868369,0.0
2871,0.843398462133945,0.0
2872,-0.5593038420492695,0.0
2873,0.20132045062021198,0.0
2874,-0.1361763100083277,0.0
2875,-0.05457839748374665,0.0
2876,-0.06170084024910169,0.0
2877,0.005648054402678919,0.0
2878,0.04398644939084358,0.0
2879,0.030245061656455026,0.0
2880,0.019105533581483793,0.0
2881,0.04123165428209697,0.0
2882,-0.01505063172152175,0.0
2883,0.1338476637702592,0.0
2884,3.360904627940385,0.0
2885,6.475753505398464,0.0
2886,-2.5904808911394777,0.0
2887,0.8094833598124114,0.0
2888,-0.27065320836653844,0.0
2889,0.01370407380177175,0.0
2890,-0.016587740803800863,0.0
2891,0.008891704526243792,0.0
2892,0.03655695231638224,0.0
2893,0.038637638140293626,0.0
2894,0.0046962676587492345,0.0
2895,0.055198914539644615,0.0
2896,0.05255469190189961,0.0
2897,-0.061921417956133,0.0
2898,0.03342983026955672,0.0
2899,-0.004044318456790454,0.0
2900,0.514944307454492,0.0
2901,5.343033238414857,0.0
2902,3.886468947996839,0.0
2903,-2.8208541370413602,0.0
2904,1.5352319037324185,0.0
2905,-0.8142863790688273,0.0
2906,0.33484083945730264,0.0
2907,-0.13570771723684039,0.0
2908,-0.016356520091250118,0.0
2909,0.004639792758499024,0.0
2910,-0.050732324824625086,0.0
2911,-0.04502705586431831,0.0
2912,0.032653045916914626,0.0
2913,-0.1391570778417397,0.0
2914,-0.005089368151004817,0.0
2915,-0.01728209220550648,0.0
2916,-0.0661007749784394,0.0
2917,1.482004533921236,0.0
2918,6.913225299834626,0.0
2919,0.17189239777584966,0.0
2920,-1.11492627441767,0.0
2921,0.8956302813600104,0.0
2922,-0.5193762475117989,0.0
2923,0.18842389724333175,0.0
2924,0.02508991444812981,0.0
2925,0.02086590141970266,0.0
2926,0.05221184423185835,0.0
2927,0.09589791798194225,0.0
2928,0.04346327180064774,0.0
2929,0.03891229160759411,0.0
2930,0.07485353502662109,0.0
2931,0.12983821269480453,0.0
2932,0.008707902511818154,0.0
2933,0.0801820749455963,0.0
2934,3.2832074968468685,0.0
2935,6.458282840864285,0.0
2936,-2.6136555917872593,0.0
2937,0.8887120302662775,0.0
2938,-0.2327066643148874,0.0
2939,0.03260061750247007,0.0
2940,0.021657494187652546,0.0
2941,-0.040014494401252265,0.0
2942,-0.04504255243180434,0.0
2943,0.06666816924371281,0.0
2944,0.10422509181518344,0.0
2945,0.01004780494422975,0.0
2946,0.05851375311488968,0.0
2947,0.10863518904214828,0.0
2948,-0.0023426945098867294,0.0
2949,0.013125468478599543,0.0
2950,0.5042289517625723,0.0
2951,5.497553537082578,0.0
2952,3.7889714998931656,0.0
2953,-2.863312881780666,0.0
2954,1.5847169485263646,0.0
2955,-0.6583473916190836,0.0
2956,0.47633599719534336,0.0
2957,-0.11835303848483739,0.0
2958,0.07203592939697814,0.0
2959,0.013614962383562457,0.0
2960,-0.016495630012845434,0.0
2961,0.0402449215954681,0.0
2962,-0.014247596415066326,0.0
2963,-0.029689645524096198,0.0
2964,0.08735979419570156,0.0
2965,0.09579001204989504,0.0
2966,-0.04513963354881714,0.0
2967,1.4256071637972314,0.0
2968,6.86535202303741,0.0
2969,0.13238206718470694,0.0
2970,-1.2205962855943973,0.0
2971,0.9045374506651884,0.0
2972,-0.49356974515307717,0.0
2973,0.11819636732759803,0.0
2974,-0.07744089187656152,0.0
2975,-0.03888759976302455,0.0
2976,-0.06686353651880397,0.0
2977,0.017128476503540824,0.0
2978,-0.02944198111624454,0.0
2979,-0.07885714410334396,0.0
2980,0.012077584625193573,0.0
2981,0.0395312229156847,0.0
2982,0.0450665803317675,0.0
2983,-0.01964826965953237,0.0
2984,3.2928453218322415,0.0
2985,6.322272422391774,0.0
2986,-2.642456032934037,0.0
2987,0.8628902333852202,0.0
2988,-0.27222406842695523,0.0
2989,0.058639855516750154,0.0
2990,-0.10854931111854965,0.0
2991,-0.0005134831576107061,0.0
2992,-0.0043983770257476455,0.0
2993,-0.018091336702940844,0.0
2994,0.002079687307234939,0.0
2995,0.06647624332571526,0.0
2996,-0.012241334209660379,0.0
2997,-0.0035825741481989443,0.0
2998,-0.0864762415580108,0.0
2999,-0.012039308087988143,0.0
3000,0.4775812372282552,0.0
3001,5.423204442781416,0.0
3002,3.795147112149985,0.0
3003,-2.869299799106062,0.0
3004,1.5589622071415283,0.0
3005,-0.7487608896038612,0.0
3006,0.21926862662075697,0.0
3007,-0.11641319845740897,0.0
3008,-0.09805968659268777,0.0
3009,-0.08083159032647497,0.0
3010,0.006943087132762656,0.0
3011,-0.07060944937118332,0.0
3012,-0.07974477716260339,0.0
3013,-0.09729751785581925,0.0
3014,-0.029288458085343208,0.0
3015,0.025790595021763972,0.0
3016,-0.10992160536553527,0.0
3017,1.383793394460352,0.0
3018,6.811469554909507,0.0
3019,0.08433477133399056,0.0
3020,-1.209148355086954,0.0
3021,0.8063587404905517,0.0
3022,-0.4315560176970412,0.0
3023,0.19880134725800314,0.0
3024,-0.15020753338285356,0.0
3025,-0.046860384158653144,0.0
3026,-0.13433675474856616,0.0
3027,-0.06038277062027601,0.0
3028,-0.038725271047505706,0.0
3029,-0.1146664762747277,0.0
3030,-0.056836777009089526,0.0
3031,-0.042112380742323645,0.0
3032,-0.052358821596018276,0.0
3033,0.0020358901695373306,0.0
3034,3.232971154000145,0.0
3035,6.225894157041578,0.0
3036,-2.68281329591507,0.0
3037,0.8693020447963301,0.0
3038,-0.3140964851876632,0.0
3039,-0.007874327754894158,0.0
3040,-0.11331009035365996,0.0
3041,0.016093497726687965,0.0
3042,-0.06975087674911547,0.0
3043,-0.010590566283711737,0.0
3044,-0.10339203091288396,0.0
3045,-0.01751730478038864,0.0
3046,-0.12745394435773177,0.0
3047,0.059640717039866675,0.0
3048,-0.07064070727533489,0.0
3049,-0.033313993809732524,0.0
3050,0.34626833024245696,0.0
3051,5.284315643373441,0.0
3052,3.724551656341552,0.0
3053,-2.8638145831535207,0.0
3054,1.6056604190785575,0.0
3055,-0.8549328735643331,0.0
3056,0.3442338628952039,0.0
3057,-0.06332748125659439,0.0
3058,0.008193337489037862,0.0
3059,-0.014230937779812183,0.0
3060,-0.010582605590541926,0.0
3061,-0.00671374076611287,0.0
3062,0.004022891604722242,0.0
3063,0.004138087644856105,0.0
3064,0.05885851056678562,0.0
3065,-0.0997748108652353,0.0
3066,-0.09918269200694774,0.0
3067,1.477815468771556,0.0
3068,6.772107996552448,0.0
3069,0.015546334944224055,0.0
3070,-1.1782573549071467,0.0
3071,0.7682620571263975,0.0
3072,-0.4780446818639128,0.0
3073,0.1052026434212216,0.0
3074,-0.13300498147295636,0.0
3075,0.03849628117493567,0.0
3076,-0.0385242856609053,0.0
3077,-0.06732879938501354,0.0
3078,-0.018450504307432895,0.0
3079,0.0057669644294158495,0.0
3080,-0.05470672457834752,0.0
3081,-0.03153640174169831,0.0
3082,-0.06822932605314508,0.0
3083,0.07998388095828847,0.0
3084,3.3066632621745553,0.0
3085,6.404252017343209,0.0
3086,-2.6176585303409348,0.0
3087,0.8976554078341822,0.0
3088,-0.30880999056498487,0.0
3089,0.04408007112463952,0.0
3090,-0.04164824796551715,0.0
3091,0.046334473204904955,0.0
3092,-0.042871019506634134,0.0
3093,-0.03961537123094372,0.0
3094,-0.03305017849827954,0.0
3095,-0.004422463344706164,0.0
3096,-0.0667847453095445,0.0
3097,0.0701535797664451,0.0
3098,-0.007171906918068627,0.0
3099,-0.08824233638815018,0.0
3100,0.5077857522885829,0.0
3101,5.4209475188248,0.0
3102,3.7434446262470074,0.0
3103,-2.8487409574534497,0.0
3104,1.5709448394709518,0.0
3105,-0.7875924616063903,0.0
3106,0.251822393786662,0.0
3107,-0.1219933486100439,0.0
3108,0.05869695035602884,0.0
3109,0.0064184962113016,0.0
3110,0.04966344081932497,0.0
3111,0.040091737216079185,0.0
3112,-0.029976715915559005,0.0
3113,-0.019775734415079113,0.0
3114,0.061134541489275614,0.0
3115,-0.023667938442656154,0.0
3116,0.006126716287054086,0.0
3117,1.4757237792390272,0.0
3118,6.8686386247387174,0.0
3119,0.10961970913616782,0.0
3120,-1.2098609588170075,0.0
3121,0.7981675210144379,0.0
3122,-0.46669263052309623,0.0
3123,0.3067259124847724,0.0
3124,9.797491351711679e-05,0.0
3125,0.04966319126562831,0.0
3126,0.1546143908451659,0.0
3127,0.021001819503196857,0.0
3128,0.061761292713476725,0.0
3129,0.027739090594262286,0.0
3130,0.1096962959610033,0.0
3131,0.16776250729023612,0.0
3132,0.04480524890456282,0.0
3133,0.05507783264226809,0.0
3134,3.3469769195056998,0.0
3135,6.505433575503155,0.0
3136,-2.5767700047850597,0.0
3137,0.9979366865285034,0.0
3138,-0.20350666352303412,0.0
3139,0.13108601172708179,0.0
3140,-0.008108161032730949,0.0
3141,0.14183885487578562,0.0
3142,0.018445540572075418,0.0
3143,0.06711818973625908,0.0
3144,0.06479447385333038,0.0
3145,0.01578750924534489,0.0
3146,0.11401880090087112,0.0
3147,0.08670887639474933,0.0
3148,0.014199957152171233,0.0
3149,0.13134087711688908,0.0
3150,0.5360962054565876,0.0
3151,5.5999307031331345,0.0
3152,3.7786115370697013,0.0
3153,-2.7028470369797954,0.0
3154,1.6266056810408949,0.0
3155,-0.7667507315890967,0.0
3156,0.4070949009017062,0.0
3157,0.0009858286299045081,0.0
3158,0.11229657754450689,0.0
3159,0.10114425519788059,0.0
3160,0.0864401117349274,0.0
3161,0.12659311489258757,0.0
3162,0.16263918190416868,0.0
3163,0.07484756329382494,0.0
3164,0.08144106869090478,0.0
3165,0.01735411511148939,0.0
3166,0.0933398237319893,0.0
3167,1.6155497704702193,0.0
3168,7.016359059596556,0.0
3169,0.18846059525877562,0.0
3170,-0.9929265574588482,0.0
3171,0.9135399492593806,0.0
3172,-0.40492748795789296,0.0
3173,0.23534411005914604,0.0
3174,-0.012743863690618982,0.0
3175,0.10087886474400609,0.0
3176,-0.001081333907362536,0.0
3177,-0.02537057994971731,0.0
3178,0.07411059775840166,0.0
3179,-0.0002417639359703211,0.0
3180,0.10492872726723217,0.0
3181,0.13774172233026016,0.0
3182,0.07895578090124368,0.0
3183,0.1133499375540483,0.0
3184,3.3885790382055454,0.0
3185,6.565915455271308,0.0
3186,-2.5284042852863107,0.0
3187,1.0676341421000524,0.0
3188,-0.21651578330752502,0.0
3189,0.21615127580259366,0.0
3190,0.017218950437608058,0.0
3191,0.19529976496522464,0.0
3192,0.08768008243260171,0.0
3193,0.12636880651204993,0.0
3194,0.07609400756555548,0.0
3195,0.13621607828004978,0.0
3196,0.028284394444119815,0.0
3197,0.025088762081386135,0.0
3198,0.0769139149141012,0.0
3199,0.2622786336210471,0.0
3200,0.5971961521546465,0.0
3201,5.594628229033054,0.0
3202,3.7967848792962924,0.0
3203,-2.7211502989285443,0.0
3204,1.5909735145005695,0.0
3205,-0.6680784690734697,0.0
3206,0.5123997043052011,0.0
3207,-0.006233998322845595,0.0
3208,0.14153639918079125,0.0
3209,0.034542701668993314,0.0
3210,0.08395722167708647,0.0
3211,0.056557735945234555,0.0
3212,0.08734509504544513,0.0
3213,0.179492866144126,0.0
3214,0.14469930392118194,0.0
3215,0.22397652409498486,0.0
3216,0.10771154949149292,0.0
3217,1.6448668731909264,0.0
3218,6.984823385915035,0.0
3219,0.1445079811012822,0.0
3220,-0.9717204746577898,0.0
3221,0.8596835103324036,0.0
3222,-0.36757457018432604,0.0
3223,0.2929012093449057,0.0
3224,0.12026794617757032,0.0
3225,0.19488889550785668,0.0
3226,0.07975848945096772,0.0
3227,0.042351391388882484,0.0
3228,0.1519259447994209,0.0
3229,0.08962564506410804,0.0
3230,0.10064094886200806,0.0
3231,0.17551975496521433,0.0
3232,0.10739391570228676,0.0
3233,0.2236230631659353,0.0
3234,3.418105250986577,0.0
3235,6.437302833661346,0.0
3236,-2.5187807702286533,0.0
3237,1.0504852739906914,0.0
3238,-0.19177565405482497,0.0
3239,0.20348148028171076,0.0
3240,0.09155439645092639,0.0
3241,0.10770120824027497,0.0
3242,0.0835345017909875,0.0
3243,0.09990530687617648,0.0
3244,0.2027756759288821,0.0
3245,0.0674964124046963,0.0
3246,0.06739105226999478,0.0
3247,0.13947531077308908,0.0
3248,0.10425116649517664,0.0
3249,0.02623527929456565,0.0
3250,0.5115294236012594,0.0
3251,5.5862481122701775,0.0
3252,3.7139935713924586,0.0
3253,-2.6342085491456277,0.0
3254,1.7191041315568454,0.0
3255,-0.6482984295733367,0.0
3256,0.5058131290875917,0.0
3257,0.0074815103431161295,0.0
3258,0.14668518217939716,0.0
3259,0.10926382863180753,0.0
3260,0.17097992427837314,0.0
3261,0.12187577840979308,0.0
3262,0.177699250027898,0.0
3263,0.2588379469952617,0.0
3264,0.15517590814390456,0.0
3265,0.20484671061367637,0.0
3266,0.192074743167222,0.0
3267,1.669627186722842,0.0
3268,7.084625158021196,0.0
3269,0.09535978338301132,0.0
3270,-0.9875814101769086,0.0
3271,0.8289490552539356,0.0
3272,-0.3690078337682476,0.0
3273,0.27972596402668853,0.0
3274,0.06973151976418332,0.0
3275,0.14961483418192756,0.0
3276,0.06452815006125494,0.0
3277,0.0988960405230187,0.0
3278,0.16857081927333656,0.0
3279,0.02043138681564846,0.0
3280,0.1179463938331534,0.0
3281,0.09311697378323816,0.0
3282,0.1332511415060468,0.0
3283,0.24570429959858064,0.0
3284,3.4897666344208718,0.0
3285,6.483431717980168,0.0
3286,-2.5728322671375845,0.0
3287,1.1480850482459402,0.0
3288,-0.18198698514964637,0.0
3289,0.2783864156486963,0.0
3290,0.07229120434770597,0.0
3291,0.07696632040320239,0.0
3292,0.06268770856106713,0.0
3293,0.1431280519263242,0.0
3294,0.0758666457108092,0.0
3295,0.11363561941924866,0.0
3296,0.18058380372471688,0.0
3297,0.1858509078223623,0.0
3298,0.14450484506316516,0.0
3299,0.1428200622614082,0.0
3300,0.6526626772337322,0.0
3301,5.5747846286638625,0.0
3302,3.6544124889961305,0.0
3303,-2.601466784921325,0.0
3304,1.7231883259839191,0.0
3305,-0.6886507497954362,0.0
3306,0.46330544351240394,0.0
3307,-0.001228383023194897,0.0
3308,0.15248596293448566,0.0
3309,0.13376083009411813,0.0
3310,0.18213605188994608,0.0
3311,0.1997715579298373,0.0
3312,0.23194329276798575,0.0
3313,0.056181253950881554,0.0
3314,0.12257818354939351,0.0
3315,0.08127207074149755,0.0
3316,0.04527116912428056,0.0
3317,1.6191105939970607,0.0
3318,7.065005286487123,0.0
3319,0.12312367963118287,0.0
3320,-0.9585491511701694,0.0
3321,0.9126416932266044,0.0
3322,-0.26420207494943,0.0
3323,0.3168317116091575,0.0
3324,0.08526861408952374,0.0
3325,0.11404652645373446,0.0
3326,0.14916375597670617,0.0
3327,0.15003247289538596,0.0
3328,0.10830427207532199,0.0
3329,0.14117234930712744,0.0
3330,0.026868647848699384,0.0
3331,0.17063542435309698,0.0
3332,0.08561198326311334,0.0
3333,0.28834304709230074,0.0
3334,3.6013894166937104,0.0
3335,6.385744690163809,0.0
3336,-2.4895240557107616,0.0
3337,1.148243311547056,0.0
3338,-0.15286587162977283,0.0
3339,0.25769602507817047,0.0
3340,0.045699036191148866,0.0
3341,0.204011068598875,0.0
3342,0.14242378542449552,0.0
3343,0.12337290961599119,0.0
3344,0.14479086925104478,0.0
3345,0.08245510991150759,0.0
3346,0.1581770498039238,0.0
3347,0.20943808496551558,0.0
3348,0.13060953990389995,0.0
3349,0.2881536516138867,0.0
3350,0.6735206079542917,0.0
3351,5.559017018393168,0.0
3352,3.5860888428479116,0.0
3353,-2.660362585346326,0.0
3354,1.6688569389386891,0.0
3355,-0.674726293639496,0.0
3356,0.40909436379152203,0.0
3357,-0.08952858155037584,0.0
3358,0.13325480052747773,0.0
3359,0.08604238095455097,0.0
3360,0.12651609694340288,0.0
3361,0.045358682599326246,0.0
3362,0.08452141016589151,0.0
3363,-0.04171075483323075,0.0
3364,0.09814892698488417,0.0
3365,0.10349808016731443,0.0
3366,0.16210748330185615,0.0
3367,1.6449209309337391,0.0
3368,7.005984734610814,0.0
3369,0.014105369042000758,0.0
3370,-0.9619351868132585,0.0
3371,0.870829258594962,0.0
3372,-0.36458043532606027,0.0
3373,0.16108699893333658,0.0
3374,-0.07263777523580661,0.0
3375,0.1761813477338157,0.0
3376,0.02591455306740016,0.0
3377,0.09756544100141562,0.0
3378,0.12223010043158067,0.0
3379,0.07127939616907868,0.0
3380,0.08968692421505867,0.0
3381,0.09286867309489508,0.0
3382,0.18184326331792416,0.0
3383,0.21090817866758194,0.0
3384,3.4690347578279432,0.0
3385,6.381283744393795,0.0
3386,-2.535720553081568,0.0
3387,1.0319359293624506,0.0
3388,-0.3019944479327821,0.0
3389,0.1533717316502623,0.0
3390,0.11229892852682993,0.0
3391,0.058421690747243855,0.0
3392,0.12415014001227337,0.0
3393,0.14290887980355055,0.0
3394,0.004241540814734185,0.0
3395,0.1193286827984521,0.0
3396,0.07265382510611065,0.0
3397,0.02554402092442859,0.0
3398,0.14872371423489517,0.0
3399,0.06387003180830589,0.0
3400,0.45279450277530203,0.0
3401,5.679216106788266,0.0
3402,3.6445169313844,0.0
3403,-2.6991658967976337,0.0
3404,1.5931017434469876,0.0
3405,-0.6846445941443037,0.0
3406,0.3416711813609138,0.0
3407,-0.01189794888313643,0.0
3408,0.15076093784971392,0.0
3409,0.07912967292728444,0.0
3410,0.032511183891657205,0.0
3411,0.12607125698261173,0.0
3412,0.18618586688451705,0.0
3413,0.0785205276254915,0.0
3414,0.012969520197613826,0.0
3415,0.11161348002125779,0.0
3416,0.04930437659203302,0.0
3417,1.6652957796103056,0.0
3418,6.970396746193404,0.0
3419,-0.026596922380354743,0.0
3420,-0.9299683813607871,0.0
3421,0.750192342341585,0.0
3422,-0.30549590285151074,0.0
3423,0.23869117290538688,0.0
3424,0.03259242914327302,0.0
3425,0.049529654972241564,0.0
3426,0.0695252916854459,0.0
3427,0.11445450759100304,0.0
3428,-0.01720976404874299,0.0
3429,0.05475328880443498,0.0
3430,0.09332986537959645,0.0
3431,0.06424048793590062,0.0
3432,0.08093272613975591,0.0
3433,0.1748567684264421,0.0
3434,3.375743658802948,0.0
3435,6.31763162395751,0.0
3436,-2.6721506354144493,0.0
3437,1.0708974262774007,0.0
3438,-0.2855347248323125,0.0
3439,0.1484976546761555,0.0
3440,-0.030544172522298563,0.0
3441,0.08470231215657592,0.0
3442,0.139866325114747,0.0
3443,-0.04445749664657121,0.0
3444,0.010505290412453933,0.0
3445,0.07568995751647198,0.0
3446,0.05843448905573209,0.0
3447,-0.00030876554379849486,0.0
3448,0.018763650174047387,0.0
3449,0.046366567502185506,0.0
3450,0.5395053945708861,0.0
3451,5.651536129150409,0.0
3452,3.599230953266125,0.0
3453,-2.7815299662589346,0.0
3454,1.5381002868405385,0.0
3455,-0.74121270801492,0.0
3456,0.40532359576394505,0.0
3457,-0.05295928471646756,0.0
3458,0.13726879288026067,0.0
3459,0.001218834924641525,0.0
3460,0.06049628130977573,0.0
3461,-0.03535706073982789,0.0
3462,0.019306975398606114,0.0
3463,0.034119509675531005,0.0
3464,0.03677139690060434,0.0
3465,0.03945533811071851,0.0
3466,-0.03810826798172244,0.0
3467,1.654569691991775,0.0
3468,7.040487870443762,0.0
3469,-0.05976582854247058,0.0
3470,-1.0233137095698972,0.0
3471,0.8160913067138057,0.0
3472,-0.3805065715344134,0.0
3473,0.21877489579831802,0.0
3474,-0.03852123703724478,0.0
3475,0.048713145114838124,0.0
3476,0.004791305705190176,0.0
3477,0.005577656203714016,0.0
3478,0.023921336584624617,0.0
3479,0.10165371774181524,0.0
3480,-0.06775638263681397,0.0
3481,0.06181267205147104,0.0
3482,0.08455775252835772,0.0
3483,0.10581858939277855,0.0
3484,3.435696643001326,0.0
3485,6.2925190891726475,0.0
3486,-2.692807799275807,0.0
3487,1.00835934472479,0.0
3488,-0.3728572591917709,0.0
3489,0.037221921655248555,0.0
3490,-0.08165241816508548,0.0
3491,0.09621067682994729,0.0
3492,-0.060193905152777095,0.0
3493,-0.037569657521655225,0.0
3494,-0.08542865543002487,0.0
3495,-0.013982337002297162,0.0
3496,-0.030981647839071605,0.0
3497,0.002268367089670237,0.0
3498,-0.015131488001160175,0.0
3499,-0.03544270437206706,0.0
3500,0.48257082500170734,0.0
3501,5.542836625810629,0.0
3502,3.529050068687194,0.0
3503,-2.7383603060558306,0.0
3504,1.5467771846417082,0.0
3505,-0.7659854070147827,0.0
3506,0.3659200539790854,0.0
3507,-0.15620750276621356,0.0
3508,0.0423136273883391,0.0
3509,-0.03038519004648974,0.0
3510,0.03405392412560583,0.0
3511,-0.055544742758153784,0.0
3512,-0.03947787157613564,0.0
3513,-0.028770548941037283,0.0
3514,-0.03350120283607276,0.0
3515,-0.010872181050953455,0.0
3516,0.0005753288660913826,0.0
3517,1.5221632031647014,0.0
3518,6.924992177331007,0.0
3519,-0.14857367948309042,0.0
3520,-0.9769017136423491,0.0
3521,0.7596021880470237,0.0
3522,-0.4546331610014758,0.0
3523,0.15995422466350545,0.0
3524,-0.1436941040208324,0.0
3525,-0.07137405910954234,0.0
3526,-0.004016833366395436,0.0
3527,-0.05962311743719813,0.0
3528,0.019917899933526353,0.0
3529,-0.07518685159440375,0.0
3530,0.04280313595025208,0.0
3531,-0.012614362349064798,0.0
3532,-0.006325447920091673,0.0
3533,0.13481699408596692,0.0
3534,3.5771328078825766,0.0
3535,6.3148579502609605,0.0
3536,-2.68504915194767,0.0
3537,0.9508250959117697,0.0
3538,-0.3687249685998016,0.0
3539,0.043623596032430476,0.0
3540,-0.0886550107764405,0.0
3541,0.021459194284023146,0.0
3542,-0.004984729932496809,0.0
3543,0.008489374567365374,0.0
3544,-0.06325938760655478,0.0
3545,0.04924596674152046,0.0
3546,-0.10634633804471907,0.0
3547,0.03993778619418213,0.0
3548,-0.0268336625733852,0.0
3549,0.03772169102273648,0.0
3550,0.5773564635978068,0.0
3551,5.568492655027294,0.0
3552,3.5042488220223182,0.0
3553,-2.7702696953340316,0.0
3554,1.6168269161494049,0.0
3555,-0.791363065131774,0.0
3556,0.42693010885868055,0.0
3557,-0.11098652934910323,0.0
3558,0.13465782618809205,0.0
3559,0.0363684512333487,0.0
3560,0.10667350342101821,0.0
3561,0.017394918673559853,0.0
3562,-0.045124367018296724,0.0
3563,0.019359404364174087,0.0
3564,-0.07223805392499491,0.0
3565,-0.0864777102812744,0.0
3566,0.05247945319514293,0.0
3567,1.5203648942859753,0.0
3568,6.821490763644052,0.0
3569,-0.23657610117786987,0.0
3570,-1.1428360513399123,0.0
3571,0.8053652899707138,0.0
3572,-0.46702355259796174,0.0
3573,0.16747887092379807,0.0
3574,-0.1098918946669895,0.0
3575,-0.06336146821670453,0.0
3576,-0.02030233014272255,0.0
3577,-0.018800929637099683,0.0
3578,0.035274287819662506,0.0
3579,-0.04388334512541485,0.0
3580,-0.061348096225241025,0.0
3581,-0.05067850437031739,0.0
3582,-0.048968364176409034,0.0
3583,0.015926382711347886,0.0
3584,3.4719075419893652,0.0
3585,6.221191563869309,0.0
3586,-2.737675609241552,0.0
3587,0.9603270840105721,0.0
3588,-0.34920323320304825,0.0
3589,0.07179438880977965,0.0
3590,-0.1311554411631683,0.0
3591,-0.006350676292184386,0.0
3592,0.005975700350395491,0.0
3593,0.033523219673265915,0.0
3594,0.027806508334253098,0.0
3595,-0.11710584097010177,0.0
3596,-0.09753987531432194,0.0
3597,-0.04804270451288914,0.0
3598,-0.0237746337200464,0.0
3599,0.006297530220367352,0.0
3600,0.4828452698806118,0.0
3601,5.531429406490947,0.0
3602,3.4891650353359407,0.0
3603,-2.752425310230337,0.0
3604,1.5430234037038058,0.0
3605,-0.8179608985619121,0.0
3606,0.28972192281747433,0.0
3607,-0.039701483343466404,0.0
3608,0.008920937573266993,0.0
3609,-0.07370538176394063,0.0
3610,-0.07765933789676287,0.0
3611,-0.05444194278702515,0.0
3612,-0.10272963851642264,0.0
3613,-0.0962810823499371,0.0
3614,-0.07647062768307444,0.0
3615,-0.09147716466549874,0.0
3616,0.017190950833710222,0.0
3617,1.5357157662373793,0.0
3618,6.968924035154946,0.0
3619,-0.18935164235977697,0.0
3620,-1.0195259805608032,0.0
3621,0.70144848361788,0.0
3622,-0.4102569933614272,0.0
3623,0.123962811578519,0.0
3624,-0.08396341220551765,0.0
3625,0.06677011296160085,0.0
3626,-0.028328488801615922,0.0
3627,0.029831040665569394,0.0
3628,-0.11459585213429396,0.0
3629,0.012954909347399169,0.0
3630,0.022717787127012615,0.0
3631,-0.020311601497884364,0.0
3632,-0.010689540791539099,0.0
3633,0.08570928681415516,0.0
3634,3.4249714621901237,0.0
3635,6.1883541782283515,0.0
3636,-2.7190733701800975,0.0
3637,1.0107793927875193,0.0
3638,-0.44505594168327517,0.0
3639,0.06673844684946942,0.0
3640,-0.022847204995482227,0.0
3641,0.0025911667129871405,0.0
3642,-0.09656682371450756,0.0
3643,0.03396481349567855,0.0
3644,-0.021726181460225924,0.0
3645,-0.07417346240481057,0.0
3646,0.040639653154155256,0.0
3647,-0.07075274496777516,0.0
3648,0.01293512201021153,0.0
3649,0.05718315225085492,0.0
3650,0.498862814214947,0.0
3651,5.587929908007194,0.0
3652,3.4878913901922015,0.0
3653,-2.779358557688512,0.0
3654,1.476611578687751,0.0
3655,-0.9005152868285267,0.0
3656,0.3450118261123146,0.0
3657,-0.04363173015590635,0.0
3658,-0.020519553013803246,0.0
3659,0.006249546381794334,0.0
3660,0.04664221280811239,0.0
3661,-0.03610869389447264,0.0
3662,-0.028246081963720988,0.0
3663,0.01969001442950749,0.0
3664,0.04799790543909996,0.0
3665,-0.008105503433314929,0.0
3666,0.030194745742914142,0.0
3667,1.6220007844419286,0.0
3668,6.821931261464052,0.0
3669,-0.21763323622453337,0.0
3670,-1.123625967504072,0.0
3671,0.7235464120964318,0.0
3672,-0.2910963739348619,0.0
3673,0.11291072757869582,0.0
3674,-0.1360241247671282,0.0
3675,-0.011699966692077714,0.0
3676,-0.057969317151655056,0.0
3677,0.0004598218985068271,0.0
3678,0.05455721522115823,0.0
3679,0.013998457213646787,0.0
3680,-0.02462326327414179,0.0
3681,0.09087765976211437,0.0
3682,-0.04674502549946098,0.0
3683,0.12377919843372698,0.0
3684,3.540758258182086,0.0
3685,6.247176645352852,0.0
3686,-2.7817592081948312,0.0
3687,1.0032034992283754,0.0
3688,-0.37266657702741535,0.0
3689,0.07059289084972914,0.0
3690,-0.04924344152306988,0.0
3691,0.0023254289565621047,0.0
3692,0.000870780397337366,0.0
3693,0.08484671061935926,0.0
3694,0.023039058977705203,0.0
3695,0.017089107551517085,0.0
3696,0.036894877259986636,0.0
3697,0.02026017314046451,0.0
3698,-0.0334330107907559,0.0
3699,-0.06882571786570463,0.0
3700,0.5396458581526173,0.0
3701,5.502714027860316,0.0
3702,3.2979907087371556,0.0
3703,-2.641891146950931,0.0
3704,1.4931571400328991,0.0
3705,-0.7633433522401192,0.0
3706,0.32014861733731215,0.0
3707,-0.10161271899815241,0.0
3708,-0.08967522368577253,0.0
3709,-0.0008672732071091926,0.0
3710,-0.08827682638539441,0.0
3711,-0.04580738293109564,0.0
3712,-0.11847982236379576,0.0
3713,0.023228011811821866,0.0
3714,-0.12120381942237676,0.0
3715,-0.0039004379371799305,0.0
3716,-0.06539499422802926,0.0
3717,1.6180412632380337,0.0
3718,6.838121348482206,0.0
3719,-0.2903966711590246,0.0
3720,-0.9689161217059241,0.0
3721,0.7371419686274351,0.0
3722,-0.46092993420835493,0.0
3723,0.03889600952789317,0.0
3724,-0.11435891389878133,0.0
3725,0.007048103247157853,0.0
3726,-0.04996520658121027,0.0
3727,0.03168613125088333,0.0
3728,0.010644971263941724,0.0
3729,-0.001896770483528873,0.0
3730,0.05494872328595874,0.0
3731,0.03726983104826534,0.0
3732,0.048078602484073224,0.0
3733,0.14716531502750593,0.0
3734,3.5490947434601,0.0
3735,6.167161283943661,0.0
3736,-2.697502413865578,0.0
3737,1.1365562683640247,0.0
3738,-0.31968518097418913,0.0
3739,0.09214320215936525,0.0
3740,0.0016368191556386316,0.0
3741,0.03978191920528511,0.0
3742,-0.020340313781749463,0.0
3743,0.008556969066371269,0.0
3744,0.03449663428560247,0.0
3745,-0.020969391618637562,0.0
3746,0.016052533334655113,0.0
3747,0.10774760822706386,0.0
3748,0.015778943331198038,0.0
3749,0.02100175364024706,0.0
3750,0.5935053042335564,0.0
3751,5.623578157771346,0.0
3752,3.4189838345321113,0.0
3753,-2.6330060131655557,0.0
3754,1.4779188393969267,0.0
3755,-0.7070268864216848,0.0
3756,0.30641106063760754,0.0
3757,-0.14634646305431817,0.0
3758,0.1933107629141358,0.0
3759,-0.04653330950869154,0.0
3760,0.03066657642525581,0.0
3761,0.06207529643082532,0.0
3762,-0.050800791706409394,0.0
3763,0.041142589476211765,0.0
3764,0.024388905513417363,0.0
3765,-0.015556579475493057,0.0
3766,0.03397076031256325,0.0
3767,1.5928842171168691,0.0
3768,6.91413563496137,0.0
3769,-0.20393248830347782,0.0
3770,-0.8992548930079998,0.0
3771,0.7554646981501623,0.0
3772,-0.41699834508934286,0.0
3773,0.16859160717914518,0.0
3774,0.012325698240243273,0.0
3775,0.0053314207753027,0.0
3776,0.06737410684540476,0.0
3777,0.07270793660391728,0.0
3778,-0.029405710162772852,0.0
3779,0.011492753053932568,0.0
3780,0.1042904417331465,0.0
3781,-0.022506443254661793,0.0
3782,0.025193411996176203,0.0
3783,0.07232166838492986,0.0
3784,3.508643828128303,0.0
3785,6.353209542262036,0.0
3786,-2.7311883176376033,0.0
3787,0.9635657180475166,0.0
3788,-0.3304446104403252,0.0
3789,0.10908081430980476,0.0
3790,-0.005569411892376995,0.0
3791,-0.05538136632193873,0.0
3792,-0.07101079658820826,0.0
3793,0.015177349504671008,0.0
3794,0.021213370720874054,0.0
3795,-0.02073554193324436,0.0
3796,0.026007792066454358,0.0
3797,0.07115481135200347,0.0
3798,0.08077277452762144,0.0
3799,-0.05289061775854412,0.0
3800,0.5667454298253235,0.0
3801,5.481907810979079,0.0
3802,3.4321026869237254,0.0
3803,-2.721692944133016,0.0
3804,1.487048998597317,0.0
3805,-0.6771849723694093,0.0
3806,0.3459486068001482,0.0
3807,0.043506611828011896,0.0
3808,0.037725966057979704,0.0
3809,0.1155457757896887,0.0
3810,0.06179799501643923,0.0
3811,-0.023620377977808915,0.0
3812,0.018876110436743913,0.0
3813,0.04312776075587163,0.0
3814,0.05593893164475274,0.0
3815,-0.03513034505243913,0.0
3816,0.1025764353221939,0.0
3817,1.641206460458307,0.0
3818,6.953987391538109,0.0
3819,-0.21023786421885465,0.0
3820,-0.9591096921196517,0.0
3821,0.718767043739104,0.0
3822,-0.4114279237772783,0.0
3823,0.14416306425904904,0.0
3824,-0.07969159241967533,0.0
3825,0.09477560389958173,0.0
3826,0.034844762199946956,0.0
3827,0.028368685511708448,0.0
3828,-0.0151642597935172,0.0
3829,-0.0014738684098407123,0.0
3830,0.016716438394409,0.0
3831,0.0322459465390389,0.0
3832,-0.005596389987511885,0.0
3833,0.12718640623550254,0.0
3834,3.5723815649009474,0.0
3835,6.188740084540379,0.0
3836,-2.809275085668623,0.0
3837,1.0634100120131278,0.0
3838,-0.288070401247729,0.0
3839,0.10110367248221971,0.0
3840,-0.047246103730052044,0.0
3841,-0.07400181851198724,0.0
3842,-0.09006499243835502,0.0
3843,-0.06518620695062766,0.0
3844,-0.04425399990106327,0.0
3845,-0.010242707571300861,0.0
3846,0.007095359827153223,0.0
3847,0.017631034140746796,0.0
3848,0.031496532177075084,0.0
3849,0.004786928221398657,0.0
3850,0.6004864062798702,0.0
3851,5.63000704415238,0.0
3852,3.407744109226788,0.0
3853,-2.65443822010094,0.0
3854,1.5510748732973418,0.0
3855,-0.713886503232111,0.0
3856,0.3018847423165022,0.0
3857,-0.15190807266427525,0.0
3858,0.057965400342118195,0.0
3859,0.08933061142893915,0.0
3860,0.03345119378453783,0.0
3861,0.0016954086687067712,0.0
3862,0.031565778067507835,0.0
3863,0.00471203412475184,0.0
3864,0.009540807153499031,0.0
3865,-0.03639293537074172,0.0
3866,-0.06161332976493899,0.0
3867,1.6191522321707654,0.0
3868,6.935282497321699,0.0
3869,-0.2476279963262688,0.0
3870,-0.8926629507576096,0.0
3871,0.7288283428915303,0.0
3872,-0.4328847092581685,0.0
3873,0.15192081539670294,0.0
3874,-0.022734037871150234,0.0
3875,0.030408508546037827,0.0
3876,-0.08446913578879545,0.0
3877,-0.040680148066151764,0.0
3878,-0.1341276297434763,0.0
3879,-0.002439087580445337,0.0
3880,-0.020094350322025153,0.0
3881,-0.013117314833303736,0.0
3882,-0.04952027681332921,0.0
3883,0.09293043607475131,0.0
3884,3.5265311855238126,0.0
3885,6.251019567786103,0.0
3886,-2.717304136308398,0.0
3887,1.114956394500373,0.0
3888,-0.326776529851936,0.0
3889,0.19061372401514626,0.0
3890,-0.04615154358129289,0.0
3891,0.06582603487546164,0.0
3892,0.0790613484004069,0.0
3893,-0.05352842272702559,0.0
3894,-0.0007747234208137785,0.0
3895,0.01524047989654516,0.0
3896,-0.09458843786219283,0.0
3897,0.03773590824937223,0.0
3898,0.12956458483206662,0.0
3899,-0.11850665986465597,0.0
3900,0.49915876545087456,0.0
3901,5.64843472100965,0.0
3902,3.3729752253495207,0.0
3903,-2.709637794137142,0.0
3904,1.509593388699097,0.0
3905,-0.730655064154837,0.0
3906,0.2584861593172054,0.0
3907,-0.10671150040458584,0.0
3908,0.031744393884271596,0.0
3909,-0.0002583605328265112,0.0
3910,-0.009547032829916258,0.0
3911,0.01731743738210087,0.0
3912,-0.09721960119657652,0.0
3913,-0.0822401538791128,0.0
3914,-0.09463557103492963,0.0
3915,-0.029992116624930315,0.0
3916,-0.09346502308419283,0.0
3917,1.6763265855625846,0.0
3918,6.953366217580833,0.0
3919,-0.27551080817887674,0.0
3920,-0.8920632253856713,0.0
3921,0.7719826018792688,0.0
3922,-0.2970004899334966,0.0
3923,0.25916775785658763,0.0
3924,0.04539453201371183,0.0
3925,0.07432466209964689,0.0
3926,0.08629236194445376,0.0
3927,0.1266125763682094,0.0
3928,0.04727656332680622,0.0
3929,0.10744811164832763,0.0
3930,0.08119601483042214,0.0
3931,-0.01137366302602006,0.0
3932,0.013913310836418329,0.0
3933,0.189221279622479,0.0
3934,3.6195241274263936,0.0
3935,6.097561422128222,0.0
3936,-2.6981187186951137,0.0
3937,1.0261068244016476,0.0
3938,-0.4437734670109083,0.0
3939,0.14789646694162714,0.0
3940,-0.06822700453595375,0.0
3941,-0.024613527676318372,0.0
3942,-0.09706925860575195,0.0
3943,-0.03865501307868835,0.0
3944,0.028272488656597955,0.0
3945,-0.04245937663856163,0.0
3946,0.02734162436526453,0.0
3947,-0.02356876625141989,0.0
3948,-0.04299951628649898,0.0
3949,-0.03615020167337474,0.0
3950,0.6066210950936727,0.0
3951,5.628021152761962,0.0
3952,3.407932514538893,0.0
3953,-2.5919316998551016,0.0
3954,1.5826100947616002,0.0
3955,-0.7132662636379751,0.0
3956,0.3022155188400316,0.0
3957,-0.11376364635393033,0.0
3958,0.0414661274030107,0.0
3959,0.061973081306848594,0.0
3960,0.0811365371843614,0.0
3961,0.054264496609793614,0.0
3962,-0.017369537603876085,0.0
3963,-0.04871946367560363,0.0
3964,0.019257732956254894,0.0
3965,0.006878130999813405,0.0
3966,0.15043626234957752,0.0
3967,1.6780326070693865,0.0
3968,6.9031306479983305,0.0
3969,-0.33226981686841206,0.0
3970,-0.7643919593289945,0.0
3971,0.7512559202655356,0.0
3972,-0.46298322826679966,0.0
3973,0.1803729387135825,0.0
3974,0.015238562502547723,0.0
3975,0.02706047018045304,0.0
3976,-0.02627311506506172,0.0
3977,0.007644772777250428,0.0
3978,0.04489416871623726,0.0
3979,0.003964149922309174,0.0
3980,0.047820823075373886,0.0
3981,0.07692287981582316,0.0
3982,0.07937609177388463,0.0
3983,0.2502680202905397,0.0
3984,3.6397205973762343,0.0
3985,6.2023123438054695,0.0
3986,-2.7159472366441704,0.0
3987,1.2158692833396532,0.0
3988,-0.29066468232977116,0.0
3989,0.21799188092835592,0.0
3990,0.04887559097732705,0.0
3991,0.056284024355673326,0.0
3992,0.03787663490260613,0.0
3993,0.00023294107522798396,0.0
3994,0.08087756038900748,0.0
3995,0.07608496876097234,0.0
3996,0.06055208702589131,0.0
3997,0.0337987929516396,0.0
3998,-0.03495940532216759,0.0
3999,-0.09391991002924756,0.0
4000,0.5416304366069945,0.0
4001,5.706555851866208,0.0
4002,3.2818799720174465,0.0
4003,-2.7035952118409323,0.0
4004,1.5773904438486952,0.0
4005,-0.7183431017967004,0.0
4006,0.3015870639491053,0.0
4007,-0.10626523530455512,0.0
4008,0.01565898130240704,0.0
4009,-0.029808380396061623,0.0
4010,0.061505839842240506,0.0
4011,-0.0066499850637259435,0.0
4012,0.02986348675010709,0.0
4013,0.057038421200910044,0.0
4014,-0.014191066016883358,0.0
4015,0.06151610426493882,0.0
4016,0.010053411185377281,0.0
4017,1.6810028677809379,0.0
4018,7.052927635446982,0.0
4019,-0.3586076167786646,0.0
4020,-0.8526485820025836,0.0
4021,0.746708069379349,0.0
4022,-0.3857877061133699,0.0
4023,0.07310075368935767,0.0
4024,-0.04925000628947901,0.0
4025,0.04611532064894571,0.0
4026,-0.03283524593789199,0.0
4027,-0.055604590189317585,0.0
4028,-0.05518814754281834,0.0
4029,0.03854914715491892,0.0
4030,0.06319427462415955,0.0
4031,0.06742052786602251,0.0
4032,0.09220604743213245,0.0
4033,0.1103820119882836,0.0
4034,3.606082252946351,0.0
4035,6.209985597022641,0.0
4036,-2.76604805053776,0.0
4037,1.0993753418977048,0.0
4038,-0.2616393130675514,0.0
4039,0.14978046919199994,0.0
4040,-0.1501860033201098,0.0
4041,0.09543425284741125,0.0
4042,0.11233105932894033,0.0
4043,0.0780814586164334,0.0
4044,0.08243355711346231,0.0
4045,0.045649247271291334,0.0
4046,0.1712340302111641,0.0
4047,-0.022897008235844757,0.0
4048,0.1257410011892137,0.0
4049,0.08291984295834143,0.0
4050,0.6052444799223304,0.0
4051,5.7093061534796465,0.0
4052,3.322038130386787,0.0
4053,-2.6341938540263663,0.0
4054,1.5810926446438656,0.0
4055,-0.6974910473856771,0.0
4056,0.4112835170168735,0.0
4057,-0.14138183491004136,0.0
4058,0.04032691008619109,0.0
4059,-0.015528214922894888,0.0
4060,0.07343803741589815,0.0
4061,0.024865129960500613,0.0
4062,0.05119830229951006,0.0
4063,-0.00316396803223271,0.0
4064,0.056814675937644145,0.0
4065,0.01902177505368608,0.0
4066,-0.09684676717491753,0.0
4067,1.655196294525977,0.0
4068,6.941870222643936,0.0
4069,-0.31855249459060325,0.0
4070,-0.9082635060135712,0.0
4071,0.6829980705079834,0.0
4072,-0.37638646605019854,0.0
4073,0.11463362887210816,0.0
4074,-0.07876819937551909,0.0
4075,0.01171050801466799,0.0
4076,0.11900356434757707,0.0
4077,0.03671551458565752,0.0
4078,-0.022297268323163734,0.0
4079,0.12862873990117452,0.0
4080,0.06373054458192716,0.0
4081,0.10335325363229689,0.0
4082,0.10991813735713475,0.0
4083,0.1929505462109162,0.0
4084,3.703815159956942,0.0
4085,6.207999171214818,0.0
4086,-2.6638345426470713,0.0
4087,1.2162723957211892,0.0
4088,-0.19539247697146117,0.0
4089,0.2829010037070551,0.0
4090,0.016000718350072333,0.0
4091,0.12981768545761194,0.0
4092,0.14643801440052878,0.0
4093,0.13458885747428107,0.0
4094,0.07153700468778411,0.0
4095,0.026465843219270535,0.0
4096,0.05730786687923188,0.0
4097,-0.01177530966551308,0.0
4098,0.034836307336831386,0.0
4099,0.012352994160029655,0.0
4100,0.6021297788479174,0.0
4101,5.754625697255328,0.0
4102,3.292700474276985,0.0
4103,-2.577158720300225,0.0
4104,1.5694652401230451,0.0
4105,-0.7531191237749585,0.0
4106,0.3291785700943757,0.0
4107,-0.03404330308944668,0.0
4108,0.09712583673092602,0.0
4109,-0.018845949829245534,0.0
4110,0.026676892151328402,0.0
4111,0.047980241355830115,0.0
4112,-0.051971290554706485,0.0
4113,-0.009766832946213153,0.0
4114,0.016134213924009187,0.0
4115,0.0883439612081866,0.0
4116,0.04984352615656509,0.0
4117,1.699534763868261,0.0
4118,6.915045703927023,0.0
4119,-0.441680506592813,0.0
4120,-0.8002967863294788,0.0
4121,0.7761028071527947,0.0
4122,-0.3790715523568566,0.0
4123,0.26959676396277304,0.0
4124,0.014287904013455147,0.0
4125,0.09092195660566706,0.0
4126,0.021016816586181084,0.0
4127,0.06374845294022265,0.0
4128,0.022202481817736375,0.0
4129,0.05539384207953343,0.0
4130,0.02661714308158704,0.0
4131,0.0010038440695830375,0.0
4132,0.01668044166092176,0.0
4133,0.10744075729303039,0.0
4134,3.616983963663468,0.0
4135,6.168107055850184,0.0
4136,-2.68510320413694,0.0
4137,1.182968898804948,0.0
4138,-0.37237924214673374,0.0
4139,0.21816549537570776,0.0
4140,-0.006551694408367052,0.0
4141,-0.05721924776969042,0.0
4142,-0.06723692634657216,0.0
4143,0.08732824332106713,0.0
4144,0.03272639806695178,0.0
4145,0.026816361638375117,0.0
4146,0.037374973371780904,0.0
4147,0.056383318440845764,0.0
4148,-0.006434606286629011,0.0
