timestamp,value-0,is_anomaly
0,0.3174861702832155,0
1,4.624964690372284,0
2,5.083259135362615,0
3,-3.089244546815311,0
4,1.607969656879571,0
5,-0.6472668140148372,0
6,0.28919937953645447,0
7,-0.08999879454588712,0
8,-0.006827064064253617,0
9,-0.09238324170639256,0
10,-0.07363684385897176,0
11,-0.06733735385765248,0
12,-0.036813184136436417,0
13,0.0675593250867785,0
14,0.01733032090496868,0
15,-0.04978772621185749,0
16,0.07126158303167208,0
17,1.0295026659805337,0
18,6.570617130955812,0
19,1.6635616283407506,0
20,-1.9478666678094876,0
21,1.3390458011299817,0
22,-0.6702363490879243,0
23,0.3492251687165311,0
24,0.05355126704880571,0
25,0.10044767822809572,0
26,-0.004725565143944455,0
27,0.026227307819228336,0
28,0.062761035567983,0
29,0.09373250847631101,0
30,0.05198645505964091,0
31,-0.01781076629844161,0
32,0.0385603041750273,0
33,0.039730934846939486,0
34,2.522841413921945,0
35,6.888857523821325,0
36,-1.8057573179479292,0
37,0.12842981866844685,0
38,0.1757404915097104,0
39,-0.11225806329563366,0
40,0.04760213775206091,0
41,0.02599168268770726,0
42,0.05408428927138925,0
43,0.01738018699266368,0
44,-0.027821104901061905,0
45,-0.09680134314678879,0
46,0.03536553052238697,0
47,-0.11570177552989581,0
48,0.014155163973368745,0
49,0.11311903044700244,0
50,0.18596122192158013,0
51,4.646569752854691,0
52,5.01576645320126,0
53,-2.955601210850447,0
54,1.5719918045740884,0
55,-0.6753911165353121,0
56,0.35154977178109786,0
57,-0.11047620576424722,0
58,0.11675937942754233,0
59,0.04307918741404218,0
60,0.02378185367662588,0
61,0.03889035258134078,0
62,-0.055600374842345125,0
63,0.07070698116612673,0
64,0.159061979463653,0
65,0.02499869726822481,0
66,0.05927919912182265,0
67,1.0027142801148141,0
68,6.508615840831478,0
69,1.5371143226806605,0
70,-1.9079620332504241,0
71,1.365505303192826,0
72,-0.617818235357082,0
73,0.30655224512936186,0
74,-0.09230680626241654,0
75,0.047279806927227656,0
76,-0.007288021792247308,0
77,0.03617182113221167,0
78,-0.045624840877168255,0
79,0.0036584637456657243,0
80,0.03937069345179818,0
81,-0.06379528308185801,0
82,-0.00520514044223923,0
83,0.0042888888041474685,0
84,2.474852954738751,0
85,6.9074670118335835,0
86,-1.801445131484825,0
87,0.1106058456862596,0
88,0.14384611099590794,0
89,0.012588151763100769,0
90,0.06851939580338567,0
91,0.010915831721409945,0
92,0.046600631965552565,0
93,0.03509760229699453,0
94,0.1552983911536445,0
95,0.0077292032397174235,0
96,0.03953856044357991,0
97,0.08029780566012229,0
98,0.06442586907121431,0
99,0.05223023802217883,0
100,0.30185123454947743,0
101,4.727473554158745,0
102,5.027522712873334,0
103,-2.945260820898818,0
104,1.5528843446147844,0
105,-0.6286667893087685,0
106,0.3052365577353948,0
107,-0.08332992043856152,0
108,0.08713231242302566,0
109,-0.005420397598511761,0
110,-0.05590898404157555,0
111,0.035989496891546804,0
112,0.05493632608083042,0
113,-0.04994940639198929,0
114,-0.056678867766136065,0
115,0.09959357899472067,0
116,0.04455077978620703,0
117,1.0386655538343306,0
118,6.474231762345696,0
119,1.6311090117925675,0
120,-1.7749100098409105,0
121,1.251136710940588,0
122,-0.6122108053288775,0
123,0.3250492442286742,0
124,-0.02878438518148373,0
125,0.0780779123689875,0
126,0.07696401785028362,0
127,-0.04004546918209756,0
128,-0.021156996549438672,0
129,0.1121146954482958,0
130,0.030792235267513825,0
131,0.12502641047167107,0
132,0.014366988280154855,0
133,0.03117350319667395,0
134,2.577043764908874,0
135,6.859449982068004,0
136,-1.7648476936038835,0
137,0.3271861333493081,0
138,0.1564277995544071,0
139,-0.04524424476471614,0
140,0.1402233796319297,0
141,0.0044648434323339495,0
142,0.043652308504617474,0
143,-0.010884322810379425,0
144,-0.028314951441437388,0
145,0.08836730691797047,0
146,-0.0016417454175185822,0
147,0.02406832078030422,0
148,0.021629786896735302,0
149,0.013593621051502644,0
150,0.25111790737626827,0
151,4.601398032950202,0
152,4.985673003668356,0
153,-2.973765599874453,0
154,1.4959436752814717,0
155,-0.6876238680224562,0
156,0.3415164841031054,0
157,-0.027966224013084483,0
158,0.042548269400449534,0
159,-0.026763534526752508,0
160,0.10840325513556079,0
161,0.04834847500178532,0
162,-0.059183267768983035,0
163,0.022999899915367272,0
164,-0.011513957706344516,0
165,0.10834260701394967,0
166,0.02365603974224633,0
167,1.019793154413777,0
168,6.536727944221205,0
169,1.570050409732348,0
170,-1.9361229914512144,0
171,1.2684571555588617,0
172,-0.6105346682334788,0
173,0.34607951694527384,0
174,-0.09519391262457558,0
175,0.006732105751332405,0
176,0.04160134503840287,0
177,-0.011772592261717786,0
178,0.07421577073335153,0
179,-0.01076312695868251,0
180,-0.002310023378562261,0
181,0.05911526258932358,0
182,-0.0482913629715858,0
183,0.09219011256169518,0
184,2.562375545993197,0
185,6.902193898782349,0
186,-1.7997409010082899,0
187,0.25745912478519745,0
188,0.1680170176755741,0
189,-0.0031148611346868624,0
190,0.12461343391972451,0
191,0.02082263960922312,0
192,0.07260597889220642,0
193,0.13804591381944936,0
194,0.08149752537313125,0
195,0.09850859776318466,0
196,0.10109124617253666,0
197,0.01799687481216646,0
198,0.09522016657785078,0
199,-0.025803156296727366,0
200,0.3256295627454414,0
201,4.6545267759206075,0
202,4.954283167391813,0
203,-2.9340310268151177,0
204,1.6068246749508956,0
205,-0.611479134060576,0
206,0.37504015285510894,0
207,-0.0641288790294443,0
208,0.09033744328670272,0
209,0.11189540129248957,0
210,0.07102869436703578,0
211,-0.010896076985306577,0
212,0.06520260999635834,0
213,0.09763971397347909,0
214,0.074072999896116,0
215,0.05567731189988814,0
216,0.06536227112778067,0
217,1.109949372210301,0
218,6.547298384775416,0
219,1.5198771382840925,0
220,-1.8429155053437045,0
221,1.2485254277064113,0
222,-0.5952422974148064,0
223,0.3257229848013916,0
224,-0.11010394728505074,0
225,0.06988905726573506,0
226,0.024992449016683568,0
227,0.03328901102610871,0
228,0.0538477235779026,0
229,0.0370202077827302,0
230,0.06546841381520338,0
231,0.01435074126741332,0
232,0.15222237740617883,0
233,0.08439840830992854,0
234,2.6195185737858524,0
235,6.952772433276827,0
236,-1.7201894723883333,0
237,0.24415164478798265,0
238,0.17020912420138634,0
239,-0.09765632508199132,0
240,0.0007843544630092153,0
241,0.028020476651425506,0
242,-0.03449315382239933,0
243,0.20473407287242162,0
244,0.08341067997529096,0
245,0.033661656841004646,0
246,0.01001048337673946,0
247,-0.16023909267344175,0
248,0.05193350773553213,0
249,-0.006095212095152929,0
250,0.25991498021962534,0
251,4.704256618793918,0
252,4.880822344286184,0
253,-3.0072619715612405,0
254,1.6040468853527126,0
255,-0.6055923416007849,0
256,0.2985606337945036,0
257,-0.01956501089099738,0
258,0.026406506773692478,0
259,-0.023254354308932544,0
260,0.0253499325000415,0
261,0.03217393375041592,0
262,0.02598636475921887,0
263,-0.00279821138282026,0
264,0.1486817501428481,0
265,0.06576306501985761,0
266,-0.02265779866452837,0
267,0.9382140412562465,0
268,6.452586683312571,0
269,1.4167482622215692,0
270,-1.8714845526558512,0
271,1.2407134845142052,0
272,-0.5652674513328922,0
273,0.3036608675848062,0
274,-0.05119526375915304,0
275,0.020438900093788674,0
276,0.08115270539187794,0
277,0.0997274325537183,0
278,0.07727224535105853,0
279,0.07871564721890932,0
280,0.059501295565609104,0
281,0.1238287559090415,0
282,0.06913667070508471,0
283,0.10550677154932075,0
284,2.624540260281063,0
285,6.942333948307365,0
286,-1.7660175184895064,0
287,0.2687921331531199,0
288,0.1998716140376145,0
289,-0.02066789195834099,0
290,-0.02650035731537742,0
291,0.014969338011123445,0
292,-0.04634391650367421,0
293,-0.08252106064395641,0
294,-0.032854646494146225,0
295,0.057775600570550624,0
296,0.02659528153566,0
297,0.052728483704635495,0
298,0.0708782120068242,0
299,-0.07842496808926194,0
300,0.30056966357185627,0
301,4.66130821480827,0
302,4.864490623241125,0
303,-2.9664017270376872,0
304,1.5264352170455733,0
305,-0.8306026484756006,0
306,0.18790117491775749,0
307,-0.1820994068791913,0
308,0.07043632176581098,0
309,0.05233583650298272,0
310,-0.0401288929022331,0
311,-0.13575032132571427,0
312,0.014862952445716844,0
313,-0.012291296467098391,0
314,0.05367020615811341,0
315,0.06755442880141467,0
316,0.01701388346389639,0
317,1.0131200112417587,0
318,6.605007473201636,0
319,1.4391010570528937,0
320,-1.8009142312467337,0
321,1.2895717737333205,0
322,-0.5492634929306744,0
323,0.36118168435580467,0
324,0.024457512974018193,0
325,0.01038607705618378,0
326,0.03640211838297753,0
327,0.03809000643438508,0
328,0.062423998069969094,0
329,-0.029638434049584134,0
330,0.08228317203751834,0
331,0.028973983027961024,0
332,0.08411613904549468,0
333,-0.052503698139373806,0
334,2.6331183271012977,0
335,6.898526047786228,0
336,-1.9085802221117432,0
337,0.36170275037745536,0
338,0.10322096751098611,0
339,-0.11065703646069404,0
340,-0.06803405348457395,0
341,0.09312567689066681,0
342,-0.03597037895023775,0
343,0.03137698129255907,0
344,0.09050305748249007,0
345,-0.03614427168161359,0
346,-0.025954933330413946,0
347,0.09836032247515804,0
348,0.04111310070253468,0
349,0.021091565071602723,0
350,0.3588634043653043,0
351,4.686486061310032,0
352,4.901082823780104,0
353,-2.923025701186213,0
354,1.541833825353605,0
355,-0.7619312625579004,0
356,0.3026729639012485,0
357,-0.11117359667099189,0
358,-0.04016313808952445,0
359,-0.021048787597918762,0
360,-0.0287181254340709,0
361,-0.020009992289160124,0
362,-0.0067978699726314205,0
363,-0.04756179915586972,0
364,-0.021773752627277383,0
365,0.025460529010323918,0
366,-0.012667533428342533,0
367,1.04192554766936,0
368,6.562888927759226,0
369,1.3865785623334645,0
370,-1.8553817766747431,0
371,1.2744059287182377,0
372,-0.5648120198641476,0
373,0.33154320068907717,0
374,-0.09049113171501721,0
375,-0.028906539798740735,0
376,0.06358784449520431,0
377,0.017028388409879962,0
378,-0.027713192058320672,0
379,0.014214484169121168,0
380,0.03588197028499833,0
381,-0.0444387598637525,0
382,0.02258198358390767,0
383,0.04287033038114119,0
384,2.5943635356942516,0
385,6.857208850034346,0
386,-1.9124002815276309,0
387,0.06786548278426616,0
388,0.10455807449672797,0
389,-0.1126140828053743,0
390,0.0007909142500633591,0
391,0.014227402353638167,0
392,-0.016842481302883308,0
393,-0.00543301944415597,0
394,0.013331551150773668,0
395,-0.0010701722127259977,0
396,0.0988398680389188,0
397,-0.010504918845600012,0
398,0.02543972244940597,0
399,-0.0034835692677711028,0
400,0.3154820332189508,0
401,4.64505576212218,0
402,4.878632431953792,0
403,-2.969961200976727,0
404,1.656760922480536,0
405,-0.6939146275480487,0
406,0.2548909003560127,0
407,-0.08795775574210016,0
408,0.04297874684124253,0
409,-0.10398092549573451,0
410,0.04580097153042123,0
411,-0.0059784543397807845,0
412,0.00042624063323334904,0
413,0.007265089261523267,0
414,0.035529543428124366,0
415,-0.11330604370751865,0
416,0.004581973327761536,0
417,1.0306800953658553,0
418,6.495084949396487,0
419,1.3109120817293842,0
420,-1.883113530643857,0
421,1.2154943375297587,0
422,-0.625071174370306,0
423,0.24117913939050178,0
424,-0.11495171814197944,0
425,-0.08425946574382924,0
426,-0.09223779645847323,0
427,-0.11225257872800276,0
428,-0.05331781751621896,0
429,-0.03569709116884189,0
430,0.04386909034189575,0
431,-0.04102162598490469,0
432,-0.006189896362349907,0
433,-0.09315294775526549,0
434,2.5289445862281155,0
435,6.825646845000808,0
436,-1.8767884898403366,0
437,0.234589253743666,0
438,0.021021288367887664,0
439,-0.06234349845368609,0
440,0.0632134996094463,0
441,0.03994605833613521,0
442,-0.0029355675817012185,0
443,-0.0660951103470721,0
444,-0.008384268658377249,0
445,-0.08557957064885735,0
446,0.0009716568306266,0
447,-0.001092901035484064,0
448,-0.05156429815423291,0
449,-0.11245942967750669,0
450,0.1415772471384114,0
451,4.628657450510214,0
452,4.8312297169115155,0
453,-3.0709125218510906,0
454,1.4715892985101435,0
455,-0.8158072767473682,0
456,0.19975349065713668,0
457,-0.1807926112931164,0
458,0.04637032868249131,0
459,-0.10198316446307346,0
460,-0.08083011989545381,0
461,-0.06121892391326279,0
462,-0.0282924401932451,0
463,-0.04638217934811702,0
464,-0.030702097707498516,0
465,-0.06702900155453911,0
466,-0.0715038936142588,0
467,1.0190180379281857,0
468,6.47280474767657,0
469,1.2019210546384609,0
470,-1.8545570446956285,0
471,1.2292236803528571,0
472,-0.6111113288439345,0
473,0.2312217948133569,0
474,-0.21881102674499464,0
475,0.05688494404368469,0
476,-0.045662809730935866,0
477,-0.11075676542594814,0
478,0.012321903406823105,0
479,0.004542035366926447,0
480,-0.007288416997001612,0
481,-0.15307408862337593,0
482,-0.0746011944338736,0
483,-0.10563718557559709,0
484,2.5553799420380456,0
485,6.739285917525657,0
486,-2.030779617768884,0
487,0.27086395407408775,0
488,0.027586800076016237,0
489,-0.1882255253754183,0
490,-0.09642323439535938,0
491,-0.04957979221299492,0
492,-0.11463155603272955,0
493,-0.07262457251015443,0
494,0.0010370895019071874,0
495,-0.07512354053614015,0
496,-0.08925379989367449,0
497,-0.05213979252598642,0
498,-0.040465519665191046,0
499,-0.050160272259184416,0
500,0.21916560917022826,0
501,4.706526465415815,0
502,4.702606180943588,0
503,-3.050148101903359,0
504,1.5861744697450986,0
505,-0.7117908265194763,0
506,0.1961999016624001,0
507,-0.13149761100460622,0
508,-0.03679311767381216,0
509,-0.06104720112336591,0
510,-0.11813117207681097,0
511,-0.04459655311905214,0
512,-0.094476956388467,0
513,-0.08799565575926377,0
514,-0.06301882621612358,0
515,-0.08180589764303242,0
516,-0.14042019173337278,0
517,0.9359388004749117,0
518,6.424106551430479,0
519,1.183433237458438,0
520,-1.8563978103196266,0
521,1.1424540741862887,0
522,-0.7006593236130485,0
523,0.22679587206669935,0
524,-0.2108399837115088,0
525,0.04647931212951937,0
526,0.022766095559285528,0
527,0.07116642691256804,0
528,0.009693154634026958,0
529,0.0063668654798059235,0
530,0.00703566964568382,0
531,0.03217914025885727,0
532,-0.05759524343002522,0
533,0.02035424515466234,0
534,2.5939605828053267,0
535,6.773981967001106,0
536,-1.993318884180534,0
537,0.19485443605639613,0
538,0.06328165793668619,0
539,-0.09999236042978417,0
540,0.04651483460122761,0
541,-0.061463147939743085,0
542,-0.015055174277513447,0
543,-0.06055569866688143,0
544,-0.09182565695866361,0
545,-0.10475736211354977,0
546,-0.015296006458329459,0
547,-0.07338355707961872,0
548,-0.07387158500117166,0
549,-0.07438411877870091,0
550,0.2974454026133259,0
551,4.779682871055454,0
552,4.840686987708453,0
553,-3.0730442554366197,0
554,1.510719099983616,0
555,-0.8339964101584307,0
556,0.27117528361971327,0
557,-0.14317776579245828,0
558,-0.07840404174153914,0
559,-0.0007776343165660921,0
560,-0.07263269477145551,0
561,0.02541442628073188,0
562,0.07095252218323059,0
563,-0.0558656394580223,0
564,-0.038602641726376494,0
565,-0.08696311161852208,0
566,0.00440619759107432,0
567,1.0114838199784624,0
568,6.549521443116501,0
569,1.2655236768963607,0
570,-1.7788216525292644,0
571,1.142285824540236,0
572,-0.5838318581758897,0
573,0.20278057086756157,0
574,-0.1179361627964314,0
575,0.11970750686146407,0
576,0.08168216690338868,0
577,0.042746772777238595,0
578,-0.03714622556606869,0
579,-0.02696880436408477,0
580,-0.016630585753177392,0
581,0.13333865118525445,0
582,0.03342746373479931,0
583,0.04883914097864871,0
584,2.5830963238878013,0
585,6.855643572216982,0
586,-1.9882401911730785,0
587,0.36567973871579834,0
588,0.018716107201586188,0
589,-0.1279670862090258,0
590,0.07514488104196235,0
591,-0.09342529146018941,0
592,-0.015299272436994592,0
593,0.030557880092867466,0
594,0.012558053251098534,0
595,0.013623022783655132,0
596,0.02317352539234573,0
597,-0.05672159370239396,0
598,0.0405673864224896,0
599,0.05277727652330101,0
600,0.3355650637692712,0
601,4.84196810990452,0
602,4.799274175269225,0
603,-2.9252050533221334,0
604,1.5769355787410722,0
605,-0.7456874337332348,0
606,0.3511080359863683,0
607,0.046380921101709466,0
608,0.028724589693137723,0
609,-0.046179110202732854,0
610,0.057377979910591195,0
611,0.0373113305000592,0
612,0.033776246432845505,0
613,0.04132383810729051,0
614,0.033282349289493376,0
615,0.1378119802897006,0
616,0.1006361677521745,0
617,1.1574740618618393,0
618,6.609329361332465,0
619,1.2880700654762318,0
620,-1.80906246837946,0
621,1.1483389321674344,0
622,-0.58910785164914,0
623,0.3255423005232867,0
624,-0.04034869918483041,0
625,0.05125351445747859,0
626,0.007569980193137971,0
627,0.11811639780569672,0
628,-0.05622899437924935,0
629,0.09625565782144233,0
630,0.0680263419623137,0
631,0.04708755891076242,0
632,-0.04622496061640925,0
633,0.11009340271488148,0
634,2.656507653070633,0
635,6.85167650828412,0
636,-2.0123564974959476,0
637,0.30833701981091705,0
638,0.16006188398008425,0
639,-0.007849231682102945,0
640,-0.027588737517781473,0
641,0.04664743509483459,0
642,0.022302153626894576,0
643,0.07380956567177785,0
644,-0.00850612957203331,0
645,0.04802311005626102,0
646,0.08660371260568245,0
647,-0.1246468650471088,0
648,0.06669581690738688,0
649,0.02746324208828486,0
650,0.3732885160307788,0
651,4.752865320493539,0
652,4.710810959590246,0
653,-3.084644912179188,0
654,1.5168513517417477,0
655,-0.7791014870434413,0
656,0.24335691179284263,0
657,-0.17280962523022045,0
658,0.07926230758897425,0
659,-0.00458134093869856,0
660,-0.09597102595476412,0
661,0.0065851005243182294,0
662,-0.0566092776737025,0
663,-0.014197752190909421,0
664,0.03936048648969372,0
665,-0.049134188246645595,0
666,0.05049405228572361,0
667,1.1319033788701787,0
668,6.631476209780712,0
669,1.226561124053537,0
670,-1.765720121196448,0
671,1.2272028596816587,0
672,-0.6341879620412698,0
673,0.2121802767734442,0
674,-0.039576443195644864,0
675,0.05633996388256149,0
676,-0.008961939930146639,0
677,0.08475200674887119,0
678,0.02996134460934824,0
679,-0.014720018653266252,0
680,0.021822058595250354,0
681,-0.02831160789992479,0
682,-0.006897217531760969,0
683,0.032218078057856814,0
684,2.657450730566431,0
685,6.836141855600815,0
686,-1.9779279755117682,0
687,0.4487830383084701,0
688,0.0038695651849749574,0
689,-0.011858171257017526,0
690,0.07390435956964217,0
691,-0.06583076410801182,0
692,0.07543583201846434,0
693,-0.011043573883607292,0
694,-0.08095868318661939,0
695,-0.012175996484943483,0
696,-0.03386046839717332,0
697,0.005225945811122694,0
698,-0.053259400090312686,0
699,0.07142139380455359,0
700,0.26594016584526503,0
701,4.7626501356252255,0
702,4.598219524301119,0
703,-2.989499929199348,0
704,1.6714013951218967,0
705,-0.7498570163977332,0
706,0.2630439847381251,0
707,-0.11899744339196183,0
708,-0.04148318448695404,0
709,-0.06549687719900141,0
710,-0.015442704625035355,0
711,-0.009341693644804583,0
712,0.10507536790806249,0
713,0.07455775601132617,0
714,0.033277075625284085,0
715,0.016568817527043964,0
716,-0.0016065174382423608,0
717,1.18007998393278,0
718,6.53326099669397,0
719,1.1803076377843928,0
720,-1.7650472873692162,0
721,1.1737816287859133,0
722,-0.5476068923884596,0
723,0.24874229744252693,0
724,-0.008419347521016009,0
725,-0.018867986331874906,0
726,0.07947891768508134,0
727,0.03380738321986479,0
728,0.08657690995721229,0
729,-0.044497435698489386,0
730,0.015377328009152397,0
731,-0.05453169930586376,0
732,0.02239650899579059,0
733,0.08736770749903444,0
734,2.66593911196582,0
735,6.90081745354719,0
736,-1.9576238952232567,0
737,0.3820542508557789,0
738,0.015861427030646066,0
739,-0.006068457092220536,0
740,-0.03302136972571193,0
741,-0.017360741570660396,0
742,-0.012011512343441354,0
743,0.023484731765664374,0
744,0.030154461722994186,0
745,0.008850063674054887,0
746,0.06198665051687337,0
747,0.003007957524131376,0
748,-0.02244738374471788,0
749,-0.037462452072555955,0
750,0.3293924751214937,0
751,4.794121985809746,0
752,4.792650562929414,0
753,-2.9242489101109648,0
754,1.5399282897859998,0
755,-0.7626499164254379,0
756,0.3449669948825742,0
757,-0.14171897991196725,0
758,0.09536499823490341,0
759,0.02644534778150373,0
760,0.045500365539364915,0
761,0.0733153710871922,0
762,-0.006948810593686933,0
763,-0.04130174501348484,0
764,0.043343365570995836,0
765,0.0542945312958059,0
766,0.027464735287157125,0
767,1.217375512196269,0
768,6.6479922400994935,0
769,1.2436958651358263,0
770,-1.7086490656711628,0
771,1.1812996086187135,0
772,-0.5520538504412904,0
773,0.233544760588833,0
774,-0.025231758201605586,0
775,-0.037744733136096685,0
776,0.08568201501241662,0
777,-0.07545658957703016,0
778,0.11828372174008044,0
779,0.0383258137871056,0
780,-0.003830057703826859,0
781,0.037306856909206515,0
782,0.03696916022297112,0
783,0.09391683070272124,0
784,2.693539018701825,0
785,6.838440821720238,0
786,-1.8800742357931597,0
787,0.46927905852132884,0
788,0.13331068676248045,0
789,-0.03028378664386268,0
790,0.08148010567842787,0
791,0.10318070285551972,0
792,-0.004046218884318192,0
793,0.10832670614166559,0
794,0.10086831896651155,0
795,-0.01076001261765322,0
796,0.13181803195013153,0
797,0.025404003816132538,0
798,0.05268909052356346,0
799,0.031184295558872917,0
800,0.3344633504875607,0
801,4.935543814877542,0
802,4.681670840838988,0
803,-2.949186347252784,0
804,1.600450592387995,0
805,-0.6573683700243158,0
806,0.32438226905598144,0
807,-0.04398234560300229,0
808,0.15237995423999437,0
809,0.04407196236912522,0
810,0.19619054124276702,0
811,0.10391857510320739,0
812,0.03435654496334703,0
813,0.08522365629505332,0
814,0.15475381976536343,0
815,0.07615439264935121,0
816,0.024044421840534985,0
817,1.1409426396563886,0
818,6.609608121174395,0
819,1.206342486712577,0
820,-1.7260074911226602,0
821,1.17493327487346,0
822,-0.5752287645336395,0
823,0.26735429424890506,0
824,0.05576679613798066,0
825,0.0350299552262246,0
826,-0.055164599815778925,0
827,0.02192119832634218,0
828,0.1034216086565498,0
829,0.11516328811376518,0
830,-0.015353459663587407,0
831,0.0882835778973148,0
832,0.06310080457917513,0
833,0.14209151978991075,0
834,2.7646372303204774,0
835,6.865242918983432,0
836,-1.9885439949273265,0
837,0.49383952273521436,0
838,0.016005938862968624,0
839,-0.05310103994217119,0
840,0.02281594033652774,0
841,0.06354469973640225,0
842,0.08597558767975216,0
843,0.023171925813660475,0
844,-0.0151648441820708,0
845,0.007839917736836705,0
846,0.009029189256519632,0
847,0.10866120988587269,0
848,0.032961549389002816,0
849,-0.01092592062425686,0
850,0.3935837116823048,0
851,4.967727220820501,0
852,4.807808750487503,0
853,-2.8932267779822785,0
854,1.5845197800862483,0
855,-0.7456251985688032,0
856,0.42905836494423766,0
857,0.0020408019126306187,0
858,0.0870968125131404,0
859,0.004542718912192503,0
860,0.06814167606430424,0
861,0.055388142531374196,0
862,0.03772310315734919,0
863,0.033883588498165085,0
864,0.02894843716927283,0
865,0.023168796440138015,0
866,0.07532378203151158,0
867,1.1231284408331201,0
868,6.596152034367389,0
869,1.1728594842142448,0
870,-1.710527224041169,0
871,1.2729908439104578,0
872,-0.5668444267401098,0
873,0.34251203289520304,0
874,-0.025201446812739926,0
875,0.07710659562105657,0
876,0.03699434160123484,0
877,0.007510758951005104,0
878,0.1000520897502375,0
879,-0.08117407118028402,0
880,0.00448574101752453,0
881,0.010612282315117455,0
882,0.0434390895191223,0
883,0.004854204550798991,0
884,2.700102794676471,0
885,6.817993183419732,0
886,-2.060594182895921,0
887,0.3865310497218174,0
888,0.019579444422341198,0
889,-0.04727814254578071,0
890,-0.027559850698409303,0
891,0.00384578381351087,0
892,0.03288280013563072,0
893,0.07377693983296942,0
894,-0.07292662238791699,0
895,-0.06711911933444199,0
896,0.13994472195030877,0
897,0.02395750180195959,0
898,-0.08344846989417108,0
899,-0.01167617915412423,0
900,0.34357236394626617,0
901,4.81459581401626,0
902,4.634867449846067,0
903,-2.981772815434839,0
904,1.56412337964039,0
905,-0.7851016559360755,0
906,0.3231005722289644,0
907,-0.06288624338733834,0
908,0.11014601700809176,0
909,-0.08120838723964395,0
910,-0.057688825588104495,0
911,-0.027569134547559944,0
912,0.045811042403391365,0
913,-0.048974850909056664,0
914,-0.07818640533853091,0
915,0.03203677576950807,0
916,0.02862904768227539,0
917,1.124312553492065,0
918,6.562518845924673,0
919,1.142378513137334,0
920,-1.6664021162062803,0
921,1.0862700199702993,0
922,-0.6771054449728153,0
923,0.23630105855263106,0
924,-0.11960293325775719,0
925,0.04797971802554918,0
926,0.05677148516604002,0
927,0.0378484221148394,0
928,0.01734871984004374,0
929,0.022097564435549676,0
930,0.0567835268676612,0
931,0.03400386804277171,0
932,0.12603727901016631,0
933,0.0012623772609457046,0
934,2.7268941497322405,0
935,6.803060330890288,0
936,-2.0853296219915785,0
937,0.3679974053958807,0
938,-0.02604164715743701,0
939,-0.12644455864660517,0
940,-0.1048579884759982,0
941,-0.09841458055449048,0
942,-0.18144435577385953,0
943,-0.02027938060585164,0
944,-0.1654246254806674,0
945,-0.032590919507610304,0
946,-0.1141487422304828,0
947,-0.07965694481714916,0
948,-0.019859274564383987,0
949,-0.015839530062982093,0
950,0.31068495584707034,0
951,4.877182628716678,0
952,4.695614433332259,0
953,-2.9983693324961505,0
954,1.6944754401886617,0
955,-0.7719879109114924,0
956,0.39412132488500806,0
957,-0.22316820077632357,0
958,0.022674921227371456,0
959,-0.0451461605349487,0
960,0.06817158281568343,0
961,0.05034945230023095,0
962,0.04891809339551312,0
963,0.026391736415090856,0
964,0.058656024596613045,0
965,-0.008215446839903827,0
966,0.003074037249967701,0
967,1.1432093946480977,0
968,6.630901465293838,0
969,1.110194694405,0
970,-1.735538261718088,0
971,1.135601719554838,0
972,-0.5873687331326708,0
973,0.2491636515386475,0
974,-0.03631430455562966,0
975,0.0702612219845247,0
976,0.02070539140243174,0
977,0.009663100959315824,0
978,-0.020827041871762736,0
979,-0.051230329066399245,0
980,-0.048449585524615146,0
981,-0.00976864659715495,0
982,-0.025372152488729854,0
983,-0.008788981836750441,0
984,2.7591035006060904,0
985,6.840712329195356,0
986,-2.082578347261442,0
987,0.4864206099013812,0
988,0.038246769399581666,0
989,0.05543576500383569,0
990,0.16080339051403536,0
991,0.1644020829377359,0
992,0.01520318617184345,0
993,0.039440737106238175,0
994,0.09703119170168337,0
995,0.11736196197360177,0
996,0.03111522028934425,0
997,0.03338414195980634,0
998,0.09888271334594954,0
999,0.02627474744517328,0
1000,0.39542757048518773,0
1001,4.888495704002754,0
1002,4.602446827900677,0
1003,-2.9708262991506476,0
1004,1.5425914037827126,0
1005,-0.7737048007692133,0
1006,0.3394774243829973,0
1007,-0.03836451252118602,0
1008,0.026168680415188203,0
1009,0.027750565814147383,0
1010,0.08640921335589699,0
1011,0.022072589345883083,0
1012,0.14484570214372836,0
1013,0.008139745282294443,0
1014,0.007268544580834115,0
1015,0.08467374390415089,0
1016,0.014784483196978608,0
1017,1.1702948607095944,0
1018,6.728322366472379,0
1019,1.068573560900492,0
1020,-1.6940398467979945,0
1021,1.164999655496963,0
1022,-0.5959348584310112,0
1023,0.2546749399358256,0
1024,0.006632701363886759,0
1025,0.05622852916422144,0
1026,0.1494112527886132,0
1027,0.03707323892958541,0
1028,0.02939010330836277,0
1029,0.024792351589369932,0
1030,-0.07840873571818871,0
1031,-0.022979406717092303,0
1032,-0.054372493948997416,0
1033,0.03818220659115476,0
1034,2.814863194567681,0
1035,6.757677952174241,0
1036,-2.092387654119692,0
1037,0.3670489597774922,0
1038,0.04727739614515674,0
1039,-0.051880874489899864,0
1040,-0.0113877643787307,0
1041,-0.06625909530825082,0
1042,-0.022092408763205517,0
1043,0.03849508200395177,0
1044,-3.298994667014308e-05,0
1045,0.004440164425517318,0
1046,-0.05256887292363772,0
1047,-0.04379111481916649,0
1048,0.0065013152410102575,0
1049,0.06312694348100355,0
1050,0.3358460400890086,0
1051,4.871747196194234,0
1052,4.625393256395861,0
1053,-2.9989303506301606,0
1054,1.5947496032095652,0
1055,-0.7966801804796267,0
1056,0.308299108349575,0
1057,-0.07804091008418512,0
1058,0.07441919041712189,0
1059,0.050521583065465,0
1060,0.08631641489925579,0
1061,0.11568314888525558,0
1062,0.03964881638400786,0
1063,0.023865809559914002,0
1064,0.06384193926789773,0
1065,0.05465840015673139,0
1066,0.03957832913867956,0
1067,1.2891075327964046,0
1068,6.6260609029673345,0
1069,1.0662975050267764,0
1070,-1.699985639540759,0
1071,1.1379384447161498,0
1072,-0.5600215480154739,0
1073,0.3250522221664378,0
1074,-0.06471461270309065,0
1075,-0.04835152252452515,0
1076,0.03387774153129228,0
1077,0.10328775941294743,0
1078,0.016146781100525587,0
1079,-0.0005841576602687651,0
1080,0.01749897704721646,0
1081,-0.05900399812908291,0
1082,0.04535725392128135,0
1083,0.049605856988107884,0
1084,2.8664785817304494,0
1085,6.784335669101159,0
1086,-2.0695583158404016,0
1087,0.3824093876300064,0
1088,0.07979588974735803,0
1089,0.044137112946413815,0
1090,0.03093989125342062,0
1091,-0.007468423302990074,0
1092,-0.06190663645268184,0
1093,0.051630537727433236,0
1094,0.01121795037896646,0
1095,-0.10815619670820198,0
1096,0.03166957611341083,0
1097,-0.0035601529674751248,0
1098,-0.09769271588898469,0
1099,-0.034681485553805715,0
1100,0.279519992947902,0
1101,4.89469846829742,0
1102,4.6350132262841806,0
1103,-3.0218968459808155,0
1104,1.5547075724103396,0
1105,-0.7652548634540779,0
1106,0.343059485133143,0
1107,-0.12132821602279092,0
1108,-0.07897542423264464,0
1109,-0.05669143484369821,0
1110,-0.012874747205442773,0
1111,-0.0741466257712792,0
1112,-0.04267066998165059,0
1113,-0.010130761996263811,0
1114,0.015274977409799363,0
1115,-0.010609291454579497,0
1116,-0.01981679725947564,0
1117,1.039529812606777,0
1118,6.544388349898081,0
1119,1.0360064115940355,0
1120,-1.6829995678302867,0
1121,1.0552729298146244,0
1122,-0.5888020027267966,0
1123,0.1865492905542219,0
1124,-0.14637860723473703,0
1125,-0.015405744728285943,0
1126,-0.0874989471858201,0
1127,-0.00991504297300132,0
1128,-0.1322768238353918,0
1129,-0.08293070602610862,0
1130,-0.0001131653807585134,0
1131,-0.025687480356734883,0
1132,-0.028659703159626043,0
1133,0.03800389884573284,0
1134,2.717235977287456,0
1135,6.743902746750044,0
1136,-2.199958830016421,0
1137,0.46522128571318616,0
1138,-0.03381629244911289,0
1139,-0.033480114702361966,0
1140,-0.06968791403830184,0
1141,-0.03206865510759292,0
1142,-0.03838368403234946,0
1143,-0.01814999650016131,0
1144,-0.101555153897391,0
1145,-0.05913030018398558,0
1146,-0.07252429364261104,0
1147,-0.027553470267950058,0
1148,-0.09012538462509063,0
1149,-0.027969512451302643,0
1150,0.34697919923169607,0
1151,4.7946472328611,0
1152,4.524797600001447,0
1153,-3.0055260247801643,0
1154,1.475738652904179,0
1155,-0.8043175502597294,0
1156,0.3062172260247748,0
1157,-0.0990196013062324,0
1158,-0.02945642950733539,0
1159,-0.0237286945197469,0
1160,0.03586760293281202,0
1161,0.07611520065780965,0
1162,0.019395163270891885,0
1163,-0.11482262265113091,0
1164,-0.06071384647175085,0
1165,-0.0643880255578163,0
1166,0.050765626352285737,0
1167,1.113540897893942,0
1168,6.662529512851057,0
1169,0.9125448920889947,0
1170,-1.6757968132403098,0
1171,1.0380361207261655,0
1172,-0.5727172745724143,0
1173,0.1944391476493998,0
1174,-0.1169712576068855,0
1175,-0.11596180318234098,0
1176,0.013856216843859959,0
1177,0.07360742959250122,0
1178,0.009195325651381384,0
1179,0.050586544675258756,0
1180,0.06449681147347602,0
1181,0.034668982729312445,0
1182,0.01885438221692621,0
1183,0.058085704528448065,0
1184,2.743577936873278,0
1185,6.663034753127337,0
1186,-2.208019245184502,0
1187,0.4481994472218489,0
1188,0.03397905428125381,0
1189,-0.02886566016645616,0
1190,0.026162224962647036,0
1191,0.07633136974012633,0
1192,0.07667659646144773,0
1193,0.03777536455447192,0
1194,0.047057399568846775,0
1195,-0.06503881694420574,0
1196,-0.017134342979245317,0
1197,0.028806876475391163,0
1198,0.10302583996732464,0
1199,0.06672687321231385,0
1200,0.4034453124275269,0
1201,4.9539595854809635,0
1202,4.66634883224443,0
1203,-2.9561209061062494,0
1204,1.5348617242888942,0
1205,-0.7652184421682736,0
1206,0.34312525113048215,0
1207,-0.024298478832129433,0
1208,0.042034943198961984,0
1209,0.006809113885609331,0
1210,-0.08387354236516627,0
1211,-0.11901458618692613,0
1212,-0.10517915460187292,0
1213,-0.010410805418640125,0
1214,-0.04973879292326823,0
1215,-0.015259306146450158,0
1216,-0.07978180325723136,0
1217,1.1362564379091025,0
1218,6.6248468669282214,0
1219,0.8722670144128744,0
1220,-1.7224481687954833,0
1221,1.078844933881949,0
1222,-0.5959622347640925,0
1223,0.21068859667244286,0
1224,-0.1253149244241088,0
1225,-0.056982026367219545,0
1226,-0.015968690847565782,0
1227,0.016634090194215276,0
1228,-0.10575805089974027,0
1229,-0.049838313168332635,0
1230,-0.021345280228326442,0
1231,0.014194710893515749,0
1232,-0.07145256945366522,0
1233,-0.03703162163582645,0
1234,2.813447973768503,0
1235,6.728473989550639,0
1236,-2.276594271753448,0
1237,0.44488020004937545,0
1238,0.036534484008998024,0
1239,-0.08518843121613938,0
1240,-0.05079125901116638,0
1241,-0.07457454260729869,0
1242,-0.0882432758073155,0
1243,-0.02763088568197736,0
1244,0.017163123828387465,0
1245,-0.07216889674059143,0
1246,-0.14666319209310252,0
1247,-0.11621754604587049,0
1248,-0.09956520884214212,0
1249,0.013173245017859346,0
1250,0.3283018922991612,0
1251,4.788503558721688,0
1252,4.399795414372855,0
1253,-2.9706565165400343,0
1254,1.5201917878331423,0
1255,-0.8018187674310112,0
1256,0.23041750988069304,0
1257,-0.11873973659461479,0
1258,-0.031549172228698276,0
1259,0.03273121877414817,0
1260,0.001783315015918069,0
1261,-0.02154819654034779,0
1262,-0.029333739456407975,0
1263,0.05535167535783178,0
1264,0.017851817094231205,0
1265,-0.014819974349337286,0
1266,-0.09729951796414259,0
1267,1.1874693188741228,0
1268,6.605269113843801,0
1269,0.947273371201785,0
1270,-1.6109843266516104,0
1271,0.9888895672733575,0
1272,-0.6141510139363151,0
1273,0.21939369984141163,0
1274,-0.187555804965513,0
1275,-0.0659130204043456,0
1276,-0.04897787713439095,0
1277,0.019529314976679528,0
1278,-0.03913930046915379,0
1279,-0.062056154949035255,0
1280,-0.023814610657988115,0
1281,-0.0012529797030493045,0
1282,0.06316284419607145,0
1283,0.06172386009513843,0
1284,2.8214373124337913,0
1285,6.7840055786533595,0
1286,-2.1742915496657664,0
1287,0.49938719635468426,0
1288,-0.028430980800545513,0
1289,-0.03117786189576499,0
1290,-0.022600763203892697,0
1291,0.01775206990153869,0
1292,-0.05820239005361099,0
1293,-0.04057078303867041,0
1294,0.07179849466354954,0
1295,-0.0025551396614260902,0
1296,-0.000973509825887251,0
1297,-0.0013426611626990788,0
1298,0.032859812477672286,0
1299,0.048893000757507604,0
1300,0.24975164396724941,0
1301,4.989295152842706,0
1302,4.458343088347611,0
1303,-2.94072289930927,0
1304,1.5423025921659137,0
1305,-0.7726279858200032,0
1306,0.3023555742870418,0
1307,-0.07389000116845074,0
1308,0.05482571587295304,0
1309,-0.04405916676696458,0
1310,0.0012103311669379932,0
1311,-0.06736671295064045,0
1312,-0.04505284441874208,0
1313,0.0452199843515913,0
1314,0.03595120724708582,0
1315,-0.04280579772229334,0
1316,-0.04600180090419642,0
1317,1.1950542667696813,0
1318,6.562510200400368,0
1319,0.8195147034893386,0
1320,-1.5761246325488463,0
1321,1.1136453185190827,0
1322,-0.5777668006534189,0
1323,0.21208084481978268,0
1324,-0.1092251950329674,0
1325,-0.006291116391524099,0
1326,0.013644841873165923,0
1327,-0.049944230387570045,0
1328,-0.01788531078640802,0
1329,-0.04871702469135239,0
1330,0.04760975619779907,0
1331,-0.03307666211630106,0
1332,-0.0730650974959432,0
1333,0.07363606665147086,0
1334,2.8836514615964,0
1335,6.657590768342741,0
1336,-2.1871174914339315,0
1337,0.5542437956377545,0
1338,-0.08887009778951727,0
1339,0.009332866633301254,0
1340,0.1496921502963255,0
1341,0.13054768025295788,0
1342,0.1158751413399057,0
1343,0.16062630298660524,0
1344,0.13763103399942353,0
1345,0.12673691746700472,0
1346,0.03972017323836608,0
1347,0.037580766650388425,0
1348,-0.059510607882670256,0
1349,0.019379539206741028,0
1350,0.34506179992010244,0
1351,4.934744098049099,0
1352,4.4992768196136534,0
1353,-2.9276535444711724,0
1354,1.6210584696846817,0
1355,-0.7690852397411253,0
1356,0.28711117236608547,0
1357,-0.14574715802660218,0
1358,0.09835292591779589,0
1359,0.027582741101449298,0
1360,0.07132108558687995,0
1361,0.09026645832494071,0
1362,0.06418712583085245,0
1363,0.028383938027664958,0
1364,0.05812121078214945,0
1365,0.0717782032848777,0
1366,0.08544797072327587,0
1367,1.2481576451904006,0
1368,6.6505148532749505,0
1369,0.9580048062910702,0
1370,-1.5549178190886221,0
1371,1.039180392294924,0
1372,-0.5517492194786647,0
1373,0.2411836487058437,0
1374,-0.11970918862186519,0
1375,0.02657534245073341,0
1376,-0.013265695853731474,0
1377,0.07377679021279454,0
1378,-0.03588653280163698,0
1379,0.06602642046925178,0
1380,0.07573668919285834,0
1381,0.0725491109926127,0
1382,0.0505127081765442,0
1383,0.12749664846646092,0
1384,2.8610098501109364,0
1385,6.7890735964856725,0
1386,-2.0717779925675126,0
1387,0.5504124704682534,0
1388,0.024509763344013447,0
1389,0.028128225933607497,0
1390,-0.029509014267812057,0
1391,-0.09360078292818377,0
1392,-0.014022950147782473,0
1393,0.02037833674991921,0
1394,0.002216910051514802,0
1395,0.07885149477651072,0
1396,-0.03119653089974543,0
1397,-0.0068100966283381244,0
1398,-0.02404889299288722,0
1399,-0.00039371800895877647,0
1400,0.3319492469544666,0
1401,4.955296844225843,0
1402,4.458527998718425,0
1403,-2.929156738930116,0
1404,1.5566291435812794,0
1405,-0.7981753567533003,0
1406,0.3495494720935856,0
1407,-0.10318255848947686,0
1408,0.08976919122435982,0
1409,0.022728790661673035,0
1410,0.026813322460036777,0
1411,0.02134711385609252,0
1412,0.022532373414504574,0
1413,-0.009913937691688662,0
1414,0.030554900918651495,0
1415,-0.052258419734950046,0
1416,0.06942536530127978,0
1417,1.212309795483156,0
1418,6.643135380979397,0
1419,0.9112959636864614,0
1420,-1.5201958855294913,0
1421,1.102001664119386,0
1422,-0.6351835134983841,0
1423,0.24997065832678625,0
1424,-0.11332466656157467,0
1425,0.0569228047020981,0
1426,0.01435295804218678,0
1427,0.10045529983044113,0
1428,0.04815331178104491,0
1429,0.16472469754836264,0
1430,-0.011670061324200807,0
1431,0.09935387294541127,0
1432,0.04058321474028197,0
1433,0.10050722078884725,0
1434,2.807763784247184,0
1435,6.76635855026659,0
1436,-2.2188566907279497,0
1437,0.6054381744505175,0
1438,0.08591240500231526,0
1439,0.09667311102733583,0
1440,0.026680660907120055,0
1441,0.10836957312241344,0
1442,-0.07377747907011055,0
1443,-0.0018231720873452886,0
1444,-0.04520503819894898,0
1445,0.14047158273659854,0
1446,0.006690180062104837,0
1447,0.06084826000666385,0
1448,0.04109974682737814,0
1449,-0.03079066874658304,0
1450,0.41913856055715715,0
1451,5.038255903762253,0
1452,4.41694347981917,0
1453,-2.9453379344082826,0
1454,1.5690560075766113,0
1455,-0.694360747827605,0
1456,0.28916779698623596,0
1457,-0.04182155112589021,0
1458,0.023523713889981014,0
1459,-0.01571385289671834,0
1460,0.015852865452368445,0
1461,-0.012221630723289339,0
1462,-0.07177072340909534,0
1463,-0.0428531039044813,0
1464,-0.007325638825683091,0
1465,0.00395983856884094,0
1466,-0.0540414907301055,0
1467,1.15168971362981,0
1468,6.654529084970329,0
1469,0.8325571431062448,0
1470,-1.559548526496484,0
1471,1.097490044694031,0
1472,-0.5982487091637202,0
1473,0.28562484789031023,0
1474,-0.09108344754325938,0
1475,0.0365629504179963,0
1476,0.002895788065454842,0
1477,-0.0776644082286322,0
1478,0.057433635114276245,0
1479,0.010038172658505267,0
1480,0.014607220547339195,0
1481,-0.003506796282748839,0
1482,-0.011351085059896933,0
1483,0.010077290732429807,0
1484,2.8873394286587053,0
1485,6.7361170298025455,0
1486,-2.268242399590709,0
1487,0.573436635966627,0
1488,-0.12479602043234314,0
1489,-0.07769480850093843,0
1490,0.005503626760462538,0
1491,-0.07096815356093665,0
1492,0.0013979925034964188,0
1493,-0.01159360377130643,0
1494,-0.0830224849891194,0
1495,0.09065559095657033,0
1496,-0.0050930468899126405,0
1497,-0.024509943289172085,0
1498,0.026253756478046893,0
1499,-0.0166441546538562,0
1500,0.3442809595817659,0
1501,4.969538925301646,0
1502,4.44545089623338,0
1503,-2.9392664860204487,0
1504,1.5251668859378795,0
1505,-0.8644747542726064,0
1506,0.3395319713506054,0
1507,-0.16017285625980643,0
1508,-0.01124361922504201,0
1509,-0.02622606420481178,0
1510,0.049379764649709744,0
1511,0.007133646783964425,0
1512,0.0013164622172246163,0
1513,-0.0173145817303061,0
1514,0.014678585997259639,0
1515,0.007926805450808854,0
1516,-0.0126745363505542,0
1517,1.2753080774764556,0
1518,6.667385705359124,0
1519,0.8424586411316137,0
1520,-1.624096737564392,0
1521,1.0663429901078445,0
1522,-0.5442732289192764,0
1523,0.2015554178088597,0
1524,-0.12652211628261287,0
1525,-0.0018893999728083824,0
1526,-0.051946892628699046,0
1527,-0.010448783175962945,0
1528,-0.11868064755814411,0
1529,0.049168496694877765,0
1530,0.014405783592781624,0
1531,0.016330739481220578,0
1532,-0.07224689226749156,0
1533,-0.010350635606257645,0
1534,2.790505215795792,0
1535,6.702506836800416,0
1536,-2.2031225806394144,0
1537,0.6177875792941955,0
1538,-0.053672208124110735,0
1539,0.013218798329793273,0
1540,-0.036371595050862245,0
1541,0.00794106853742569,0
1542,0.04022493676986105,0
1543,-0.059165035953826745,0
1544,0.0334077749947785,0
1545,0.009131273967051717,0
1546,0.04460950828493908,0
1547,-0.02006836012064518,0
1548,-0.024898284390896586,0
1549,-0.018325358095714887,0
1550,0.3909205231740799,0
1551,5.036128836630302,0
1552,4.364382288293645,0
1553,-2.8723524155208873,0
1554,1.5387060364505865,0
1555,-0.7452643659782486,0
1556,0.299445795635249,0
1557,-0.10886868677934917,0
1558,0.0309176029578239,0
1559,0.010512918687255702,0
1560,-0.11249236321095962,0
1561,-0.06086240760173728,0
1562,0.05930270786845592,0
1563,0.04390241158037718,0
1564,-0.004856570417364202,0
1565,0.041578124298111106,0
1566,-0.03076497583212868,0
1567,1.2132233690373415,0
1568,6.714754140146937,0
1569,0.7789596145876688,0
1570,-1.572632488881563,0
1571,1.0242002082779131,0
1572,-0.5762832801683432,0
1573,0.13950019789395385,0
1574,-0.14102013578440092,0
1575,0.07812461673158994,0
1576,-0.01080073519452914,0
1577,-0.03404515319368164,0
1578,-0.08202242044469209,0
1579,-0.0258369829067827,0
1580,0.02835772018266218,0
1581,0.008086317831811966,0
1582,0.003110772271311596,0
1583,0.015037446035728652,0
1584,2.9156789384760105,0
1585,6.696648996573073,0
1586,-2.179438700174091,0
1587,0.624749974693888,0
1588,-0.034735533463833346,0
1589,-0.05524301498468848,0
1590,0.021210007831448992,0
1591,0.022433628674385968,0
1592,0.05866339474878503,0
1593,0.031661820063464255,0
1594,0.008775962462452755,0
1595,0.11987544029776798,0
1596,0.04441573264021638,0
1597,0.07474382785042584,0
1598,0.008887147877759818,0
1599,0.06998303089409541,0
1600,0.39609390132573385,0
1601,5.022867149455251,0
1602,4.406807643746299,0
1603,-2.950891670552604,0
1604,1.6838701022744937,0
1605,-0.6955990041892977,0
1606,0.2632284726456828,0
1607,-0.17820422069273564,0
1608,0.05775638670297188,0
1609,-0.06762204398275977,0
1610,-0.010597186480937736,0
1611,-0.07423472396701951,0
1612,0.026590632364047052,0
1613,0.015756391620944936,0
1614,-0.03679325636567583,0
1615,-0.08302777962157461,0
1616,-0.022274480890460965,0
1617,1.3086975939343395,0
1618,6.716591501956141,0
1619,0.7328763494612736,0
1620,-1.5343039479970824,0
1621,1.0815623512534533,0
1622,-0.5089222530230455,0
1623,0.21613700060606036,0
1624,-0.0705986303267183,0
1625,0.10604147253758296,0
1626,0.03964278230701479,0
1627,0.008138470654192258,0
1628,0.09357721040322373,0
1629,0.07153553932702274,0
1630,0.061501295185935646,0
1631,0.09140203635050372,0
1632,0.0375154641878953,0
1633,-0.02304360877237402,0
1634,2.9106867983974505,0
1635,6.7046404430441155,0
1636,-2.1530963475681966,0
1637,0.6119941870392445,0
1638,-0.0785026884097432,0
1639,0.013746669354955051,0
1640,0.04382790735307181,0
1641,0.029309636928696085,0
1642,0.028494090053260604,0
1643,-0.02709465911093208,0
1644,0.03278273741923593,0
1645,-0.010702550615542941,0
1646,0.015145843629573861,0
1647,0.011581484475651847,0
1648,0.12157775046148347,0
1649,0.09751395565219254,0
1650,0.4211515432265244,0
1651,5.0888944959871925,0
1652,4.34624759789156,0
1653,-2.884894082408237,0
1654,1.6684584301103025,0
1655,-0.7777254228282652,0
1656,0.31002599688584287,0
1657,-0.14309991873310202,0
1658,0.07651761029163165,0
1659,-0.04871792957111923,0
1660,-0.10751058855347517,0
1661,-0.015050402623261613,0
1662,-0.12839816629691883,0
1663,-0.0469500881516966,0
1664,-0.06903235344099844,0
1665,-0.07699223102835928,0
1666,-0.12527102032145582,0
1667,1.104607356701414,0
1668,6.664727503104362,0
1669,0.6919463796540665,0
1670,-1.6205612695014782,0
1671,0.9352744724257879,0
1672,-0.5464082261749292,0
1673,0.23667952082629298,0
1674,-0.089364899028097,0
1675,-0.02102371730751133,0
1676,-0.051318388600650786,0
1677,-0.06698131905847676,0
1678,0.006335103118268279,0
1679,-0.02557570505839931,0
1680,-0.033353690887595405,0
1681,-0.049237081982530316,0
1682,-0.07373002034526373,0
1683,0.0015084624696128472,0
1684,2.7699460561039477,0
1685,6.660838505735345,0
1686,-2.4135440541664996,0
1687,0.5298206227606891,0
1688,-0.16640003113052917,0
1689,-0.12716990375093168,0
1690,-0.07097741195630976,0
1691,-0.03211518634959755,0
1692,0.0054197441475278135,0
1693,-0.1296377473929668,0
1694,-0.11118681149292148,0
1695,-0.06398188364840927,0
1696,-0.05757751876623543,0
1697,-0.08216985638756005,0
1698,-0.11318632790874239,0
1699,-0.06411981685300341,0
1700,0.3655105352262484,0
1701,4.964434839014388,0
1702,4.282415292483444,0
1703,-2.987002545788474,0
1704,1.5518496353463131,0
1705,-0.8477382812229292,0
1706,0.248208992065112,0
1707,-0.2189704098751431,0
1708,-0.0987359392539246,0
1709,0.019945160485841745,0
1710,-0.09404169822671635,0
1711,-0.025701253232455805,0
1712,-0.01901114987572925,0
1713,-0.04461848476689934,0
1714,-0.10258590704268994,0
1715,-0.23160386586850773,0
1716,-0.09535369471003802,0
1717,1.1323754919088203,0
1718,6.61682668480398,0
1719,0.6631252243879748,0
1720,-1.5295196969540665,0
1721,0.9095751255286666,0
1722,-0.7455314243235536,0
1723,0.255278198345096,0
1724,-0.15709748482123173,0
1725,-0.1425037251571924,0
1726,-0.15510819532796555,0
1727,-0.017887818398863817,0
1728,-0.0952425157135465,0
1729,-0.06294247087699485,0
1730,-0.14957084490804562,0
1731,-0.188622183924884,0
1732,-0.1204447754951571,0
1733,0.00073131407415215,0
1734,2.903753138329419,0
1735,6.57830093119662,0
1736,-2.3881303675674617,0
1737,0.4914741013979941,0
1738,-0.17799593187782134,0
1739,-0.08561312246066669,0
1740,-0.05491715902008379,0
1741,0.014657923056581583,0
1742,0.11727704149162169,0
1743,-0.06828273588488604,0
1744,0.04969892610087545,0
1745,0.0006063934351910535,0
1746,0.06013124055870247,0
1747,-0.025036594774014063,0
1748,-0.012637260203317804,0
1749,-0.08815197477099965,0
1750,0.2460970415870949,0
1751,5.083619548727586,0
1752,4.311743876582662,0
1753,-2.9593764449272077,0
1754,1.4882509141293907,0
1755,-0.8286325601688432,0
1756,0.331963631227457,0
1757,-0.13534236956302712,0
1758,0.012230214342657537,0
1759,0.012668039364635744,0
1760,-0.04305635489784207,0
1761,-0.02819533028831405,0
1762,-0.09072358628176497,0
1763,-0.031013557678070763,0
1764,-0.028373863568329098,0
1765,-0.16483137084000554,0
1766,-0.11519128548824546,0
1767,1.1249813292576918,0
1768,6.565188501524266,0
1769,0.5905626093533586,0
1770,-1.6091747662346108,0
1771,0.8306303869448574,0
1772,-0.5705258907923045,0
1773,0.1368481222191302,0
1774,-0.1414145901228436,0
1775,-0.12039736024134319,0
1776,-0.11829858538159063,0
1777,-0.06825770376581419,0
1778,-0.007185906642643861,0
1779,-0.10025281175338357,0
1780,-0.01009429277110934,0
1781,-0.12757000552304146,0
1782,-0.09863318699318427,0
1783,0.0025906342008624956,0
1784,2.8534709573700234,0
1785,6.621001066282998,0
1786,-2.38418370540533,0
1787,0.5441578090638112,0
1788,-0.2593461290372064,0
1789,-0.025046961163261987,0
1790,-0.033681710554368395,0
1791,-0.07149220960702525,0
1792,-0.04883211435049303,0
1793,-0.11492572270499049,0
1794,-0.05462183458664766,0
1795,-0.027997625718163964,0
1796,-0.0679646395427667,0
1797,-0.02427542120521739,0
1798,-0.0886268703790922,0
1799,-0.15292845496415497,0
1800,0.2947503997206011,0
1801,5.031684460175804,0
1802,4.2223200452636815,0
1803,-2.960246925734695,0
1804,1.5173671107328184,0
1805,-0.7692746434666313,0
1806,0.32900414607258266,0
1807,-0.1343298567389608,0
1808,-0.05105786935148794,0
1809,-0.05379144868390552,0
1810,-0.025917932998535065,0
1811,-0.07882818963834556,0
1812,-0.07783185456023395,0
1813,-0.09166550501274504,0
1814,-0.06086080939865254,0
1815,-0.07717640465006462,0
1816,-0.21308118963756534,0
1817,1.183686544136067,0
1818,6.652168270028944,0
1819,0.5902981203499625,0
1820,-1.5157137673383525,0
1821,0.9259695082667442,0
1822,-0.6775634621152983,0
1823,0.06755633194009261,0
1824,-0.11555388406576114,0
1825,-0.08263533612246879,0
1826,0.005280413664595557,0
1827,-0.014846242828164942,0
1828,-0.09784461168019332,0
1829,-0.05944738234279187,0
1830,-0.12409349056092145,0
1831,0.004778456543510383,0
1832,-0.0317471730894268,0
1833,0.11080570749581704,0
1834,2.9690256360742873,0
1835,6.606869886800625,0
1836,-2.4758164901453346,0
1837,0.6077313190343593,0
1838,-0.2477506410192024,0
1839,0.03769776516805799,0
1840,0.02693817048020926,0
1841,-0.08336845595037123,0
1842,-0.01798463377270221,0
1843,-0.042363794937667724,0
1844,-0.018978272446333398,0
1845,-0.021442256995727292,0
1846,0.004257489029897685,0
1847,0.02458019720964094,0
1848,0.08713372198169121,0
1849,0.10492302758877088,0
1850,0.3685296789808107,0
1851,5.2042779352664885,0
1852,4.318264386612416,0
1853,-2.8586404404355696,0
1854,1.635375483602909,0
1855,-0.77688120649944,0
1856,0.2786504641973593,0
1857,-0.15557797622789693,0
1858,-0.04581692024026108,0
1859,-0.13151233193563677,0
1860,-0.010542331115748784,0
1861,0.006909998856418624,0
1862,-0.06916053410573397,0
1863,-0.04349883673053699,0
1864,-0.016009283135549085,0
1865,0.024718578290083847,0
1866,-0.0932155723134853,0
1867,1.2599429363759371,0
1868,6.653841535707082,0
1869,0.7214293250983108,0
1870,-1.3310118843922887,0
1871,0.9328771878227937,0
1872,-0.6144317926680153,0
1873,0.2171483556361799,0
1874,-0.10185870452417592,0
1875,-0.1172862071313857,0
1876,-0.03904475731620187,0
1877,-0.011337855961588487,0
1878,0.027771594075934717,0
1879,-0.02588063927514901,0
1880,-0.03813797735504431,0
1881,-0.019214471168468045,0
1882,-0.0166668397854341,0
1883,0.11803329509114355,0
1884,2.953356317628412,0
1885,6.590921773872668,0
1886,-2.4196637917789667,0
1887,0.6842434205926022,0
1888,-0.14319093968665203,0
1889,0.0358532577583387,0
1890,-0.024464661130762507,0
1891,0.04118011108202359,0
1892,-0.026321928803241513,0
1893,0.015107487229948122,0
1894,0.008860706775710868,0
1895,-0.052072805428096614,0
1896,0.05830968462276834,0
1897,-0.06081666401853034,0
1898,-0.014220843896814071,0
1899,-0.06976733004154669,0
1900,0.387003121976746,0
1901,5.081481625660298,0
1902,4.144805179450216,0
1903,-2.9711773528431733,0
1904,1.6093145186389042,0
1905,-0.8028219502317618,0
1906,0.3739215040512635,0
1907,-0.014719257478227152,0
1908,0.07447630372891895,0
1909,-0.009973643325500497,0
1910,-0.07295485770618018,0
1911,0.02872687467310797,0
1912,0.06176679525197834,0
1913,0.019070306400384006,0
1914,0.043107502916616657,0
1915,0.0161384870087515,0
1916,-0.007541552401973202,0
1917,1.2699933808083756,0
1918,6.673653873298041,0
1919,0.6296750121592508,0
1920,-1.4701841511084477,0
1921,0.9803802499275857,0
1922,-0.552393824637001,0
1923,0.1899182177311345,0
1924,-0.1297397600840898,0
1925,0.02050350945111878,0
1926,-0.07447725050237881,0
1927,-0.011778834949687154,0
1928,-0.00012444022075366531,0
1929,-0.07945059359813599,0
1930,0.012046121493735122,0
1931,-0.06280904539194508,0
1932,-0.10094123305130011,0
1933,0.06221049326287096,0
1934,3.0016416735160694,0
1935,6.539589430340623,0
1936,-2.4195391259686088,0
1937,0.7514016116351405,0
1938,-0.12146768530894628,0
1939,-0.03192030653030501,0
1940,0.025768386668703992,0
1941,0.045923104849335816,0
1942,-0.01392170404449484,0
1943,-0.032106322973532726,0
1944,0.0028794951241212056,0
1945,-0.05282136241217159,0
1946,-0.018097217020370655,0
1947,-0.031702964417535465,0
1948,0.02969285191944037,0
1949,-0.10111087543546587,0
1950,0.4335689760740739,0
1951,5.0341674048195975,0
1952,4.132274028788018,0
1953,-2.9584099475474073,0
1954,1.5471528758607707,0
1955,-0.7614406985050003,0
1956,0.2379995289562858,0
1957,-0.16785730074042793,0
1958,0.09010371398078384,0
1959,-0.059007549889190505,0
1960,-0.014587177327018249,0
1961,0.06937764376213808,0
1962,-0.03945969894787816,0
1963,-0.007222700997385643,0
1964,0.03213402193607626,0
1965,0.0183442699521638,0
1966,-0.0010322808674505732,0
1967,1.3429754914619207,0
1968,6.691983536693957,0
1969,0.6195619509024541,0
1970,-1.408064355856314,0
1971,1.0602340965413568,0
1972,-0.43468587667811476,0
1973,0.14577442684355704,0
1974,-0.089511390173586,0
1975,0.06752556189346086,0
1976,0.04331875629845726,0
1977,-0.010632159808625937,0
1978,0.10779667469460992,0
1979,0.011227100673518658,0
1980,0.04680897982857411,0
1981,0.014845737868228175,0
1982,0.03548116391605063,0
1983,0.08325728836681819,0
1984,3.0455341791645925,0
1985,6.621278721113485,0
1986,-2.3828251336632826,0
1987,0.7427747932848057,0
1988,-0.06546508929575126,0
1989,0.16512724352905056,0
1990,0.09320924554151659,0
1991,0.05160549721140369,0
1992,0.07329502631307927,0
1993,0.032218524856336965,0
1994,-0.030809054830955515,0
1995,0.06802693865887213,0
1996,0.10838798666292061,0
1997,0.056588255916567395,0
1998,0.07557267732265553,0
1999,-0.03978068860919261,0
2000,0.47877028690317747,0
2001,5.1657428198208954,0
2002,4.197481970072078,0
2003,-2.8990441807237994,0
2004,1.559099074917206,0
2005,-0.8649092023686236,0
2006,0.26278174154587675,0
2007,-0.18829227031569878,0
2008,0.07487903048692315,0
2009,0.07286749232989535,0
2010,-0.02317293369256375,0
2011,-0.058151257233894874,0
2012,-0.07735567065215546,0
2013,-0.11137462482868167,0
2014,-0.1110761299701383,0
2015,-0.015128693017724399,0
2016,-0.023371452570546857,0
2017,1.2509274600623221,0
2018,6.658814408026479,0
2019,0.6176573658269141,0
2020,-1.296383273519484,0
2021,1.093404005293527,0
2022,-0.5200531474866816,0
2023,0.32626689140244025,0
2024,-0.1282292992063379,0
2025,0.046265472352643264,0
2026,0.10727525932577983,0
2027,0.03823636138343663,0
2028,0.042919699629416275,0
2029,-0.012934571685709224,0
2030,-0.04960416078939618,0
2031,0.01232221682073386,0
2032,0.011989860762763873,0
2033,0.043530306143378376,0
2034,3.008665272404577,0
2035,6.523454527960497,0
2036,-2.3933868043710946,0
2037,0.7057970101331041,0
2038,-0.23979099311016988,0
2039,-0.0740415160086657,0
2040,-0.03278564254423118,0
2041,0.1349184168401305,0
2042,0.008442807059489525,0
2043,-0.005019221899753205,0
2044,-0.026465531299191988,0
2045,0.07813083107484614,0
2046,-0.11843204538182835,0
2047,0.009891568661087514,0
2048,0.07427595804834958,0
2049,-0.0036486290930909278,0
2050,0.32997367822747997,0
2051,5.20707524304304,0
2052,4.22581075429692,0
2053,-2.858894766328372,0
2054,1.674731218462536,0
2055,-0.6989496091528289,0
2056,0.3469674210547808,0
2057,-0.09348195797875761,0
2058,0.0644614688776348,0
2059,0.0013333097228134198,0
2060,0.05867788652986112,0
2061,-0.04460180064285213,0
2062,0.0798736585443538,0
2063,0.04035800420276333,0
2064,-0.020647424426844346,0
2065,0.046280973495472964,0
2066,-0.027552434791547554,0
2067,1.2610215320351783,0
2068,6.725995088253734,0
2069,0.5599397821245057,0
2070,-1.4822347243341876,0
2071,0.99993753198008,0
2072,-0.547399519000949,0
2073,0.19680323630620233,0
2074,-0.0824756035076658,0
2075,-0.06029012425058096,0
2076,0.09287911711035038,0
2077,0.0224490268666944,0
2078,0.0060818123673522986,0
2079,0.004557302474033961,0
2080,-0.04902388783142976,0
2081,0.11427270595898435,0
2082,0.013740529386482089,0
2083,-0.026149480261162136,0
2084,3.032327196070493,0
2085,6.5685546421707395,0
2086,-2.386292276795026,0
2087,0.732110939428482,0
2088,-0.04740754814658851,0
2089,-0.036667147224189345,0
2090,0.036376404997840686,0
2091,-0.021535372254722716,0
2092,0.05847888507688112,0
2093,0.03644769612731595,0
2094,0.11594186663043841,0
2095,0.08566192307374168,0
2096,0.0549244802909082,0
2097,-0.00982616004090977,0
2098,-0.04983626800762779,0
2099,-0.007839924109675411,0
2100,0.4205014506390087,0
2101,5.162066736582567,0
2102,4.219225072252794,0
2103,-2.8917448347097148,0
2104,1.6242221973860511,0
2105,-0.8100556863838554,0
2106,0.30420107016572767,0
2107,-0.11802548288904649,0
2108,-0.0198774394445873,0
2109,-0.037812149384429034,0
2110,-0.07446723872479055,0
2111,-0.09553656598377663,0
2112,0.08653817000867478,0
2113,-0.03169887307819186,0
2114,-0.004139445965400907,0
2115,0.046277201651533345,0
2116,-0.061746203515327384,0
2117,1.2215870385061824,0
2118,6.849542885243759,0
2119,0.5765430133902898,0
2120,-1.4440470550884614,0
2121,0.953689110891122,0
2122,-0.5683049404934869,0
2123,0.22801969177060188,0
2124,-0.058530349400822905,0
2125,-0.0030531529313607697,0
2126,0.0770480552980541,0
2127,0.0027810941940403667,0
2128,0.022801856597590618,0
2129,0.008892616512634998,0
2130,-0.007360271807413674,0
2131,0.009359598614209966,0
2132,-0.0557000200387944,0
2133,0.17326708632939453,0
2134,2.9198802470661094,0
2135,6.518311954959126,0
2136,-2.4213846913905597,0
2137,0.782948735491763,0
2138,-0.1968176752890182,0
2139,-0.008253725400832499,0
2140,-0.05847046102619282,0
2141,0.049579154523479996,0
2142,0.038093340044085225,0
2143,0.011625108754216434,0
2144,0.0012100923178320604,0
2145,0.04851469906833352,0
2146,0.011701741647305466,0
2147,0.04326587748206706,0
2148,0.018971423821601198,0
2149,-0.018852635279031527,0
2150,0.4901147059351733,0
2151,5.218090593324172,0
2152,4.218126218856041,0
2153,-2.952171833591638,0
2154,1.6640924654227023,0
2155,-0.6878448342946268,0
2156,0.3478737079736527,0
2157,-0.04943243685711609,0
2158,-0.005575614105082484,0
2159,0.019350041874481052,0
2160,0.021491421740058445,0
2161,0.12708438115155182,0
2162,-0.04327658944258647,0
2163,-0.02400911547693099,0
2164,-0.020908067545813244,0
2165,0.05699314154970711,0
2166,-0.016590113347002017,0
2167,1.3476200869460007,0
2168,6.693181515658877,0
2169,0.5383630587872922,0
2170,-1.4174981253427401,0
2171,1.0562386174208225,0
2172,-0.5416923354101669,0
2173,0.19053444952273213,0
2174,-0.05112200007387291,0
2175,-0.027727258792378515,0
2176,0.03528552229256677,0
2177,-0.04600907032087471,0
2178,0.17401611352015717,0
2179,0.051156305297395385,0
2180,-0.014926648200683507,0
2181,0.020378423222230966,0
2182,-0.003026754351280282,0
2183,0.12386837188012696,0
2184,3.0666159668538313,0
2185,6.5647921293560145,0
2186,-2.357823426100075,0
2187,0.7726852357340085,0
2188,-0.11848368930584952,0
2189,0.049169735082920676,0
2190,0.04223600095018952,0
2191,0.03937986413386935,0
2192,-0.0305947339625209,0
2193,-0.057525421119310916,0
2194,-0.08314342334069347,0
2195,0.08432643040558205,0
2196,-0.10633382911419886,0
2197,-0.030342549118128226,0
2198,-0.005780960707249164,0
2199,-0.0763195562529724,0
2200,0.40874899432398115,0
2201,5.170153507047263,0
2202,4.171512311222318,0
2203,-3.0060362416374415,0
2204,1.5582327826007478,0
2205,-0.8283942025554489,0
2206,0.40938440947990884,0
2207,-0.04676424986321305,0
2208,-0.005925389224673894,0
2209,0.012578305430775798,0
2210,0.010711113204977453,0
2211,-0.004166744665745348,0
2212,-0.07059569681714137,0
2213,-0.1129716377172252,0
2214,0.010583959215742525,0
2215,-0.08652762170259974,0
2216,-0.011532059302338103,0
2217,1.2128459718573994,0
2218,6.806018565761466,0
2219,0.5577953737250392,0
2220,-1.3802625265177566,0
2221,0.7326405457155241,0
2222,-0.48127613160679006,0
2223,0.27618248811360824,0
2224,-0.08484245966228046,0
2225,-0.11581037251535184,0
2226,-0.11441560331640682,0
2227,-0.012586007146334973,0
2228,0.006671533468548447,0
2229,-0.01709456720099606,0
2230,0.024438672444057008,0
2231,-0.041539609963869795,0
2232,-0.05788550653086309,0
2233,0.0763958488121485,0
2234,3.1059647310290672,0
2235,6.6079029173678006,0
2236,-2.376192828678135,0
2237,0.7804354059308861,0
2238,-0.1134700274082048,0
2239,0.1245310105896608,0
2240,-0.03323146608903631,0
2241,0.11859931811952279,0
2242,0.0018120348275054293,0
2243,0.029005906837655738,0
2244,0.0021690492190963723,0
2245,0.011760112936153172,0
2246,0.08633225759726428,0
2247,-0.042441834512190385,0
2248,0.02497884619379261,0
2249,0.08037264110413596,0
2250,0.38656566310466633,0
2251,5.199149365262221,0
2252,4.081722167486942,0
2253,-2.864016943659702,0
2254,1.5574534389730827,0
2255,-0.8455857127948303,0
2256,0.30052490466021703,0
2257,-0.1768123787874817,0
2258,0.0918341175742618,0
2259,-0.05588362311585739,0
2260,-0.004468158313376384,0
2261,0.011279235473910442,0
2262,0.1164646296619865,0
2263,0.09368076716265339,0
2264,-0.022822811334174617,0
2265,-0.02261346748419714,0
2266,-0.005622968290573688,0
2267,1.3960071805110013,0
2268,6.810456154449922,0
2269,0.3853649005989801,0
2270,-1.352230837825074,0
2271,1.0603397207125116,0
2272,-0.4695052959107593,0
2273,0.2001799682126346,0
2274,-0.08024654768187783,0
2275,0.10684471075061053,0
2276,-0.06989968116340403,0
2277,0.10182756823955325,0
2278,0.011172790005791217,0
2279,0.04678158169888928,0
2280,0.03510122009684614,0
2281,-0.027573978805678623,0
2282,-0.05959255648405845,0
2283,0.11340237578767869,0
2284,3.072093306796651,0
2285,6.512396025754948,0
2286,-2.464587056208431,0
2287,0.7804423720921163,0
2288,-0.1910514549375152,0
2289,-0.018347684039670173,0
2290,0.006416771853216555,0
2291,-0.010840508436539997,0
2292,-0.04749185098365197,0
2293,-0.05438242520336686,0
2294,0.04201200437354467,0
2295,-0.03366703904576074,0
2296,0.006143156303859802,0
2297,0.020320167311186656,0
2298,-0.05577696119919695,0
2299,-0.016106938175194204,0
2300,0.3937669853908793,0
2301,5.155004631813466,0
2302,4.100965052008391,0
2303,-2.9113451389353893,0
2304,1.6223003586369689,0
2305,-0.7311454257937026,0
2306,0.40372286359851123,0
2307,-0.04660253045321839,0
2308,0.02524452611955208,0
2309,-0.02977617884058048,0
2310,-0.03528454623731349,0
2311,-0.09915270813530112,0
2312,0.014625523311722698,0
2313,-0.05731585504224606,0
2314,0.07356696924429793,0
2315,-0.07874240559089175,0
2316,-0.020675391047061183,0
2317,1.288639016665781,0
2318,6.701979078713998,0
2319,0.4284340771206435,0
2320,-1.4109570808537995,0
2321,0.9204431318881089,0
2322,-0.6521600323756734,0
2323,0.0436545283318282,0
2324,-0.09422501456780184,0
2325,-0.12001320167258123,0
2326,-0.07670236649010526,0
2327,-0.002945262398457729,0
2328,0.021726263345417,0
2329,-0.08694401003098073,0
2330,0.05598480533644258,0
2331,-0.04097740171150768,0
2332,0.018571545731263305,0
2333,0.08500501712459022,0
2334,3.110911123904218,0
2335,6.54694057449714,0
2336,-2.4681716703999887,0
2337,0.7133789657532972,0
2338,-0.22437048868095882,0
2339,0.047507167745170956,0
2340,-0.0071426366754402705,0
2341,0.08401555224137863,0
2342,0.014259022297634483,0
2343,-0.01748417144635207,0
2344,0.017009933238876236,0
2345,0.06264150214361305,0
2346,-0.03417959288344217,0
2347,-0.07041406894972059,0
2348,-0.04371296497269817,0
2349,-0.04299889402395309,0
2350,0.38516994658557174,0
2351,5.117556016310331,0
2352,3.983201516884851,0
2353,-2.9214874447852117,0
2354,1.4802896389785483,0
2355,-1.022625777126177,0
2356,0.26621360626104756,0
2357,-0.2097419285318769,0
2358,-0.1025828249059289,0
2359,-0.04191309310596003,0
2360,-0.02074498929427298,0
2361,-0.058391544743917376,0
2362,-0.09288376159152527,0
2363,-0.09289050898553755,0
2364,-0.09862643706464579,0
2365,-0.013208118759376795,0
2366,-0.01611942573990185,0
2367,1.3059568169158566,0
2368,6.776053285408793,0
2369,0.3708977594111664,0
2370,-1.2904925873013116,0
2371,0.9202699648735498,0
2372,-0.5457529559185224,0
2373,0.08668351290006475,0
2374,-0.09244562510122675,0
2375,0.02441078603207741,0
2376,0.08433725790830618,0
2377,0.12044886358347828,0
2378,-0.05318550576068132,0
2379,0.02246731226791019,0
2380,0.0001838989308522304,0
2381,-0.10918243416266257,0
2382,-0.0375321623606535,0
2383,0.05434749801653006,0
2384,2.996801045848652,0
2385,6.537023762704812,0
2386,-2.5092495323943877,0
2387,0.6494599793332198,0
2388,-0.1376376454774393,0
2389,0.0320710696979702,0
2390,-0.06900656998165185,0
2391,0.01280242779051031,0
2392,-0.02046715478904002,0
2393,0.020621274609596396,0
2394,-0.018107359521620077,0
2395,0.012177776217992618,0
2396,0.0674820428479138,0
2397,-0.14011169776544583,0
2398,0.04517860759238235,0
2399,-0.08707379643232387,0
2400,0.40986284263019807,0
2401,5.163103536107344,0
2402,3.974850198031881,0
2403,-2.8792262597169285,0
2404,1.6420654745848269,0
2405,-0.8705121652187492,0
2406,0.30459682612991795,0
2407,-0.06835791434041605,0
2408,0.050663121470784105,0
2409,-0.06140306084045183,0
2410,-0.04045137616725825,0
2411,-0.025959762826977106,0
2412,-0.10022263374902678,0
2413,-4.629633716817655e-05,0
2414,-0.009759650294158012,0
2415,-0.05058743364134855,0
2416,-0.17203841019250793,0
2417,1.2765738947127336,0
2418,6.824243471857859,0
2419,0.26729378548554666,0
2420,-1.317501420294841,0
2421,0.9493727211111025,0
2422,-0.5268638736395426,0
2423,0.14954340993404078,0
2424,-0.07972394497946167,0
2425,-0.04054081416668119,0
2426,-0.12968084050596726,0
2427,-0.0675971896569238,0
2428,-0.14981841133642518,0
2429,-0.06468321614334072,0
2430,0.008264887799953172,0
2431,-0.06244027243181706,0
2432,0.1321180634907352,0
2433,0.05489927336943005,0
2434,3.1140962206831957,0
2435,6.509109597178506,0
2436,-2.5186667547347703,0
2437,0.8578935283098253,0
2438,-0.24165132996282468,0
2439,0.005586886339153108,0
2440,-0.09906964308981693,0
2441,-0.019492469712928367,0
2442,-0.14413872370567193,0
2443,-0.0681321778533268,0
2444,-0.09827243570359995,0
2445,-0.06817459007010754,0
2446,-0.06591049266208238,0
2447,-0.10829710894395292,0
2448,-0.10560855762304072,0
2449,-0.14423880726556318,0
2450,0.28804517728437473,0
2451,5.167446910325305,0
2452,3.9086810711902795,0
2453,-3.0098314644418203,0
2454,1.4539159247316984,0
2455,-0.8693990231515277,0
2456,0.31523343049004615,0
2457,-0.23902668768913243,0
2458,-0.1347170010857537,0
2459,-0.16307015599999589,0
2460,-0.16146317007997052,0
2461,-0.06603811928149349,0
2462,-0.0015989552647250535,0
2463,-0.03133916908748861,0
2464,0.005248232731013325,0
2465,-0.05433279530140034,0
2466,-0.056943438020997744,0
2467,1.332639153674248,0
2468,6.700502043747471,0
2469,0.2894572757323658,0
2470,-1.3198052753172667,0
2471,0.8413299428305537,0
2472,-0.5048480885847265,0
2473,0.09060941294322683,0
2474,-0.0764338738872519,0
2475,-0.08295955433735666,0
2476,0.0612599980676124,0
2477,0.06948319142971955,0
2478,-0.07603330334766678,0
2479,-0.07089376533381055,0
2480,0.02189767165860397,0
2481,-0.012393915946746426,0
2482,-0.07953835340224533,0
2483,0.03576879591716731,0
2484,3.03756623968956,0
2485,6.445694923453555,0
2486,-2.621711891282013,0
2487,0.6551905133188276,0
2488,-0.16761135763566046,0
2489,0.0437899836212631,0
2490,-0.09392559196048306,0
2491,-0.06124184476088058,0
2492,0.01148946115093838,0
2493,-0.037470850854824926,0
2494,-0.03629172266189032,0
2495,-0.023450715777897847,0
2496,-0.071059885867884,0
2497,-0.06979078377376621,0
2498,0.00350501631378166,0
2499,-0.008584153154005597,0
2500,0.3813488290648617,0
2501,5.1560742582764485,0
2502,3.8499814158254853,0
2503,-2.8909626333966933,0
2504,1.5939758351926763,0
2505,-0.8231800693658922,0
2506,0.20232995828331396,0
2507,-0.20234430983089394,0
2508,0.06265750583689039,0
2509,-0.10406144780370444,0
2510,-0.09855634300513137,0
2511,-0.08575476049460323,0
2512,-0.14698340896819512,0
2513,-0.05082328906656057,0
2514,-0.07033378708249553,0
2515,-0.0759872073047167,0
2516,-0.022200154354253133,0
2517,1.3459458171365148,0
2518,6.686718136696936,0
2519,0.28638558847419326,0
2520,-1.2797129312184519,0
2521,0.9380244350916354,0
2522,-0.5927022842375695,0
2523,0.19879584441426426,0
2524,-0.05793117124299174,0
2525,0.05830533283505382,0
2526,-0.16097792410674294,0
2527,-0.18788084222241666,0
2528,-0.038639758081748674,0
2529,-0.0072748975976391975,0
2530,-0.08427912725271743,0
2531,-0.04324045372130314,0
2532,-0.1551984927861074,0
2533,0.039998372737144156,0
2534,3.070517642433471,0
2535,6.416843143107311,0
2536,-2.5568910196001955,0
2537,0.8515760116882563,0
2538,-0.2255819875861307,0
2539,0.08836177028854747,0
2540,-0.01064209260568473,0
2541,-0.07316009555169614,0
2542,-0.04731528313536286,0
2543,-0.05863317142221036,0
2544,-0.04972053145914363,0
2545,-0.005736073233583723,0
2546,-0.01546904894709586,0
2547,-0.02181407873777365,0
2548,-0.03664171538790383,0
2549,-0.05744164325711294,0
2550,0.4841637674857198,0
2551,5.169898503700886,0
2552,3.885764910358451,0
2553,-3.0190642144015145,0
2554,1.4155006372385883,0
2555,-0.8609545190559417,0
2556,0.28701987386439093,0
2557,-0.1421334649832056,0
2558,-0.013279526852808745,0
2559,0.03772886750713174,0
2560,-0.028764664756367443,0
2561,0.045249691929095046,0
2562,-0.010825970473677006,0
2563,-0.031058424531323008,0
2564,-0.13083744877248932,0
2565,0.04937771935258396,0
2566,0.025635514496942458,0
2567,1.2652199058265468,0
2568,6.778439373291754,0
2569,0.3177266814325623,0
2570,-1.2791877722950176,0
2571,0.8810567032689206,0
2572,-0.4953518699911171,0
2573,0.15562045122777407,0
2574,0.07160929701986253,0
2575,0.05552342113981814,0
2576,0.015885278993337085,0
2577,0.05547731159928335,0
2578,0.023874562447313237,0
2579,0.044761491093031076,0
2580,-0.007356628899982818,0
2581,-0.019771637621076817,0
2582,0.06787244852642038,0
2583,0.09895571079041438,0
2584,3.153907638059645,0
2585,6.448116803024062,0
2586,-2.5084828986312266,0
2587,0.8272627408267982,0
2588,-0.20219488288454857,0
2589,0.19804972631843076,0
2590,-0.08569998917388714,0
2591,0.017187898785635165,0
2592,0.0016550851209088425,0
2593,0.08330381531960918,0
2594,0.09766489190490327,0
2595,-0.02203170227313417,0
2596,-0.046632997340916124,0
2597,-0.006026078405536066,0
2598,-0.026603717759879086,0
2599,-0.04937599523765714,0
2600,0.5253526473465626,0
2601,5.230300258677924,0
2602,3.909678590642746,0
2603,-2.8846482173665042,0
2604,1.5257141769776918,0
2605,-0.841545565793018,0
2606,0.2671554925654187,0
2607,-0.13334858679098482,0
2608,0.031302037684713534,0
2609,0.012289468330243185,0
2610,-0.030956990540774252,0
2611,-0.0033257009418835998,0
2612,0.038709291149483724,0
2613,0.05104002760287189,0
2614,-0.016310530151974124,0
2615,-0.07179836790356803,0
2616,0.0667203172228901,0
2617,1.408160020570497,0
2618,6.865085030828292,0
2619,0.35398459279992506,0
2620,-1.2036359698563863,0
2621,0.8245433706730672,0
2622,-0.5023084093953958,0
2623,0.11343109686390228,0
2624,-0.10259679458618279,0
2625,-0.004744837448807252,0
2626,0.016365529042060237,0
2627,-0.014894607567536595,0
2628,0.11384089003889138,0
2629,-0.035574789193532325,0
2630,0.023782593673998768,0
2631,0.04917260759610635,0
2632,0.0730354169145622,0
2633,0.0718902152929557,0
2634,3.1622113088533785,0
2635,6.519092614341206,0
2636,-2.5275060480885214,0
2637,0.814938999206396,0
2638,-0.16972040167170352,0
2639,0.1008927547200767,0
2640,-0.0035953614159559477,0
2641,0.07768103811150806,0
2642,0.07125602102160863,0
2643,-0.037719315930047806,0
2644,-0.040516512160275055,0
2645,0.07230642831874078,0
2646,-0.06089851620817349,0
2647,0.006005718141500625,0
2648,0.04712811210928242,0
2649,-0.01894300636588867,0
2650,0.41430668432650997,0
2651,5.257200861632772,0
2652,3.9928817107167927,0
2653,-2.845643776611661,0
2654,1.5508229751217208,0
2655,-0.7931177480776459,0
2656,0.23932460984850384,0
2657,-0.035586896146076546,0
2658,0.1230385384337971,0
2659,-0.036348930021661736,0
2660,-0.009996190648576396,0
2661,0.10653185770073824,0
2662,0.05042194489083982,0
2663,-0.009340738978174834,0
2664,-0.0382071086649656,0
2665,-0.03149836580085766,0
2666,0.04011560787667711,0
2667,1.3900225802086243,0
2668,6.760471341524299,0
2669,0.24205528556532044,0
2670,-1.260304295352715,0
2671,1.0414384365448353,0
2672,-0.46545215068954526,0
2673,0.15305358213564382,0
2674,-0.10920141466592151,0
2675,-0.01025281849130407,0
2676,-0.027615864493247884,0
2677,-0.08996438278643376,0
2678,-0.043733261241148035,0
2679,-0.0030447502254060434,0
2680,-0.037434799497380954,0
2681,0.04533005478862787,0
2682,0.004426955864976247,0
2683,0.027193158895086993,0
2684,3.194355214249828,0
2685,6.369673309336656,0
2686,-2.5983436148194996,0
2687,0.8314205190232207,0
2688,-0.22090202729090996,0
2689,-0.016239890768757224,0
2690,-0.039649607138305704,0
2691,0.016509077971975296,0
2692,0.08328065405826343,0
2693,-0.08360309859798767,0
2694,-0.018386443888922466,0
2695,0.0027242151220890146,0
2696,-0.002698917887665492,0
2697,-0.04109481892396154,0
2698,0.01138584243404928,0
2699,-0.025457377517376457,0
2700,0.41454642035851064,0
2701,5.272612368505197,0
2702,3.9666868288830694,0
2703,-2.820332849940875,0
2704,1.4993487035912954,0
2705,-0.8691402071409279,0
2706,0.31630179143839743,0
2707,-0.09856384447530733,0
2708,0.05269748804421879,0
2709,-0.028100285462806095,0
2710,-0.04862387910320595,0
2711,-0.03250746465902193,0
2712,-0.09520614847275138,0
2713,-0.08402352933466892,0
2714,-0.025855363016639356,0
2715,-0.05890534720650682,0
2716,-0.060781772679681864,0
2717,1.399138012673836,0
2718,6.719989372713094,0
2719,0.1974867136993058,0
2720,-1.2139280558742553,0
2721,0.8557099745380531,0
2722,-0.5177648745681676,0
2723,0.11936419453894367,0
2724,-0.05712323707014884,0
2725,0.07913511321736554,0
2726,-0.13746868252163968,0
2727,0.021007620612966772,0
2728,-0.014329113253476328,0
2729,0.023181287393427702,0
2730,-0.0849743290606606,0
2731,-0.014809426694600792,0
2732,0.0018028235895389561,0
2733,0.06899829276098952,0
2734,3.232282800935052,0
2735,6.446697097937808,0
2736,-2.5209546910046465,0
2737,0.7690570271783753,0
2738,-0.15514409619748923,0
2739,-0.040134380408734655,0
2740,-0.1071360216674818,0
2741,-0.06320014100616957,0
2742,-0.08400109669047678,0
2743,0.010890133959353995,0
2744,-0.14315300848717918,0
2745,-0.053371065868731984,0
2746,-0.04537138990085131,0
2747,-0.16933121795004719,0
2748,-0.034245527760201885,0
2749,-0.18822663291012087,0
2750,0.3397652140885263,0
2751,5.211989914981491,0
2752,3.761037726809565,0
2753,-2.9125014943735366,0
2754,1.4486313833705047,0
2755,-0.8736167628717093,0
2756,0.23753426764945085,0
2757,-0.17435767640673908,0
2758,-0.018880141359433854,0
2759,-0.060310782221285004,0
2760,-0.06093375984554285,0
2761,-0.06538973928784966,0
2762,0.014203979175565106,0
2763,0.0034716508567294354,0
2764,-0.007376611626079053,0
2765,0.03972340348123447,0
2766,-0.06967878967813874,0
2767,1.4047304939821725,0
2768,6.85049988508265,0
2769,0.25855647170425244,0
2770,-1.2644587312867637,0
2771,0.8184655483338962,0
2772,-0.5469283077158076,0
2773,0.21531640182283418,0
2774,-0.24772809358065206,0
2775,-0.11186327995861887,0
2776,-0.1149168788131279,0
2777,-0.08708720405284837,0
2778,-0.09513287045346372,0
2779,-0.10202044800086162,0
2780,-0.08784667930086272,0
2781,-0.09738745297817689,0
2782,-0.07446181801070059,0
2783,-0.0252254663756993,0
2784,3.0526552765110595,0
2785,6.364619917811322,0
2786,-2.584594720062144,0
2787,0.7636581794209607,0
2788,-0.3253781115454709,0
2789,-0.04664408819365701,0
2790,-0.1339185873045483,0
2791,-0.03556875430253195,0
2792,-0.10781838978404285,0
2793,-0.19269930686947878,0
2794,-0.10449441675301561,0
2795,-0.14655410876496122,0
2796,-0.11362988434518151,0
2797,-0.06056946489660514,0
2798,-0.0874384660287574,0
2799,-0.16996104140622897,0
2800,0.38303322780953253,0
2801,5.231598256862349,0
2802,3.774105608167912,0
2803,-3.011436463374639,0
2804,1.3767744433732099,0
2805,-0.9683380571111222,0
2806,0.27795448148186663,0
2807,-0.30370060952352956,0
2808,-0.059774406782440365,0
2809,-0.07300098983992488,0
2810,-0.04783133476076634,0
2811,-0.0876793404902173,0
2812,-0.04514938066179611,0
2813,-0.10175193408549048,0
2814,-0.12331368954986512,0
2815,-0.11839318293510977,0
2816,-0.13279551644854723,0
2817,1.3064616117411907,0
2818,6.686522204370844,0
2819,0.184102673068475,0
2820,-1.1720180868120316,0
2821,0.8117546991114545,0
2822,-0.6420229505264271,0
2823,-0.07344727171709864,0
2824,-0.18295565677512232,0
2825,-0.15981110000038676,0
2826,-0.14772704465524358,0
2827,-0.13667570513112695,0
2828,-0.16535180601160032,0
2829,-0.10589643155138953,0
2830,-0.12031380900650535,0
2831,-0.18459243951836654,0
2832,-0.20838105981114471,0
2833,-0.1660341953328969,0
2834,3.084811523504379,0
2835,6.2838380948947625,0
2836,-2.763065060954422,0
2837,0.7942471016858705,0
2838,-0.46051718545071296,0
2839,-0.12872625612248983,0
2840,-0.15005842854165788,0
2841,-0.184667484197824,0
2842,-0.1431341004709357,0
2843,-0.11362772436202359,0
2844,-0.14518345682116385,0
2845,-0.13433433453163807,0
2846,-0.08892086598237847,0
2847,-0.08428790360851475,0
2848,-0.15324412496387493,0
2849,-0.14674089193849477,0
2850,0.34388221684574993,0
2851,5.241888900978408,0
2852,3.7328370134621838,0
2853,-2.930877830328899,0
2854,1.4659693749685683,0
2855,-0.877768343664305,0
2856,0.23516117497643088,0
2857,-0.28376125159113164,0
2858,-0.13053641300675506,0
2859,-0.09104070121780002,0
2860,-0.10966029220153212,0
2861,-0.1354788506615793,0
2862,-0.09029659868789092,0
2863,-0.14476398928376358,0
2864,-0.1729869906105609,0
2865,-0.03608401825582126,0
2866,-0.11084426441157906,0
2867,1.3617013907939666,0
2868,6.69451506601983,0
2869,0.06143100853891502,0
2870,-1.1423184214936557,0
2871,0.7230146845779536,0
2872,-0.5774652304492387,0
2873,0.050541627172927636,0
2874,-0.18946974634759575,0
2875,-0.14934991523593658,0
2876,-0.13256628679717608,0
2877,-0.08781956119131233,0
2878,-0.13201995646205275,0
2879,-0.1463708861788254,0
2880,-0.1680194505603411,0
2881,-0.13780563391609021,0
2882,-0.03480653981677047,0
2883,-0.10477484668048667,0
2884,3.162541254166702,0
2885,6.266093637584436,0
2886,-2.684090325747986,0
2887,0.6631242613519899,0
2888,-0.324277927867782,0
2889,0.02668313050680427,0
2890,-0.06840765172016897,0
2891,-0.1005854568198446,0
2892,-0.059646424503207895,0
2893,-0.1507760922330352,0
2894,-0.05593011240276815,0
2895,-0.00207456126545124,0
2896,-0.15528247011682433,0
2897,-0.06213894006946636,0
2898,-0.003499919382799893,0
2899,-0.0078083795024883815,0
2900,0.4186905036326262,0
2901,5.278916501071377,0
2902,3.8312423654463994,0
2903,-2.890302390382786,0
2904,1.482823302305507,0
2905,-0.7976504366745389,0
2906,0.3615053971378148,0
2907,-0.17051078005991674,0
2908,-0.08425061373554563,0
2909,-0.04467299919476644,0
2910,-0.06694039411002839,0
2911,-0.05367247040679468,0
2912,-0.04406072739608981,0
2913,-0.14714698397304532,0
2914,-0.03392737941681375,0
2915,-0.16467970490047706,0
2916,-0.10235598119336795,0
2917,1.403330508431684,0
2918,6.722325104624837,0
2919,0.056498968676512544,0
2920,-1.2338407906159308,0
2921,0.7261044890744439,0
2922,-0.5175927630811218,0
2923,0.14084466984320923,0
2924,-0.15120509082500774,0
2925,-0.056703370712349134,0
2926,-0.19698331363261912,0
2927,-0.039487828763260416,0
2928,-0.10959161164657198,0
2929,-0.11643412725245243,0
2930,-0.12246548400231488,0
2931,-0.12643951688645677,0
2932,-0.08153224085289436,0
2933,-0.04179301243015773,0
2934,3.17051829926037,0
2935,6.288828885447606,0
2936,-2.701554167177409,0
2937,0.8237113346448717,0
2938,-0.36388740883267673,0
2939,0.04034690002232079,0
2940,-0.09393030818738378,0
2941,-0.05350182761727697,0
2942,-0.08409320306713375,0
2943,-0.06452576802682619,0
2944,-0.0311851458887813,0
2945,-0.06969507556233871,0
2946,-0.0802477522347598,0
2947,-0.09309519144130343,0
2948,0.0421086327923825,0
2949,-0.0312337061490364,0
2950,0.42875889131067674,0
2951,5.35178254642721,0
2952,3.770836325316261,0
2953,-2.8067408173978343,0
2954,1.5324882844803198,0
2955,-0.8710065932242868,0
2956,0.33865795785311115,0
2957,-0.12598936131627336,0
2958,0.003744931656386688,0
2959,-0.041294133939193456,0
2960,-0.003488245519768063,0
2961,0.034168472769473573,0
2962,-0.02618814355045241,0
2963,-0.06881627491428291,0
2964,-0.04504329732487038,0
2965,-0.044919080134729714,0
2966,-0.03948561160080678,0
2967,1.4436456143515284,0
2968,6.771487072246193,0
2969,0.10532375319771825,0
2970,-1.1991177847665566,0
2971,0.7885113219501201,0
2972,-0.517682824941277,0
2973,0.07438112778825158,0
2974,-0.06665414281787263,0
2975,-0.014525254043439727,0
2976,-0.00765262361767827,0
2977,-0.09090154220968952,0
2978,-0.01475480555304496,0
2979,-0.12487543003802243,0
2980,-0.08129365793358699,0
2981,-0.07608926833878106,0
2982,-0.09225380451659977,0
2983,0.020919795749817158,0
2984,3.324796919814534,0
2985,6.346309526793965,0
2986,-2.6599265831911727,0
2987,0.8459983933340376,0
2988,-0.25697723507442743,0
2989,0.05157774006988221,0
2990,-0.023432852972455696,0
2991,0.028321794600720717,0
2992,-0.051888546883451826,0
2993,0.0552150194706625,0
2994,-0.034850711213139665,0
2995,-0.006839522345356116,0
2996,0.038299079674086633,0
2997,-0.026265226149751866,0
2998,0.0010881565157097924,0
2999,-0.0014198658971239075,0
3000,0.4491681498675144,0
3001,5.4284441825555465,0
3002,3.7935249076828668,0
3003,-2.7844259781562744,0
3004,1.6409064376926703,0
3005,-0.8373399385326461,0
3006,0.41639481694552005,0
3007,-0.10523627185927514,0
3008,-0.04497847202081101,0
3009,-0.04937016865559028,0
3010,-0.00026614720732221625,0
3011,-0.009412726515784892,0
3012,0.011388239814716525,0
3013,-0.003546661674554536,0
3014,0.03180748264732496,0
3015,0.09968641720419372,0
3016,0.04085642304311871,0
3017,1.5431652225780796,0
3018,6.971165316748239,0
3019,0.019315712167123772,0
3020,-1.0079684781360982,0
3021,0.923603460152702,0
3022,-0.36119454106592724,0
3023,0.2836821746352227,0
3024,-0.028806147573218394,0
3025,0.058056976331693294,0
3026,0.07041788991484164,0
3027,0.028775512336392563,0
3028,0.11836502197179324,0
3029,0.15967536774120233,0
3030,0.12169019890853117,0
3031,-0.0029723876086680326,0
3032,0.013425110847299873,0
3033,0.12583610286402308,0
3034,3.2891548247319538,0
3035,6.401489106257842,0
3036,-2.559662819718831,0
3037,0.9186682317405623,0
3038,-0.16301778450774018,0
3039,0.16897621707407612,0
3040,-0.03810003778436107,0
3041,0.15727879485271568,0
3042,0.10346588312015194,0
3043,0.020436249286851612,0
3044,0.06422536689739966,0
3045,0.06276652313338585,0
3046,0.003921200851603475,0
3047,0.08355900923571713,0
3048,0.015696034514941667,0
3049,-0.0800317796833551,0
3050,0.5078559946292407,0
3051,5.5146581476821535,0
3052,3.672551881960701,0
3053,-2.8498103762694007,0
3054,1.5879965422049387,0
3055,-0.8431896647530347,0
3056,0.29505420970533647,0
3057,-0.10878895624509106,0
3058,-0.015609699964295013,0
3059,-0.0033500866870956256,0
3060,-0.003508601630873163,0
3061,-0.07096797137424432,0
3062,-0.025041756134091642,0
3063,-0.07640923298494429,0
3064,-0.029286049471398467,0
3065,0.00047000946289496234,0
3066,-0.10850451179027024,0
3067,1.4760627583315382,0
3068,6.887276915105323,0
3069,0.05243176390718514,0
3070,-1.0540130240313486,0
3071,0.8457080701482587,0
3072,-0.37166797817924624,0
3073,0.14737857690217265,0
3074,-0.04742540183510771,0
3075,-0.013537787316471775,0
3076,0.00686230484897383,0
3077,0.02117968482496795,0
3078,-0.0056673471363146545,0
3079,0.015653692845086973,0
3080,-0.05555889022019178,0
3081,-0.0027547333320458688,0
3082,-0.06230180710175183,0
3083,0.059214860638835055,0
3084,3.2800809803597284,0
3085,6.22722088525515,0
3086,-2.5545063122204463,0
3087,0.8886637712607022,0
3088,-0.2948983976152945,0
3089,0.012216514061546162,0
3090,-0.07051880565681126,0
3091,0.07357169920682402,0
3092,-0.01912140223056461,0
3093,-0.024850799675238015,0
3094,0.06132040434696945,0
3095,0.029079555035222582,0
3096,0.05132841873142563,0
3097,-0.05412551556816655,0
3098,0.008201334586755824,0
3099,0.005889148175080792,0
3100,0.38747773445867506,0
3101,5.516354651857625,0
3102,3.626283616406964,0
3103,-2.750282452329333,0
3104,1.6030611630589466,0
3105,-0.7938957133741131,0
3106,0.383422623872679,0
3107,-0.13379049844457178,0
3108,0.008695316122974507,0
3109,-0.06167868058084824,0
3110,0.06140618263412292,0
3111,-0.06045796840784006,0
3112,0.06273562891756648,0
3113,-0.009690969881346522,0
3114,-0.024041104602137896,0
3115,-0.008626732812516252,0
3116,-0.05252054650212028,0
3117,1.4396271674851393,0
3118,6.798413833834141,0
3119,0.06120634025269012,0
3120,-1.143508263951838,0
3121,0.7306117015902476,0
3122,-0.45104304935722017,0
3123,0.11185793212234954,0
3124,-0.07315649631893642,0
3125,-0.1349987262081263,0
3126,-0.02684034756585542,0
3127,-0.08110566249709807,0
3128,-0.05464184180522453,0
3129,0.04686496172430952,0
3130,-0.019175092133676762,0
3131,-0.010225970037876998,0
3132,-0.030798008730002862,0
3133,-0.06208158290197287,0
3134,3.35236211536461,0
3135,6.396419045820286,0
3136,-2.722698275213967,0
3137,0.8890817685833496,0
3138,-0.28800963680630104,0
3139,0.07741628810220214,0
3140,-0.08495536998369237,0
3141,0.010619039876210809,0
3142,-0.018917998775204024,0
3143,0.03544356566147123,0
3144,-0.08003580169317398,0
3145,-0.1670509186529045,0
3146,-0.056119471700719084,0
3147,-0.029639675266756774,0
3148,-0.03778255444144091,0
3149,-0.04545930291812478,0
3150,0.38920421452086473,0
3151,5.402936297335845,0
3152,3.7421072859244755,0
3153,-2.6908074727369637,0
3154,1.5948126963007427,0
3155,-0.767458679522799,0
3156,0.37280310785062093,0
3157,-0.05765536293009846,0
3158,0.08788229247808378,0
3159,0.06574532833272713,0
3160,-0.030110385618281485,0
3161,0.028858741861615755,0
3162,-0.05058921602324156,0
3163,0.03268072697379557,0
3164,0.10022173148994656,0
3165,0.004550544412365801,0
3166,-0.015562548616415248,0
3167,1.577265939167335,0
3168,6.886358157589926,0
3169,0.03131119478050105,0
3170,-1.0949012556742541,0
3171,0.8564348932410593,0
3172,-0.4317187939985976,0
3173,0.22526590603869923,0
3174,-0.07095008017665679,0
3175,0.10233223330812508,0
3176,0.03942493293443483,0
3177,-0.03752156888362068,0
3178,0.07564235725717258,0
3179,0.012371165733228207,0
3180,-0.048737688555794315,0
3181,0.009953585498206373,0
3182,-0.03146514513174835,0
3183,0.07875997609426322,0
3184,3.346106589781071,0
3185,6.2700087350259235,0
3186,-2.6326208164222678,0
3187,0.8922110922489489,0
3188,-0.3341937491964021,0
3189,0.11473806888544603,0
3190,-0.09014554132201158,0
3191,0.0015736795644104226,0
3192,-0.04239253191495388,0
3193,-0.07101170310063505,0
3194,-0.015132037540268425,0
3195,-0.0461830315639217,0
3196,0.07219566452769853,0
3197,0.08566229344117537,0
3198,0.042455475108945394,0
3199,0.02930939701240598,0
3200,0.54231764045974,0
3201,5.514378367509229,0
3202,3.6779761051380744,0
3203,-2.6850243813795944,0
3204,1.6300734955964415,0
3205,-0.6752599145625382,0
3206,0.501370110165384,0
3207,-0.0940717467000935,0
3208,0.19445832644827327,0
3209,0.008661989839287164,0
3210,-0.030006317755336014,0
3211,0.03435346097454424,0
3212,-0.07539090972182967,0
3213,0.018087881010341825,0
3214,0.013897040607985717,0
3215,0.02724061851993977,0
3216,-0.04091723866682983,0
3217,1.590930025570332,0
3218,6.925429942706751,0
3219,0.08582586864856148,0
3220,-1.0105249085671437,0
3221,0.8780636764768461,0
3222,-0.36623815409423294,0
3223,0.25644525430951376,0
3224,0.006592848150709584,0
3225,0.05898447231911992,0
3226,0.10930089098481802,0
3227,0.02332299157374552,0
3228,0.08658083892549566,0
3229,0.1286406182020232,0
3230,0.07808045642145267,0
3231,0.07838725456305776,0
3232,-0.020706241737313405,0
3233,0.11465834852289437,0
3234,3.3986278084023898,0
3235,6.345516493628866,0
3236,-2.558540681241298,0
3237,1.0785141097447044,0
3238,-0.2573577853414125,0
3239,0.09883648422635052,0
3240,0.04237289478879759,0
3241,0.06975498412892271,0
3242,0.05575282253814165,0
3243,0.00497172338063645,0
3244,0.009258524832602415,0
3245,0.051491225795148185,0
3246,0.00774053017417755,0
3247,0.055728813119305165,0
3248,0.11403766631647887,0
3249,0.02727707508671262,0
3250,0.49388442195885485,0
3251,5.4488768203705735,0
3252,3.662562183740421,0
3253,-2.783424156663816,0
3254,1.5515366689666814,0
3255,-0.7041907608353877,0
3256,0.3389721064281552,0
3257,-0.15398989808448268,0
3258,0.007079456310011917,0
3259,0.022339966510725062,0
3260,0.10991895379966546,0
3261,0.10110963953131791,0
3262,0.03207600046769544,0
3263,0.015799229726174265,0
3264,0.059900643649445584,0
3265,-0.02664289645386778,0
3266,0.029361249679118077,0
3267,1.6098482245427146,0
3268,6.935983013217635,0
3269,0.036534294181337745,0
3270,-0.986221402975931,0
3271,0.8948366668382789,0
3272,-0.26761641894607724,0
3273,0.17181060987977467,0
3274,-0.03642513380791454,0
3275,0.05870508635284503,0
3276,0.041154939677168455,0
3277,-0.000434809559707941,0
3278,0.07402731117898982,0
3279,0.00807093804064004,0
3280,-0.009924531219471129,0
3281,0.03811743774939721,0
3282,-0.0138224911068048,0
3283,0.10550399916371571,0
3284,3.3318293163137493,0
3285,6.287184347701482,0
3286,-2.67530224977477,0
3287,0.9871213432500964,0
3288,-0.2702404022568846,0
3289,0.09820620199651303,0
3290,-0.1250238023205952,0
3291,0.110880839301576,0
3292,0.1092853538581249,0
3293,0.08671480980099106,0
3294,0.06043971511439235,0
3295,-0.00014445714570163193,0
3296,-0.030574244846731338,0
3297,0.08140375513307815,0
3298,0.04698692550941502,0
3299,0.083368777594494,0
3300,0.4952082113537174,0
3301,5.519212722949269,0
3302,3.759463520166093,0
3303,-2.7813307839104784,0
3304,1.6376873120141822,0
3305,-0.7961597209369646,0
3306,0.33930718963294215,0
3307,-0.13479532117873833,0
3308,0.07131083204241039,0
3309,0.029954459738714707,0
3310,0.01488318047440371,0
3311,0.014908999714802747,0
3312,0.036314437875770655,0
3313,0.06430262919465918,0
3314,0.00878799135526754,0
3315,0.012469262392182857,0
3316,0.03044486545996731,0
3317,1.5243250802853683,0
3318,6.8886724039260905,0
3319,0.0027447257223967925,0
3320,-1.0337538219344389,0
3321,0.9006694476138595,0
3322,-0.4227306803352852,0
3323,0.2100176911671157,0
3324,-0.003228383569862948,0
3325,0.06645580733889227,0
3326,-0.01426284714295157,0
3327,0.16799403822219383,0
3328,0.03861670059211381,0
3329,0.05586366121718625,0
3330,0.005078310083802294,0
3331,-0.0622503432024451,0
3332,0.06620710806569959,0
3333,0.21363103098844058,0
3334,3.3319237885447235,0
3335,6.342050643896855,0
3336,-2.660252991500434,0
3337,1.043339477666502,0
3338,-0.2952495503886662,0
3339,0.14290510592991446,0
3340,-0.0005349084084177733,0
3341,0.022603175995839685,0
3342,-0.07778290885353925,0
3343,0.09532823552295605,0
3344,0.008708081709028759,0
3345,0.05179094692720221,0
3346,0.026859972369535814,0
3347,0.09566553821373858,0
3348,0.023855402585167742,0
3349,0.040771042925037755,0
3350,0.6048067272872346,0
3351,5.584089994193412,0
3352,3.6320144089450292,0
3353,-2.6997332681900414,0
3354,1.5528877772736214,0
3355,-0.7691349489932955,0
3356,0.33023745740618443,0
3357,-0.08864818222316911,0
3358,-0.019222518077661503,0
3359,-0.05839406921092361,0
3360,0.09270161917537312,0
3361,0.007728145383663807,0
3362,-0.060376774108016784,0
3363,-0.0310990892539331,0
3364,-0.1334547906351008,0
3365,-0.0031258749959379704,0
3366,0.016330513897550088,0
3367,1.5953282741184316,0
3368,6.875301264945911,0
3369,0.016734565440476384,0
3370,-1.106250932562385,0
3371,0.8494372657592111,0
3372,-0.3393228102867567,0
3373,0.1407558261078784,0
3374,-0.012987342563720701,0
3375,0.010838448426739793,0
3376,-0.05579694342649237,0
3377,0.02168921397999591,0
3378,0.049419709578695126,0
3379,0.049695163316004265,0
3380,0.016327270192961662,0
3381,0.023922990643109737,0
3382,0.03664869480302973,0
3383,0.1881120712447515,0
3384,3.5168430656834193,0
3385,6.247519551142655,0
3386,-2.6437415976262146,0
3387,1.0286904374746306,0
3388,-0.28114059860305307,0
3389,0.06283334420724161,0
3390,-0.0074237919624384596,0
3391,-0.03036302225446616,0
3392,-0.03179098327892474,0
3393,-0.0016982521825122526,0
3394,0.09424507550605982,0
3395,0.006533851162027059,0
3396,-0.02965567386970389,0
3397,0.0016638040028172409,0
3398,0.016306833416333745,0
3399,0.04993877132712374,0
3400,0.5420080535109775,0
3401,5.470042426263895,0
3402,3.639776871524295,0
3403,-2.699878703089767,0
3404,1.634466249010222,0
3405,-0.7171503089242608,0
3406,0.3761254100053106,0
3407,-0.06902148667173794,0
3408,0.1718250316386603,0
3409,0.00037585322210380995,0
3410,0.09137795952313006,0
3411,0.04698266544832955,0
3412,0.15306534578685868,0
3413,0.06528023872895551,0
3414,0.1586043133598378,0
3415,0.06432128918116185,0
3416,0.04255226423336561,0
3417,1.5986119953150937,0
3418,7.008677831421545,0
3419,-0.0702971857033107,0
3420,-1.0596090847197075,0
3421,0.9247974541337876,0
3422,-0.3165336976523463,0
3423,0.2591201767778075,0
3424,0.02588007371972942,0
3425,0.033281707790785,0
3426,0.1531718624575599,0
3427,0.03258833011726821,0
3428,0.03774519943076472,0
3429,0.08834109083284407,0
3430,-0.005774128679094215,0
3431,0.058319685265070795,0
3432,0.013107044162431788,0
3433,0.16213126127371374,0
3434,3.5422290494980047,0
3435,6.3643346740821825,0
3436,-2.6668375358437824,0
3437,1.100263191510496,0
3438,-0.2790380243463883,0
3439,0.12396595624563003,0
3440,0.023446921749340873,0
3441,-0.050403808604348,0
3442,-0.051858346262528277,0
3443,0.05335886279732101,0
3444,0.04961748351578331,0
3445,0.0680749934080457,0
3446,0.08099011859108046,0
3447,0.06406343779744442,0
3448,0.007578337359779461,0
3449,0.07630155140462916,0
3450,0.566045914353407,0
3451,5.613713081851227,0
3452,3.573317213311551,0
3453,-2.6676730945038076,0
3454,1.5092830931080645,0
3455,-0.7688759503666679,0
3456,0.3642315063580645,0
3457,-0.02648000089169463,0
3458,0.05870874180351676,0
3459,0.1306171821080685,0
3460,0.07284329460965275,0
3461,0.029301309005379368,0
3462,0.04823930778519901,0
3463,-0.004227373802185658,0
3464,0.08628150154586331,0
3465,0.18141448851509603,0
3466,0.08599581235768422,0
3467,1.7098006661949707,0
3468,6.980271305623145,0
3469,-0.13119755117587695,0
3470,-0.9295503643290182,0
3471,0.8266508692558241,0
3472,-0.3225255875605289,0
3473,0.19280270926812232,0
3474,0.03991090754660301,0
3475,0.11167680859764736,0
3476,0.012549786118973807,0
3477,0.02199461729482705,0
3478,0.09559573255291307,0
3479,-0.07972891235518414,0
3480,0.03771954831645501,0
3481,0.04191293232301029,0
3482,-0.008337109778821877,0
3483,0.2339019274522934,0
3484,3.456165553400779,0
3485,6.29683143430929,0
3486,-2.6714503978519435,0
3487,1.0578965722940223,0
3488,-0.20667583297788283,0
3489,0.1772940895995193,0
3490,-0.052879425420473775,0
3491,0.11107032670137086,0
3492,0.12653579080510602,0
3493,-0.010063146118304209,0
3494,0.0663173209378296,0
3495,0.07516726930194523,0
3496,0.13739847561507373,0
3497,0.06454310422782072,0
3498,0.0791548235850911,0
3499,0.0863918875920612,0
3500,0.577042316393348,0
3501,5.5726739283634155,0
3502,3.5987426597432597,0
3503,-2.7109133880643546,0
3504,1.6408455513517366,0
3505,-0.7709917138980487,0
3506,0.45167470373452656,0
3507,-0.012046482797147262,0
3508,0.08824805708753723,0
3509,0.048448304525208055,0
3510,0.05416157880805521,0
3511,-0.00334527660404918,0
3512,0.04551977932017787,0
3513,0.0074442456625116935,0
3514,0.013552845160030198,0
3515,-0.0027748526683830307,0
3516,0.0054779571831534216,0
3517,1.5670615931810397,0
3518,6.864768083171851,0
3519,-0.07428374791181627,0
3520,-0.937957551195471,0
3521,0.7808880919718049,0
3522,-0.3748623659114582,0
3523,0.2114206170899659,0
3524,-0.02414539649401536,0
3525,0.05967800423964005,0
3526,0.06757989076458443,0
3527,0.06786002196384433,0
3528,0.13493723731508075,0
3529,0.10917112558120141,0
3530,0.1024884375321067,0
3531,-0.0025673107015773827,0
3532,-0.029113286078025685,0
3533,0.13505528224079674,0
3534,3.4939055873858322,0
3535,6.334987542511546,0
3536,-2.6905704153197387,0
3537,0.9568874555123663,0
3538,-0.37850417003583664,0
3539,0.04263463007130555,0
3540,0.015528930305321084,0
3541,-0.010212691456921195,0
3542,-0.03426767402562547,0
3543,-0.01209867935957746,0
3544,-0.12861759511548906,0
3545,-0.08396193317627516,0
3546,-0.04613588107668814,0
3547,0.02914520861642799,0
3548,-0.016776796583676264,0
3549,-0.039826534079248854,0
3550,0.562896675828487,0
3551,5.506608439887302,0
3552,3.5305483768253203,0
3553,-2.645827861654486,0
3554,1.601498810683016,0
3555,-0.8022829636972844,0
3556,0.45182907302042646,0
3557,-0.03712197629912409,0
3558,0.05226676203371688,0
3559,0.1174676831413915,0
3560,0.07876988812927577,0
3561,0.05237970471835852,0
3562,0.09891934113744744,0
3563,0.0758715315611754,0
3564,-0.029861743098340044,0
3565,0.06560524512175406,0
3566,0.059750311706383244,0
3567,1.6485627428168985,0
3568,6.962473048638047,0
3569,-0.0738207201820228,0
3570,-0.9023255964519231,0
3571,0.8006431678084158,0
3572,-0.42214804459353783,0
3573,0.13590690535375113,0
3574,-0.04288600696598027,0
3575,0.09307549897563683,0
3576,0.05596006647900215,0
3577,0.013881139859341054,0
3578,-0.00977529679533924,0
3579,-0.006472376973486629,0
3580,-0.06574457095979667,0
3581,-0.01201484788059545,0
3582,-0.013004283882270847,0
3583,0.16670371442886892,0
3584,3.4047086771130544,0
3585,6.250471467525099,0
3586,-2.673851520701802,0
3587,0.9931522148236902,0
3588,-0.355975561268885,0
3589,0.2073408105528218,0
3590,-0.06576477108227685,0
3591,0.01481596363151053,0
3592,0.014689303156196633,0
3593,0.0008589698332430833,0
3594,0.02629776110597247,0
3595,-0.021793975237227318,0
3596,0.08009957172576297,0
3597,0.02425820709781476,0
3598,-0.040755967744646356,0
3599,0.04451828341969044,0
3600,0.5332259828165568,0
3601,5.6034344108565,0
3602,3.4841491475335893,0
3603,-2.6884585294561063,0
3604,1.4571776035790367,0
3605,-0.7984506939380384,0
3606,0.21114947873603798,0
3607,-0.1376960145531108,0
3608,0.031503473387285943,0
3609,-0.0461845462981126,0
3610,-0.02212754779133662,0
3611,0.02216947976327939,0
3612,-0.13140113176045745,0
3613,-0.0942220430688404,0
3614,0.0009066940326552687,0
3615,-0.020333082036092257,0
3616,0.0006084712166170526,0
3617,1.5479774984545804,0
3618,6.928884602759722,0
3619,-0.16502855787471185,0
3620,-0.9763986815870944,0
3621,0.7674700633687568,0
3622,-0.47387783614179313,0
3623,0.08725603080701538,0
3624,-0.18036494372591444,0
3625,-0.014592715613246297,0
3626,-0.023852850166624535,0
3627,-0.07169880042255983,0
3628,-0.07031040739538788,0
3629,0.02274863669251552,0
3630,0.04397446240861906,0
3631,-0.015374503129885489,0
3632,-0.019889714365829175,0
3633,0.010655423301543676,0
3634,3.5013717656196293,0
3635,6.195365280070797,0
3636,-2.7683427985518194,0
3637,0.9402616076086964,0
3638,-0.41531855167242204,0
3639,0.05858043333090735,0
3640,-0.15649352832582386,0
3641,0.021302872195861827,0
3642,0.027995817687934566,0
3643,0.09229303664727054,0
3644,-0.08067311717005007,0
3645,-0.032712653118292356,0
3646,-0.06042137721383184,0
3647,0.035175535267313714,0
3648,0.09334738606751364,0
3649,-0.11336924265198095,0
3650,0.47349797801537896,0
3651,5.5838329064362,0
3652,3.434575961918872,0
3653,-2.7899463965068594,0
3654,1.5742716239827597,0
3655,-0.8013912165401622,0
3656,0.36490766222075016,0
3657,-0.1167324555566221,0
3658,0.07033731068645827,0
3659,-0.09540692416884952,0
3660,0.004583439114428338,0
3661,0.01677315667755714,0
3662,-0.1145026265923529,0
3663,0.027885263709719738,0
3664,-0.017506878084150856,0
3665,-0.06896123869295748,0
3666,-0.014069983082238266,0
3667,1.62632404969548,0
3668,6.925430528782134,0
3669,-0.2909672767584895,0
3670,-0.9609123048488507,0
3671,0.6637382393785863,0
3672,-0.40168317056819935,0
3673,0.10088407984657101,0
3674,-0.0031539150653679265,0
3675,-0.10803884733537113,0
3676,-0.0012984349743126976,0
3677,-0.03566812295235036,0
3678,-0.00784350608673922,0
3679,0.01139014467815843,0
3680,0.008781155978718737,0
3681,0.036291219216492046,0
3682,0.0908895124461746,0
3683,0.04379401858216224,0
3684,3.5335044817628276,0
3685,6.3240915864248946,0
3686,-2.6798238601356963,0
3687,1.1337633656419233,0
3688,-0.4003732338009301,0
3689,0.2214844688703529,0
3690,0.06382532966931284,0
3691,0.022996772013605112,0
3692,0.0440098075622179,0
3693,0.039574126462183494,0
3694,0.012986263741865517,0
3695,0.053892898457738266,0
3696,-0.059149819817029825,0
3697,-0.006823096328080919,0
3698,0.04923883004817544,0
3699,-0.014751864652124885,0
3700,0.5279024288897112,0
3701,5.492274798947536,0
3702,3.352476107280223,0
3703,-2.77934706070657,0
3704,1.4356731184011844,0
3705,-0.7755752369580682,0
3706,0.3215458164148499,0
3707,-0.10198787023624,0
3708,-0.013530198403893866,0
3709,0.0017895707730014448,0
3710,-0.04777767831227423,0
3711,0.04723767979131025,0
3712,0.02794193337256142,0
3713,-0.025144322504200456,0
3714,-0.05257344450086017,0
3715,-0.12427166280868017,0
3716,-0.016504276507648654,0
3717,1.5755255419934657,0
3718,6.979713474097765,0
3719,-0.2516209813844681,0
3720,-1.0044011382164657,0
3721,0.845025440574014,0
3722,-0.35731034907933507,0
3723,0.11485565852447584,0
3724,0.004300804593942002,0
3725,0.01607306676679026,0
3726,0.017947615162778163,0
3727,-0.049504470718686355,0
3728,-0.03166224564601806,0
3729,-0.04004092035877793,0
3730,-0.0338028878602033,0
3731,-0.05072159105449561,0
3732,-0.023887744801823034,0
3733,0.021319184826781468,0
3734,3.476692580449644,0
3735,6.180462397320054,0
3736,-2.7600558908132995,0
3737,1.0021449444203006,0
3738,-0.4278240777044089,0
3739,0.15181948122211164,0
3740,-0.09108549370293878,0
3741,-0.03649304292028325,0
3742,-0.06570045210335389,0
3743,-0.00025988038861232514,0
3744,0.09923515390533245,0
3745,-0.005892605349608055,0
3746,0.009355275142897615,0
3747,0.01083664846242391,0
3748,0.06731555056049987,0
3749,-0.0030650640298460295,0
3750,0.497241064252534,0
3751,5.502808079494443,0
3752,3.393081443696028,0
3753,-2.7785026903503276,0
3754,1.5552658428949955,0
3755,-0.7338938177056241,0
3756,0.44662628079543176,0
3757,-0.09193198428887545,0
3758,0.04483459048419104,0
3759,-0.03273101056913616,0
3760,0.05465140665739273,0
3761,0.07546657762846003,0
3762,0.01257962571267389,0
3763,-0.02656134943667504,0
3764,0.08410015552439118,0
3765,0.1038462262313363,0
3766,-0.024130407154183704,0
3767,1.739652112722581,0
3768,6.8730150747047265,0
3769,-0.24167016978292422,0
3770,-0.9761074079638792,0
3771,0.7200068593314097,0
3772,-0.4485774316624747,0
3773,0.12203664736602524,0
3774,0.039326498535806526,0
3775,-0.01367227108339749,0
3776,0.08395607215061505,0
3777,-0.05806550155166129,0
3778,-0.11010945019041116,0
3779,-0.02451702488225771,0
3780,-0.06674202604040823,0
3781,-0.04422022328130188,0
3782,0.06566542602518469,0
3783,0.02634267521293973,0
3784,3.55177025167549,0
3785,6.241515814927752,0
3786,-2.7142559746240527,0
3787,1.075420240527744,0
3788,-0.38852036162925147,0
3789,0.08836760438280175,0
3790,-0.03786716099401169,0
3791,-0.04142378013946565,0
3792,0.0002652094407786243,0
3793,-0.0346560128273069,0
3794,-0.05161086323909035,0
3795,0.06183142530232471,0
3796,-0.02916917838093887,0
3797,-0.06848523793952115,0
3798,-0.05484626234042107,0
3799,-0.09126306277700094,0
3800,0.5353734914554704,0
3801,5.68065473289665,0
3802,3.4193523797540273,0
3803,-2.649630243583974,0
3804,1.5643561041325798,0
3805,-0.7554616942548243,0
3806,0.2562675457629779,0
3807,-0.05167919154374115,0
3808,0.09467524154096438,0
3809,0.06616679335068192,0
3810,-0.02854339271267321,0
3811,0.03220576027338103,0
3812,0.08238878643237194,0
3813,0.07049156352219144,0
3814,0.010247391975149692,0
3815,0.04768934855655667,0
3816,0.02037150346318977,0
3817,1.6670084790178399,0
3818,6.92659112625893,0
3819,-0.11181030776775791,0
3820,-0.9411061735983064,0
3821,0.7453716536997845,0
3822,-0.3885453821536011,0
3823,0.16218098914733295,0
3824,-0.09462398265923284,0
3825,0.006869943419007019,0
3826,-0.06036943907682701,0
3827,-0.017479046052324174,0
3828,-0.008421831725195835,0
3829,-0.05494931870535972,0
3830,0.015805135205152344,0
3831,0.1035436652449934,0
3832,0.059321332543152666,0
3833,0.03987338814372146,0
3834,3.4982588311200193,0
3835,6.233293447201154,0
3836,-2.794130393510091,0
3837,1.0042189568714877,0
3838,-0.3596371100115375,0
3839,0.12487484303533034,0
3840,-0.09175922567961907,0
3841,-0.03760911120534831,0
3842,0.018855284687051794,0
3843,0.11239020160105193,0
3844,0.011783279495667424,0
3845,-0.04327267663914362,0
3846,-0.06914845547627976,0
3847,0.02918717106360849,0
3848,0.07503422288337705,0
3849,-0.01069092347354948,0
3850,0.5600892727089093,0
3851,5.624951638443694,0
3852,3.331248760346944,0
3853,-2.690118116893579,0
3854,1.4625508941630292,0
3855,-0.8400133060430665,0
3856,0.30146256398503524,0
3857,-0.1308955464952412,0
3858,0.07145520092576799,0
3859,-0.019086592097985966,0
3860,-0.1621517827491525,0
3861,-0.1256170668208521,0
3862,-0.12712789325056684,0
3863,-0.053297535038680795,0
3864,-0.050174000761643855,0
3865,-0.0896216277604931,0
3866,-0.10649670513776534,0
3867,1.5611769587153106,0
3868,6.7998175510531755,0
3869,-0.30673749233331593,0
3870,-0.9380939914948657,0
3871,0.7736575894402988,0
3872,-0.2881170628068932,0
3873,0.13022010031081976,0
3874,-0.08392377386241534,0
3875,0.0804887494980789,0
3876,-0.008813595660873193,0
3877,0.08135142514116675,0
3878,-0.031055337398588508,0
3879,-0.022683568842130776,0
3880,0.0518766815516185,0
3881,-0.026267141064737133,0
3882,0.04954792593558581,0
3883,0.05433216319385015,0
3884,3.618283922589874,0
3885,6.121445388200315,0
3886,-2.739643411722151,0
3887,1.0402374028139358,0
3888,-0.44011052498618547,0
3889,0.06679181069575682,0
3890,-0.1379628692418124,0
3891,-0.02010865812263509,0
3892,0.006865363555974115,0
3893,-0.009555331984325476,0
3894,0.029896843096118356,0
3895,-0.030627758278326787,0
3896,-0.034884445390921455,0
3897,-0.01835308765519544,0
3898,0.041797619674586575,0
3899,0.0025693353660859904,0
3900,0.552544694513766,0
3901,5.690625614943308,0
3902,3.3227383441306917,0
3903,-2.624919080490924,0
3904,1.558454086659996,0
3905,-0.7662217453316758,0
3906,0.24765132320820987,0
3907,-0.23539045285997903,0
3908,0.008989982072030403,0
3909,-0.05576798451231747,0
3910,-0.03146093059355118,0
3911,-0.10028411716972109,0
3912,-0.04841180114676485,0
3913,0.01254836764047437,0
3914,0.017067702251892886,0
3915,-0.004445833452741842,0
3916,-0.03157857552305712,0
3917,1.6803448217193007,0
3918,6.962164263653315,0
3919,-0.2534856082809671,0
3920,-0.7794566782245829,0
3921,0.8059383310616334,0
3922,-0.2917669619983072,0
3923,0.2061096986342197,0
3924,0.10494574552265262,0
3925,-0.013834852815759482,0
3926,0.11596736213725256,0
3927,0.01441696710078267,0
3928,-0.05568424519006292,0
3929,0.034684918795325204,0
3930,0.018315863663168383,0
3931,0.030293781546423842,0
3932,0.051649335698132834,0
3933,0.1381114542779886,0
3934,3.551291555326,0
3935,6.231787897447213,0
3936,-2.7252240009087028,0
3937,1.0560562074472841,0
3938,-0.3895664784107583,0
3939,0.14327948621382633,0
3940,-0.0673671877868034,0
3941,0.1765787367875866,0
3942,0.021429108512593848,0
3943,-0.0010213993547346365,0
3944,-0.04346492673446997,0
3945,0.049445348182103784,0
3946,-0.02522586823149679,0
3947,0.07305470099625629,0
3948,0.03355380437630861,0
3949,0.06287541323310833,0
3950,0.6275090798924188,0
3951,5.627917456934202,0
3952,3.3487107293556044,0
3953,-2.660852176562198,0
3954,1.5208652005214642,0
3955,-0.6745184058054075,0
3956,0.37320610969427503,0
3957,-0.12062159045815754,0
3958,-0.002915709342841008,0
3959,0.06509495932693433,0
3960,0.003908860361122531,0
3961,0.07172019001431863,0
3962,0.01249541436038935,0
3963,0.03799988165835039,0
3964,0.037771967385672324,0
3965,0.1074321461847795,0
3966,-0.011773701609430125,0
3967,1.6157008586175157,0
3968,6.902984471027037,0
3969,-0.26756451193033115,0
3970,-0.8795084653962265,0
3971,0.702797477137101,0
3972,-0.34358905543589097,0
3973,0.10204277739851683,0
3974,0.01413511511975489,0
3975,0.05257946482775274,0
3976,-0.036641025245715005,0
3977,0.027814140704493895,0
3978,0.026104225747066764,0
3979,0.0015818631153718225,0
3980,0.001290203865752286,0
3981,0.026057715383483192,0
3982,0.014092985309554738,0
3983,0.14963192945458073,0
3984,3.6014911363649666,0
3985,6.21679375343523,0
3986,-2.7412092343746997,0
3987,1.1719390736723796,0
3988,-0.29002145929237577,0
3989,0.09944917185721025,0
3990,-0.030941655539431,0
3991,0.06850077822965113,0
3992,0.025910765840322578,0
3993,0.00884381631373621,0
3994,-0.021610216582152047,0
3995,0.03516868559406555,0
3996,0.03395585094474182,0
3997,0.020074512557468012,0
3998,-0.01580424907358429,0
3999,-0.08099661250535459,0
4000,0.5992644876129886,0
4001,5.7435719734328154,0
4002,3.3119795829326737,0
4003,-2.682464966466642,0
4004,1.493336845996136,0
4005,-0.7835482074911868,0
4006,0.34200790912921564,0
4007,-0.038987530102736714,0
4008,0.048883804221394815,0
4009,-0.08141037942598703,0
4010,0.008171091705282282,0
4011,0.051680322042313244,0
4012,0.07963082467146647,0
4013,-0.0033756983632485665,0
4014,0.043427694283196094,0
4015,0.03491439878445927,0
4016,0.04831696450998196,0
4017,1.6910313364587857,0
4018,6.901979802306303,0
4019,-0.2690636032269769,0
4020,-0.880562632401275,0
4021,0.7577947357845618,0
4022,-0.3570520614926984,0
4023,0.20075202914488466,0
4024,-0.06203260668091481,0
4025,0.026377854550291284,0
4026,0.04623384679259763,0
4027,0.03772361441343037,0
4028,0.006103977620255602,0
4029,0.009338342555467727,0
4030,0.07732455389827073,0
4031,0.040358589628743946,0
4032,-0.003498852974982425,0
4033,0.07609329486378053,0
4034,3.557146601826417,0
4035,6.231656606407632,0
4036,-2.6442605123100353,0
4037,1.127846335652041,0
4038,-0.2191060625687481,0
4039,0.16252350756781025,0
4040,-0.02560092970932157,0
4041,0.02436311803291823,0
4042,0.09137989834179044,0
4043,0.08014494798113009,0
4044,-0.06342762567420752,0
4045,0.05825622239803584,0
4046,0.08100221649102714,0
4047,-0.05197659489298115,0
4048,-0.07759932885032722,0
4049,0.02859117497015521,0
4050,0.6629277577105134,0
4051,5.723813041314486,0
4052,3.3037835360739494,0
4053,-2.71401985646654,0
4054,1.5164956994668224,0
4055,-0.8017511032597308,0
4056,0.26234648031343094,0
4057,-0.14260031603080897,0
4058,0.027190153036438985,0
4059,0.03787293833715308,0
4060,-0.03242320744475179,0
4061,-0.01571602420613658,0
4062,-0.010771273182682135,0
4063,0.03847807502617653,0
4064,-0.02157933818473985,0
4065,-0.020584858156366258,0
4066,-0.03962496367088834,0
4067,1.657267940571347,0
4068,6.95205395590823,0
4069,-0.3992773922601253,0
4070,-0.8843457289709236,0
4071,0.7001036747119982,0
4072,-0.36733857241919,0
4073,0.14233424777376374,0
4074,-0.066924756180126,0
4075,-0.015235004242940588,0
4076,-0.01341383589373585,0
4077,0.030791554717247593,0
4078,0.03415655994676723,0
4079,-0.035160182924205016,0
4080,0.0546402609216167,0
4081,-0.015397644733740072,0
4082,-0.08488625845929657,0
4083,-0.009847849495338595,0
4084,3.573623566347833,0
4085,6.127360566779803,0
4086,-2.7620976933794004,0
4087,1.1547431600435782,0
4088,-0.3758471508644412,0
4089,0.0734184414769884,0
4090,-0.002781324680712363,0
4091,0.01592479223117962,0
4092,-0.01770084422486187,0
4093,-0.032631410877744495,0
4094,-0.0353725820720374,0
4095,-0.10113579867135142,0
4096,-0.00943544598053444,0
4097,0.06633134922539502,0
4098,-0.04929314009158199,0
4099,0.0007679273828945128,0
4100,0.6004253656696378,0
4101,5.732830368607821,0
4102,3.2550785650729046,0
4103,-2.648235454641034,0
4104,1.49849572920812,0
4105,-0.850823791322451,0
4106,0.3587738226516583,0
4107,-0.10110856356292677,0
4108,-0.008098695408793512,0
4109,-0.01762458345215962,0
4110,-0.02344498017991392,0
4111,0.042476244136615326,0
4112,-0.08867107017866817,0
4113,-0.031092315071537202,0
4114,0.027910552052762633,0
4115,0.015294886968338358,0
4116,-0.01651326371154708,0
4117,1.7122751664741553,0
4118,6.892254674054244,0
4119,-0.32191322498538194,0
4120,-0.854363336929463,0
4121,0.6475166393087408,0
4122,-0.40260849191885545,0
4123,0.17576030203571122,0
4124,-0.08786380217888107,0
4125,-0.07181726431004391,0
4126,-0.08324112824650254,0
4127,0.024659410911888023,0
4128,-0.032976239334539206,0
4129,0.12562162895723886,0
4130,-0.018162520368690555,0
4131,-0.022210487633586316,0
4132,0.11970910280684774,0
4133,0.05092393384440776,0
4134,3.629125025197555,0
4135,6.191051062482443,0
4136,-2.779978758256555,0
4137,1.1051652154177627,0
4138,-0.4114464171927613,0
4139,0.15953911555401096,0
4140,-0.09271201013356646,0
4141,0.0669458330877529,0
4142,-0.039910976747202814,0
4143,0.056693269504697316,0
4144,-0.0220748736236359,0
4145,-0.005168684397755027,0
4146,-0.025801147283203922,0
4147,-0.0014050926073443278,0
4148,0.017450429308557707,0
4149,-0.10978632738656206,0
4150,0.5838696179821963,0
4151,5.714333472461443,0
4152,3.1922143208458875,0
4153,-2.7415742685579145,0
4154,1.475251489745495,0
4155,-0.7998048367778372,0
4156,0.26391525801326315,0
4157,-0.09626143003096518,0
4158,-0.005172844929841276,0
4159,-0.15219086894967698,0
4160,0.02152077878050867,0
4161,-0.03557699873461395,0
4162,-0.09724876042305758,0
4163,-0.013837762780845295,0
4164,0.0432151825249156,0
4165,-0.122142205123872,0
4166,-0.07179465894150024,0
4167,1.6504198706117095,0
4168,6.906498584265453,0
4169,-0.4577142056566569,0
4170,-0.7600589088424503,0
4171,0.599383793530263,0
4172,-0.3428801639850638,0
4173,0.060468842935329566,0
4174,-0.08178189450967455,0
4175,0.018071589836365577,0
4176,-0.10758737723629738,0
4177,-0.048024180543763444,0
4178,-0.02427174116657778,0
4179,-0.016090868319153746,0
4180,-0.023529795302482587,0
4181,0.027293939500226842,0
4182,-0.02046308805878234,0
4183,0.12683371066037796,0
4184,3.642752442332019,0
4185,6.042969637897546,0
4186,-2.8571290253546255,0
4187,1.0765734013633603,0
4188,-0.45033377392239093,0
4189,0.08907875509001018,0
4190,-0.0563317198162757,0
4191,0.017106757398771263,0
4192,-0.004453022523473524,0
4193,0.15667538902587386,0
4194,-0.008966786969738173,0
4195,-0.04443599339602343,0
4196,0.009434361324281104,0
4197,-0.1344533554677647,0
4198,-0.04159365502232982,0
4199,0.02431650258020005,0
4200,0.6467037740558541,0
4201,5.643457251030745,0
4202,3.176559051259168,0
4203,-2.610262942510963,0
4204,1.553577878357338,0
4205,-0.6963754419529915,0
4206,0.3032092681027365,0
4207,-0.024802861654995373,0
4208,0.006652642588931237,0
4209,0.0027873206281631095,0
4210,0.03323167203063658,0
4211,0.05769451891660982,0
4212,0.022330141352954948,0
4213,0.07653432589777547,0
4214,0.016500599803671228,0
4215,0.04109412888833037,0
4216,0.03004547349229794,0
4217,1.750684940618617,0
4218,6.971154984314264,0
4219,-0.37742569050368924,0
4220,-0.777448278238727,0
4221,0.7902953522353262,0
4222,-0.3273332031502322,0
4223,0.11909847269626027,0
4224,-0.010836257340120418,0
4225,-0.0041280523187095935,0
4226,0.026242123470367938,0
4227,0.01813307169540022,0
4228,-0.01878700806099403,0
4229,-0.06491996783621069,0
4230,-0.003948402359933691,0
4231,-0.024858575959876037,0
4232,-0.08070154457582994,0
4233,-0.060354614229058176,0
4234,3.567606299712573,0
4235,6.047538691528726,0
4236,-2.869376032480632,0
4237,1.03874629313573,0
4238,-0.5438085799467933,0
4239,0.18951938330461537,0
4240,-0.042825663704888134,0
4241,-0.02440889772199565,0
4242,0.026436499644199897,0
4243,0.08779167127553696,0
4244,0.05961425774347445,0
4245,-0.018265969037722027,0
4246,0.010201194647019032,0
4247,0.03641444531156254,0
4248,0.03293631584321987,0
4249,0.06032849324858898,0
4250,0.5385001381538548,0
4251,5.815894661805731,0
4252,3.1654610758517516,0
4253,-2.5960190425958456,0
4254,1.4883148068058105,0
4255,-0.7736947563102431,0
4256,0.3304580010868233,0
4257,-0.1333621682221803,0
4258,-0.01680114141154985,0
4259,-0.0199320795385649,0
4260,0.02043435351299628,0
4261,-0.07958780728326734,0
4262,-0.038743206214764014,0
4263,0.01378259330425462,0
4264,0.01951655549774372,0
4265,0.014551399264296633,0
4266,0.02325211060582137,0
4267,1.725724377513861,0
4268,6.956215298261765,0
4269,-0.4154822853352247,0
4270,-0.7979199944122074,0
4271,0.639106467920601,0
4272,-0.3966591200874273,0
4273,0.08177384874682854,0
4274,-0.022796692607625416,0
4275,0.05456670176226494,0
4276,-0.011898154364781153,0
4277,-0.005017905926540131,0
4278,-0.021981700925632966,0
4279,0.07946734402320658,0
4280,0.11659469522786707,0
4281,0.027347017695552377,0
4282,0.062174309780957046,0
4283,0.18049317382501534,0
4284,3.682906210844679,0
4285,6.167220585116927,0
4286,-2.7823172885921226,0
4287,1.1951092336396139,0
4288,-0.38068782134283063,0
4289,0.2103339549804214,0
4290,0.03107039080742681,0
4291,0.12962005595435197,0
4292,0.07449356820010919,0
4293,0.1011020686136353,0
4294,0.16757517089676296,0
4295,0.07327050599404383,0
4296,0.04171491244415386,0
4297,0.03367662134231632,0
4298,0.0435195304529719,0
4299,0.061045552809004984,0
4300,0.6822087385749266,0
4301,5.799112043526593,0
4302,3.186456503632506,0
4303,-2.5092547647932677,0
4304,1.6283743474935592,0
4305,-0.736989226731745,0
4306,0.42274705136574253,0
4307,-0.057207208115613514,0
4308,0.1993005332823638,0
4309,0.0014040111342042486,0
4310,0.06042331282748493,0
4311,0.06328728832316696,0
4312,0.11009248198204834,0
4313,0.14090139866901313,0
4314,0.09884657761879247,0
4315,0.16676721455458074,0
4316,0.105651072139565,0
4317,1.8939771799699432,0
4318,7.125479409695352,0
4319,-0.3660248284645324,0
4320,-0.5829779947018466,0
4321,0.7982650357354706,0
4322,-0.18256647135595638,0
4323,0.35638718298358224,0
4324,0.05546172636435949,0
4325,0.17870004624795816,0
4326,0.13491431069485485,0
4327,0.03513291888476032,0
4328,0.15824433084373754,0
4329,0.060566369936109844,0
4330,0.17545641890998223,0
4331,0.09262184522743125,0
4332,0.09021101794901507,0
4333,0.05004829090704821,0
4334,3.6959604641786514,0
4335,6.028820605570922,0
4336,-2.829746994375051,0
4337,1.193189732136957,0
4338,-0.386917830218093,0
4339,0.12420344349210966,0
4340,-0.08645523888755441,0
4341,0.04070979909275153,0
4342,-0.03358867675194917,0
4343,0.08116448050517033,0
4344,0.02481133095858361,0
4345,0.0719821247668957,0
4346,0.122606291783567,0
4347,0.12881610190315662,0
4348,-0.01997156390196428,0
4349,0.04803864017008316,0
4350,0.7275600207595799,0
4351,5.796639364013743,0
4352,3.1176728193214744,0
4353,-2.5146944302723764,0
4354,1.5985198376548297,0
4355,-0.7478187429592522,0
4356,0.39318907613288473,0
4357,-0.09251838635234189,0
4358,0.09145592377005986,0
4359,0.007727244342737291,0
4360,0.0862785408662954,0
4361,0.09258411211773702,0
4362,0.0787070430056683,0
4363,0.08771931308004204,0
4364,0.06948099429893793,0
4365,-0.03411568152391814,0
4366,0.0466638245013794,0
4367,1.842995971208725,0
4368,7.070623694196774,0
4369,-0.5087945354633403,0
4370,-0.7082451912096352,0
4371,0.6961381790087652,0
4372,-0.284729290491118,0
4373,0.0700132785983019,0
4374,-0.023972784402685868,0
4375,0.016179809412922977,0
4376,0.02526780315764139,0
4377,0.07076392027059862,0
4378,0.020620909931556002,0
4379,0.06614127711059722,0
4380,-0.0029170465349653008,0
4381,0.03591600395648202,0
4382,-0.04144352685784182,0
4383,0.19504042397245647,0
4384,3.6606072260798674,0
4385,6.034770731129281,0
4386,-2.8341927203049413,0
4387,1.1760713549898298,0
4388,-0.3808791539123325,0
4389,0.15895736265073576,0
4390,0.01819675968429238,0
4391,-0.02436736819032463,0
4392,-0.07296183482399712,0
4393,0.010951079718836371,0
4394,0.0050924464488688575,0
4395,-0.035846182356476006,0
4396,0.03668534742792522,0
4397,0.028477739266801146,0
4398,0.0682249570321144,0
4399,0.01602853851294614,0
4400,0.7158271847557953,0
4401,5.72970111244653,0
4402,3.057835190935847,0
4403,-2.64317704239662,0
4404,1.5513536315122995,0
4405,-0.7014843732221598,0
4406,0.25828878039072195,0
4407,-0.1012433633675768,0
4408,0.03983561726369423,0
4409,0.05988416870381694,0
4410,-0.007884042431060624,0
4411,0.03602218956934529,0
4412,-0.012927903990743651,0
4413,-0.035219988978104536,0
4414,-0.066340693948951,0
4415,-0.007816540745299801,0
4416,0.036806316637723165,0
4417,1.8112780106098185,0
4418,7.010000978273078,0
4419,-0.6310425003656351,0
4420,-0.8089546149819056,0
4421,0.5974766073201693,0
4422,-0.34144262122628755,0
4423,0.014236657488201895,0
4424,-0.055070068670780806,0
4425,-0.004469846753336091,0
4426,-0.07785099854273972,0
4427,-0.011986589791570662,0
4428,-0.01936520124763133,0
4429,0.1308431899653174,0
4430,-0.007360646391696575,0
4431,0.009932339664951648,0
4432,-0.06071733511995117,0
4433,0.0335804958545068,0
4434,3.693744283948253,0
4435,6.033835444112057,0
4436,-2.8281345662928423,0
4437,1.1253405309003053,0
4438,-0.4402856007629846,0
4439,0.14679302113480888,0
4440,0.01630887083920711,0
4441,0.016707521199522065,0
4442,-0.08159269023049052,0
4443,-0.03252312326248542,0
4444,-0.0020674366866073116,0
4445,-0.008306558773110505,0
4446,-0.04075361911677343,0
4447,-0.09918338057408331,0
4448,0.0024580756959376032,0
4449,-0.057007010379430095,0
4450,0.6769860246881254,0
4451,5.687998446271318,0
4452,3.0986764656285786,0
4453,-2.5953749460238473,0
4454,1.5002595948925763,0
4455,-0.6899041507372334,0
4456,0.24459538005429235,0
4457,-0.0984274610629815,0
4458,0.011190248691078307,0
