timestamp,value-0,is_anomaly
0,0.2067998674671307,0.0
1,4.441795317745464,0.0
2,5.021241761432392,0.0
3,-3.0586247725506777,0.0
4,1.5602979554371068,0.0
5,-0.7022742115974742,0.0
6,0.33584185009368483,0.0
7,-0.169925963499415,0.0
8,-0.05301107788919096,0.0
9,-0.030195930375567052,0.0
10,0.0004805272481852932,0.0
11,0.05795318278923592,0.0
12,0.05861711254484546,0.0
13,0.04964523225220993,0.0
14,0.010568887895596242,0.0
15,-0.02985617566488317,0.0
16,0.024967058865552033,0.0
17,1.0529485284226225,0.0
18,6.393321781756792,0.0
19,1.4699985710560943,0.0
20,-1.9218434665023363,0.0
21,1.242032897786355,0.0
22,-0.6903675298373344,0.0
23,0.2307996353582489,0.0
24,-0.012171326722760958,0.0
25,0.05019426296519214,0.0
26,-0.015070499431651759,0.0
27,0.0648005805872859,0.0
28,-0.01830259696164037,0.0
29,0.05539170507944202,0.0
30,-0.011759833283710407,0.0
31,0.024848656759042326,0.0
32,0.005384126503045442,0.0
33,0.1502929413297083,0.0
34,2.4505171364469094,0.0
35,6.846335740713527,0.0
36,-1.7982804902693732,0.0
37,0.10440673733100592,0.0
38,0.18735394156921303,0.0
39,-0.19080226134578254,0.0
40,0.08391065260759858,0.0
41,-0.09608889593313896,0.0
42,-0.09912513946736219,0.0
43,-0.067774081745518,0.0
44,-0.053522142917874986,0.0
45,-0.012456767613525897,0.0
46,0.03440731970663206,0.0
47,-0.10951270297168283,0.0
48,0.08265081446220011,0.0
49,-0.01689606267394655,0.0
50,0.15121575607272206,0.0
51,4.552900012070189,0.0
52,4.9553284152077985,0.0
53,-3.030954457124532,0.0
54,1.4909823339241228,0.0
55,-0.7564383044235536,0.0
56,0.3759544654140023,0.0
57,-0.1284529670038323,0.0
58,0.02534958226379444,0.0
59,-0.1097394398577441,0.0
60,0.003942553779311433,0.0
61,-0.013488706368793613,0.0
62,-0.0016584274635724205,0.0
63,-0.09668904147298887,0.0
64,-0.037300308097590995,0.0
65,-0.00016462888558378685,0.0
66,-0.05119292832861972,0.0
67,1.0194391847606068,0.0
68,6.4791987112660205,0.0
69,1.5865205777898324,0.0
70,-1.988652898672211,0.0
71,1.2596655885755648,0.0
72,-0.7092404382142812,0.0
73,0.20619275327619851,0.0
74,-0.19491755819448783,0.0
75,0.015066428310435045,0.0
76,-0.08951934383421122,0.0
77,-0.04408308833539781,0.0
78,-0.06541389093825917,0.0
79,-0.043617374036742575,0.0
80,-0.10703690542431651,0.0
81,-0.0815887884309214,0.0
82,0.02313914540616218,0.0
83,-0.04129533788608544,0.0
84,2.505967106800628,0.0
85,6.897553495629073,0.0
86,-1.8917360563738335,0.0
87,0.145749385155942,0.0
88,0.1537926087660496,0.0
89,-0.08444918278078503,0.0
90,0.040544206774734776,0.0
91,0.020540864416365774,0.0
92,-0.03101355157310636,0.0
93,-0.007286518080816481,0.0
94,-0.033056315138540814,0.0
95,-0.0545311949499066,0.0
96,0.05360085482803656,0.0
97,0.051183504643848604,0.0
98,0.005198190531156811,0.0
99,-0.0025692302469504796,0.0
100,0.226269231507047,0.0
101,4.556751875681364,0.0
102,4.897289916420935,0.0
103,-3.057679495332241,0.0
104,1.5839614634680688,0.0
105,-0.9202221074979358,0.0
106,0.17040219243220112,0.0
107,-0.23915822393422523,0.0
108,0.026355800577106597,0.0
109,-0.10701536989241844,0.0
110,-0.08917162637025651,0.0
111,-0.0713290390049374,0.0
112,-0.16058252591942235,0.0
113,-0.04231881852404207,0.0
114,-0.06822206683288475,0.0
115,-0.07338993284760893,0.0
116,-0.040454289892631196,0.0
117,0.8801651537894619,0.0
118,6.354622187532062,0.0
119,1.371929628546829,0.0
120,-1.946931574304834,0.0
121,1.1902413542248047,0.0
122,-0.5976485397345733,0.0
123,0.3334661617255277,0.0
124,-0.10288528084181577,0.0
125,0.0008524681200639149,0.0
126,0.017434170225469222,0.0
127,-0.04839639636260594,0.0
128,-0.13652469076458085,0.0
129,-0.10590830915543678,0.0
130,0.021030183887122276,0.0
131,-0.08679214097844458,0.0
132,0.009524057183417183,0.0
133,-0.0011475886849092566,0.0
134,2.495045658318961,0.0
135,6.868318127872463,0.0
136,-1.8169912622519169,0.0
137,0.14902081196529615,0.0
138,0.14225009161238036,0.0
139,-0.14164961989230151,0.0
140,-0.0697007995949259,0.0
141,0.021229884334000144,0.0
142,-0.041553612905277995,0.0
143,-0.09212653949256328,0.0
144,-0.1291182059448269,0.0
145,-0.06885414809713603,0.0
146,-0.014129518899571175,0.0
147,-0.027419494200940538,0.0
148,-0.15728098895056922,0.0
149,-0.05059745216324244,0.0
150,0.19648493054627492,0.0
151,4.559460460141103,0.0
152,4.945170725665017,0.0
153,-2.920646167026396,0.0
154,1.5612438738114016,0.0
155,-0.7374528550058341,0.0
156,0.3431629608035914,0.0
157,-0.03448729583693205,0.0
158,2.881775775866874e-05,0.0
159,0.030080918859237013,0.0
160,0.0067343818338977054,0.0
161,-0.06709663050923752,0.0
162,0.05624714114505625,0.0
163,0.09572858488689508,0.0
164,0.054053144050215385,0.0
165,0.02283010317151381,0.0
166,-0.051601312427185554,0.0
167,0.9384045406467569,0.0
168,6.519383860523077,0.0
169,1.4262654000535786,0.0
170,-1.9743427786794518,0.0
171,1.2076148347324187,0.0
172,-0.7043878663628782,0.0
173,0.19902593998085039,0.0
174,-0.05543956599862706,0.0
175,-0.06579611408698233,0.0
176,0.015239685836757121,0.0
177,-0.02324024033865878,0.0
178,-0.047388983627722356,0.0
179,0.02413759204331242,0.0
180,-0.051448014165889594,0.0
181,0.06051573897978202,0.0
182,0.03226310625062016,0.0
183,0.10208100669333997,0.0
184,2.4468374196521343,0.0
185,6.8897678454265385,0.0
186,-1.8328014959732593,0.0
187,0.06828937832974108,0.0
188,0.10530838526910372,0.0
189,-0.15778054158082208,0.0
190,-0.10160170843726465,0.0
191,-0.033746548105803825,0.0
192,-0.046708527374072044,0.0
193,-0.08570097527544596,0.0
194,-0.08486172694188895,0.0
195,-0.02758682716290999,0.0
196,-0.006103605330060748,0.0
197,-0.0813389762628788,0.0
198,-0.13606090361897202,0.0
199,-0.07937339357892821,0.0
200,0.2708395333803653,0.0
201,4.531237755785573,0.0
202,4.841912050001743,0.0
203,-2.988931694592579,0.0
204,1.5069304760486808,0.0
205,-0.7181626224412967,0.0
206,0.2739224521438584,0.0
207,-0.12574028957783445,0.0
208,0.01796524544509159,0.0
209,0.0088083739463219,0.0
210,0.002912065783233546,0.0
211,0.05935924025859811,0.0
212,0.024518092339009825,0.0
213,-0.097632003615609,0.0
214,0.012555040968463833,0.0
215,-0.009739969640636878,0.0
216,0.02520757211645642,0.0
217,1.0666895138658967,0.0
218,6.439145570466608,0.0
219,1.5109019265178159,0.0
220,-1.9933165141289075,0.0
221,1.2498303999633866,0.0
222,-0.6438980258697607,0.0
223,0.2617783307362225,0.0
224,-0.07819121159249874,0.0
225,0.044115781188057,0.0
226,-0.017180364799354933,0.0
227,0.10876067822733292,0.0
228,0.11802515438231206,0.0
229,0.028320507711739194,0.0
230,-0.016977339945852578,0.0
231,-0.009321440828491345,0.0
232,0.009753013121393823,0.0
233,0.027909717744552878,0.0
234,2.538816229195105,0.0
235,6.85615818513446,0.0
236,-1.931955308823867,0.0
237,0.18639608859471782,0.0
238,0.1837329619408193,0.0
239,0.03522441302538826,0.0
240,0.04966599746680323,0.0
241,-0.02959434436987032,0.0
242,0.11068096889157289,0.0
243,-0.002389162474116595,0.0
244,0.05151811090245526,0.0
245,0.06653947867780642,0.0
246,0.033103009750441253,0.0
247,0.05145683626585311,0.0
248,0.03874512747740964,0.0
249,0.08637045145988523,0.0
250,0.3350045273451234,0.0
251,4.595255249645785,0.0
252,4.830681975871443,0.0
253,-2.8718410898698306,0.0
254,1.5945405949505638,0.0
255,-0.7238872527211679,0.0
256,0.3561009293659261,0.0
257,-0.0892251620707587,0.0
258,0.07506775412007159,0.0
259,0.07500389510543404,0.0
260,0.017573389440955378,0.0
261,0.0440162017892619,0.0
262,0.016667018772532478,0.0
263,0.028062766515562453,0.0
264,0.06205021238578297,0.0
265,0.021728300263838318,0.0
266,0.06485281886028163,0.0
267,1.0871065475974633,0.0
268,6.544557243227282,0.0
269,1.3934077952014345,0.0
270,-1.8080896446650945,0.0
271,1.1814439166842068,0.0
272,-0.6354538105469618,0.0
273,0.3247374749601262,0.0
274,-0.05081277168367784,0.0
275,0.013844578882127125,0.0
276,0.0656721556052215,0.0
277,-0.001166753018614762,0.0
278,0.027717848461333707,0.0
279,0.07659614345168303,0.0
280,-0.0022511122504390163,0.0
281,0.035769494310666755,0.0
282,0.12107162458504941,0.0
283,0.21512423926395963,0.0
284,2.4560318947849327,0.0
285,6.994942629389855,0.0
286,-1.7575366455020414,0.0
287,0.38527172016751665,0.0
288,0.23692180792215095,0.0
289,0.0343653034456476,0.0
290,0.15549802245532532,0.0
291,0.03714214719741679,0.0
292,0.18568630774859562,0.0
293,0.10008011977249659,0.0
294,0.10780200764363623,0.0
295,0.02575004648210484,0.0
296,0.10865244222901778,0.0
297,0.10768420169381501,0.0
298,0.06928728388903446,0.0
299,0.052255508398049696,0.0
300,0.33927758043875983,0.0
301,4.667591542005759,0.0
302,4.883086860169837,0.0
303,-2.9651523452886215,0.0
304,1.548255435560943,0.0
305,-0.741536506785298,0.0
306,0.39587402200823446,0.0
307,0.00407063672717746,0.0
308,0.02454694473428855,0.0
309,0.04422613247627764,0.0
310,0.03724698831972559,0.0
311,0.058190660497362004,0.0
312,-0.01215122777360855,0.0
313,-0.019346297364244067,0.0
314,0.0329056840357861,0.0
315,-0.010052039102728179,0.0
316,-0.0035842283950144674,0.0
317,1.0835222661562123,0.0
318,6.535380352961204,0.0
319,1.421702852332777,0.0
320,-1.8897554982950577,0.0
321,1.2277469593142805,0.0
322,-0.48429513699018617,0.0
323,0.4080352591560623,0.0
324,-0.03128188143346674,0.0
325,0.15861926811080557,0.0
326,-0.0052269572306506695,0.0
327,-0.05514580435197618,0.0
328,0.01975065222335904,0.0
329,0.031701613107700144,0.0
330,0.11377332515113865,0.0
331,0.08473392860645264,0.0
332,0.0817052483213696,0.0
333,0.025683829786870782,0.0
334,2.801432575613521,0.0
335,6.859875230615595,0.0
336,-1.8755594846850747,0.0
337,0.34663373064300107,0.0
338,0.16647689648165967,0.0
339,-0.08343259409729428,0.0
340,0.026607743005509013,0.0
341,0.13381068297804774,0.0
342,0.04028417022275583,0.0
343,0.04450237551258647,0.0
344,0.08216545214328622,0.0
345,0.06431540173703881,0.0
346,0.035051129329472575,0.0
347,0.016885103895664874,0.0
348,0.06984774649399851,0.0
349,0.07548009843993331,0.0
350,0.316765741535272,0.0
351,4.835455226114772,0.0
352,4.896886101376514,0.0
353,-3.007933871709996,0.0
354,1.630063946776509,0.0
355,-0.6054197810069407,0.0
356,0.40315724107532136,0.0
357,-0.11957927716417949,0.0
358,0.0466537239249706,0.0
359,0.1718161610289319,0.0
360,0.14528089614380324,0.0
361,0.02104363988214862,0.0
362,0.07066819758972509,0.0
363,0.11718557295504534,0.0
364,0.07569041600139284,0.0
365,0.06986816175207312,0.0
366,0.09989828480371112,0.0
367,1.0624034566277831,0.0
368,6.50697825969909,0.0
369,1.4156750324766307,0.0
370,-1.8746712352742532,0.0
371,1.2960200009725802,0.0
372,-0.6419257059366247,0.0
373,0.30211953177082396,0.0
374,-0.031866951942084006,0.0
375,0.019337262052962725,0.0
376,-0.022521707107461493,0.0
377,-0.0051441039109359245,0.0
378,-0.005373335515589035,0.0
379,0.05963896761542359,0.0
380,-0.04150342074399728,0.0
381,0.03664236839911409,0.0
382,0.008136493442484048,0.0
383,0.04388285019983921,0.0
384,2.567941803497675,0.0
385,6.897992376127695,0.0
386,-1.9667318189609249,0.0
387,0.3756641485637542,0.0
388,0.1311364741692837,0.0
389,-0.11897948781321678,0.0
390,0.08274842290148177,0.0
391,-0.04595690144206496,0.0
392,0.010515497651871219,0.0
393,0.06431460988797139,0.0
394,-0.08726526523704854,0.0
395,-0.01605637364761943,0.0
396,-0.057779877651037155,0.0
397,-0.04657004071404098,0.0
398,0.10665934470094333,0.0
399,-0.12241832822506458,0.0
400,0.3115398037642444,0.0
401,4.630755631221393,0.0
402,4.830695527667738,0.0
403,-3.0966795704516783,0.0
404,1.4815216548319752,0.0
405,-0.6622035277230144,0.0
406,0.38826592645471353,0.0
407,-0.026905273435367277,0.0
408,0.03467209213249951,0.0
409,-0.01546371397312988,0.0
410,0.05599076514042594,0.0
411,0.10699985728421539,0.0
412,-0.029241209263731558,0.0
413,0.0187161284199687,0.0
414,-0.05426334167155113,0.0
415,0.046555887084459235,0.0
416,-0.05094786967930084,0.0
417,1.0551102787917064,0.0
418,6.508701088598033,0.0
419,1.2912757639501482,0.0
420,-1.8429002892109743,0.0
421,1.2387932277401688,0.0
422,-0.6879400243303456,0.0
423,0.1716780838440623,0.0
424,-0.09514909067318521,0.0
425,0.06232757004363164,0.0
426,-0.1553499455438026,0.0
427,-0.01187730910228385,0.0
428,0.0004180866499530825,0.0
429,-0.015008801076388854,0.0
430,0.07224246791666168,0.0
431,-0.022244605706971676,0.0
432,0.08029640068675928,0.0
433,-0.12354753762786398,0.0
434,2.6732485568258757,0.0
435,6.923207069598142,0.0
436,-1.8758208789610262,0.0
437,0.2913359198840419,0.0
438,0.10528343456213358,0.0
439,0.016490721646845792,0.0
440,0.006721106933374271,0.0
441,0.007917335646787047,0.0
442,-0.06738474777918717,0.0
443,0.05633164800277833,0.0
444,0.014901942090653446,0.0
445,-0.0007770908383945511,0.0
446,-0.10921513142908246,0.0
447,0.037784253649948696,0.0
448,-0.09200234631366666,0.0
449,0.014769794222967762,0.0
450,0.3276263946763674,0.0
451,4.713949953641629,0.0
452,4.8906057792422075,0.0
453,-2.9785000494447287,0.0
454,1.5017704527550622,0.0
455,-0.7736756904393994,0.0
456,0.2501614741418554,0.0
457,-0.11297435227075203,0.0
458,0.07641172407515819,0.0
459,0.018923625642111724,0.0
460,0.0058820167387647684,0.0
461,0.04373752350408132,0.0
462,-0.031860715902389876,0.0
463,0.124591847313028,0.0
464,0.06743940248073074,0.0
465,0.08721930425250757,0.0
466,-0.04366907571258109,0.0
467,1.1078275471428507,0.0
468,6.507195009498984,0.0
469,1.3484104211499932,0.0
470,-1.9282421478971081,0.0
471,1.2141948665343993,0.0
472,-0.5642203169456292,0.0
473,0.26666268668229903,0.0
474,-0.16536686649102064,0.0
475,-0.054001409178604035,0.0
476,-0.002323325737063977,0.0
477,0.004283988968395843,0.0
478,0.03532158543291098,0.0
479,0.10109985532894504,0.0
480,-0.08275480956385473,0.0
481,0.01365015717093615,0.0
482,-0.05541660703796643,0.0
483,0.07197816369373722,0.0
484,2.601809854275398,0.0
485,6.887636932533043,0.0
486,-1.9051679733079272,0.0
487,0.3515681014397585,0.0
488,0.1405429903910455,0.0
489,-0.036348430156730546,0.0
490,0.11092886894890869,0.0
491,-0.015332055017633413,0.0
492,0.08042536672934264,0.0
493,-0.02186261016469039,0.0
494,0.14503397408710716,0.0
495,0.08317260898340093,0.0
496,0.008265662044708265,0.0
497,-0.06537271261907157,0.0
498,0.006216030927858318,0.0
499,-0.1441065289002966,0.0
500,0.21271887383937005,0.0
501,4.786967049435216,0.0
502,4.836555334835218,0.0
503,-3.012835653760524,0.0
504,1.6056283426130986,0.0
505,-0.7108737731589025,0.0
506,0.25139763115483615,0.0
507,-0.05413559673547683,0.0
508,0.10395873215426499,0.0
509,0.01592699006546086,0.0
510,0.008996935402900239,0.0
511,0.047323454925793575,0.0
512,0.08895630399569157,0.0
513,0.06073630969493426,0.0
514,0.034383358725140215,0.0
515,-0.0018531207328684358,0.0
516,-0.06792503516782492,0.0
517,1.0410988037457531,0.0
518,6.5323132709785945,0.0
519,1.3345484843107922,0.0
520,-1.838186886369525,0.0
521,1.1374704116962342,0.0
522,-0.5207411762013479,0.0
523,0.247284727416795,0.0
524,0.02457468266417627,0.0
525,0.07443456062512417,0.0
526,-0.06744790369398766,0.0
527,0.002245482379357098,0.0
528,-0.004557120921178753,0.0
529,0.05361519051300049,0.0
530,-0.022801224410053895,0.0
531,0.06978555749699086,0.0
532,-0.06090373571711895,0.0
533,0.08103750465698958,0.0
534,2.64979650947538,0.0
535,6.837616654024793,0.0
536,-1.8489265129029788,0.0
537,0.29269674907011944,0.0
538,0.11177724868493807,0.0
539,-0.025140599962362772,0.0
540,-0.02383794069659998,0.0
541,0.0324809396542372,0.0
542,0.04415675953507637,0.0
543,-0.004629382660805901,0.0
544,0.11093331413419046,0.0
545,0.04609383764700036,0.0
546,0.058636076454300745,0.0
547,0.08559504937305545,0.0
548,-0.03257203201644734,0.0
549,0.056614671896615,0.0
550,0.36242692604868565,0.0
551,4.7297819464827855,0.0
552,4.913472057945747,0.0
553,-2.946821177209673,0.0
554,1.5998810823746088,0.0
555,-0.6802280613263265,0.0
556,0.26310310857699626,0.0
557,-0.08538699923572829,0.0
558,0.04172604409430154,0.0
559,-0.05360239560330089,0.0
560,0.09839051702816512,0.0
561,-0.06325073935708042,0.0
562,0.03631340539372035,0.0
563,0.05566747997521585,0.0
564,0.007438292932287646,0.0
565,0.04303191241923471,0.0
566,0.054511216174605075,0.0
567,0.9975241026763154,0.0
568,6.571623350761985,0.0
569,1.2957919619295486,0.0
570,-1.878803590696434,0.0
571,1.140411718932488,0.0
572,-0.46604228421130683,0.0
573,0.2501703496614841,0.0
574,-0.05089693626561831,0.0
575,0.016131134385125305,0.0
576,0.06931376543614731,0.0
577,-0.022015061810868056,0.0
578,0.02094938956610512,0.0
579,0.03536445499912051,0.0
580,0.04332316726391624,0.0
581,0.003915344964360679,0.0
582,0.01225130583368728,0.0
583,0.013337481921578135,0.0
584,2.594043718695949,0.0
585,6.777167650862109,0.0
586,-2.0257543663879765,0.0
587,0.2836822937044815,0.0
588,0.04374448439413481,0.0
589,-0.06889441448885315,0.0
590,-0.06257636000077359,0.0
591,-0.039831568649501825,0.0
592,-0.08375873940386185,0.0
593,0.03177353322402322,0.0
594,-0.02138242571113829,0.0
595,0.10098156814458432,0.0
596,0.00837798448068009,0.0
597,-0.03928301918107936,0.0
598,0.01674582763273882,0.0
599,-0.008834961718894184,0.0
600,0.29200570286958727,0.0
601,4.810199673243309,0.0
602,4.796658811905804,0.0
603,-2.9601616023400346,0.0
604,1.5611417853286922,0.0
605,-0.7081953641344374,0.0
606,0.3504432064281561,0.0
607,-0.03970882326024889,0.0
608,0.01109568043683034,0.0
609,0.005087402227208519,0.0
610,0.17877943124944942,0.0
611,-0.01338898720286609,0.0
612,0.18464807188928975,0.0
613,0.014472463610060764,0.0
614,0.0747412497141643,0.0
615,-0.024397101414431244,0.0
616,0.06901152846806587,0.0
617,1.2084126302759113,0.0
618,6.622389113632909,0.0
619,1.356838606063345,0.0
620,-1.6998743696226795,0.0
621,1.3325286253521236,0.0
622,-0.6128070500959166,0.0
623,0.3494000209111286,0.0
624,0.0630145727993564,0.0
625,0.11803554026461897,0.0
626,-0.08639806102365971,0.0
627,-0.040169975804659,0.0
628,0.004289131251430253,0.0
629,-0.01967287592492594,0.0
630,-0.02051567588605409,0.0
631,-0.10532614562985831,0.0
632,-0.09959549228145033,0.0
633,-0.03299752642372186,0.0
634,2.545192412388597,0.0
635,6.716216190917243,0.0
636,-2.0386898434447702,0.0
637,0.26743397057317475,0.0
638,-0.05172522105818651,0.0
639,-0.020196758047902358,0.0
640,0.04411874399916327,0.0
641,-0.02223228664851463,0.0
642,-0.07066984743699903,0.0
643,0.024874606090793058,0.0
644,-0.0725298435105924,0.0
645,0.030843240410568986,0.0
646,-0.05631001481833204,0.0
647,-0.11284303240901453,0.0
648,-0.037566928847040035,0.0
649,0.0032044917557324526,0.0
650,0.1808917398398496,0.0
651,4.596691651030474,0.0
652,4.65962939888846,0.0
653,-2.997792193914118,0.0
654,1.483853111994154,0.0
655,-0.7387937435900704,0.0
656,0.28164310130097386,0.0
657,-0.12688290489240805,0.0
658,-0.0018645914217816466,0.0
659,-0.059364455576810846,0.0
660,0.011307081508233868,0.0
661,-0.06618119740937281,0.0
662,-0.014581229188068019,0.0
663,-0.006972060262294238,0.0
664,0.10663483064415111,0.0
665,0.044446901125503556,0.0
666,0.02748483313713833,0.0
667,1.0824305140072576,0.0
668,6.5901806169623605,0.0
669,1.2484651167057634,0.0
670,-1.852326928321808,0.0
671,1.225718783791835,0.0
672,-0.6504443806434417,0.0
673,0.19185681554461664,0.0
674,-0.10450446449142724,0.0
675,-0.01567332910724708,0.0
676,0.021229723008966004,0.0
677,-0.033932871317911104,0.0
678,-0.09948604620102336,0.0
679,-0.08606240194683376,0.0
680,-0.0666459256237794,0.0
681,-0.006331783834090662,0.0
682,-0.06355189059148854,0.0
683,-0.07642204638696,0.0
684,2.5295760911893908,0.0
685,6.830460114266622,0.0
686,-1.9706953260417852,0.0
687,0.48954399331681847,0.0
688,0.06207887344311648,0.0
689,-0.11947856610867104,0.0
690,-0.003490120283756429,0.0
691,0.07695215268311825,0.0
692,0.0103523543776064,0.0
693,-0.058308141098499675,0.0
694,-0.04015123698152756,0.0
695,-0.007195137888767115,0.0
696,0.003791757809851938,0.0
697,-0.011794655213948773,0.0
698,-0.031466465922290604,0.0
699,0.04267360157756339,0.0
700,0.2927509564441316,0.0
701,4.71818256282701,0.0
702,4.65925902762757,0.0
703,-3.0837886317574155,0.0
704,1.5878293093624467,0.0
705,-0.7491924819968812,0.0
706,0.30929188198154983,0.0
707,-0.1120857454675399,0.0
708,-0.007675772000175357,0.0
709,-0.009103510935648547,0.0
710,0.062122841313237934,0.0
711,0.019056213492357477,0.0
712,-0.03090389470541555,0.0
713,-0.015272424874309732,0.0
714,0.0459568190806245,0.0
715,0.10413273328441874,0.0
716,0.1016355539836708,0.0
717,1.213920112549333,0.0
718,6.568117584342821,0.0
719,1.2278409392010252,0.0
720,-1.7528242345815799,0.0
721,1.1568616340351079,0.0
722,-0.5496637408830823,0.0
723,0.2631168699498548,0.0
724,-0.030783187752917204,0.0
725,0.022172363454360036,0.0
726,0.004502048176242631,0.0
727,0.003485649824676515,0.0
728,-0.036632252902564146,0.0
729,-0.14136972464825479,0.0
730,-0.1181737405765339,0.0
731,-0.05756852525443999,0.0
732,0.047711519538639224,0.0
733,0.10359356492644511,0.0
734,2.5827165610850193,0.0
735,6.822850100529415,0.0
736,-2.0850937233499667,0.0
737,0.4163231531167383,0.0
738,0.1225329453837151,0.0
739,-0.017181386558386056,0.0
740,0.044228233125411506,0.0
741,0.07215079240700575,0.0
742,0.04696985059268254,0.0
743,-0.012010902441251421,0.0
744,0.06392065203003972,0.0
745,0.04934779300939052,0.0
746,0.19343296253308065,0.0
747,0.009682044020413783,0.0
748,0.03878638592441195,0.0
749,0.0018743748039237451,0.0
750,0.3080695869041958,0.0
751,4.749737460366312,0.0
752,4.723882150022925,0.0
753,-2.941656683491741,0.0
754,1.5170415073198966,0.0
755,-0.747617960173067,0.0
756,0.3441034446393464,0.0
757,-0.12454551413150533,0.0
758,0.006171415800862001,0.0
759,0.11031913422932012,0.0
760,0.05651381414044405,0.0
761,0.07624282303952282,0.0
762,-0.04695355994456481,0.0
763,0.031201691930996023,0.0
764,0.05013445961601362,0.0
765,0.08871941559826238,0.0
766,0.03224300689831703,0.0
767,1.0801564307062181,0.0
768,6.659009920745213,0.0
769,1.2221231125387493,0.0
770,-1.6936229186926954,0.0
771,1.2744209461308493,0.0
772,-0.6498531744861764,0.0
773,0.3136411253550176,0.0
774,-0.03566105556275154,0.0
775,0.11345838454734461,0.0
776,0.023714477560684632,0.0
777,0.0011961010359600246,0.0
778,0.04717556897073513,0.0
779,0.027032682501860472,0.0
780,0.041200737306834184,0.0
781,0.0049369825288221175,0.0
782,0.011485551967607498,0.0
783,0.06988268776564174,0.0
784,2.7695752000699496,0.0
785,6.934993526510735,0.0
786,-1.9513003115751733,0.0
787,0.43138849629405196,0.0
788,0.06600781635457043,0.0
789,-0.037654700973312694,0.0
790,0.08704244847480816,0.0
791,0.014211781267515676,0.0
792,0.029847028329247093,0.0
793,0.12019236389868818,0.0
794,0.044809618598608554,0.0
795,0.06597985633912375,0.0
796,0.006126350967632026,0.0
797,0.1333388624825534,0.0
798,0.0161155001452329,0.0
799,0.0635566067550885,0.0
800,0.4003125384624004,0.0
801,4.903683013454093,0.0
802,4.773842985289109,0.0
803,-2.8986018208483455,0.0
804,1.5729430824266561,0.0
805,-0.6925638639889551,0.0
806,0.32084746347134174,0.0
807,0.020079103981543257,0.0
808,0.10376682754590988,0.0
809,0.08041227722072003,0.0
810,0.0520781456947811,0.0
811,0.0468636641092326,0.0
812,0.07617015569734455,0.0
813,0.08642513159651416,0.0
814,0.0003699747753288449,0.0
815,0.02466689965519778,0.0
816,0.10183348717799283,0.0
817,1.098169919490926,0.0
818,6.529613492958631,0.0
819,1.201846561012381,0.0
820,-1.8017272036839087,0.0
821,1.2525155865647237,0.0
822,-0.554858709995891,0.0
823,0.3009525220554413,0.0
824,-0.05414071069199252,0.0
825,0.05878451498768783,0.0
826,-0.016493768879755184,0.0
827,0.019244392739174866,0.0
828,0.012642370773875387,0.0
829,0.10412738263232948,0.0
830,-0.024136472127196947,0.0
831,0.011104988875827417,0.0
832,0.039582236829419394,0.0
833,0.04150234508052116,0.0
834,2.7116242781283044,0.0
835,6.799299834958224,0.0
836,-2.01675228191254,0.0
837,0.315687664319744,0.0
838,0.0894715031083441,0.0
839,0.020637262834449194,0.0
840,0.042333456568946846,0.0
841,0.032603186885150896,0.0
842,0.05232062781653751,0.0
843,0.04462854619309103,0.0
844,-0.05530768241577456,0.0
845,-0.025036988607760664,0.0
846,0.18195421289828972,0.0
847,-0.01334797890912489,0.0
848,-0.0138980655044725,0.0
849,0.05966400605578593,0.0
850,0.43172074513102915,0.0
851,4.884126186083702,0.0
852,4.679379388999419,0.0
853,-2.9800619048803645,0.0
854,1.6536330864938256,0.0
855,-0.7138229980571353,0.0
856,0.3068493154488635,0.0
857,-0.03426986925940938,0.0
858,0.060130674020125605,0.0
859,-0.03647997274004872,0.0
860,0.06395927477803473,0.0
861,0.04764516953145745,0.0
862,0.07923675155623419,0.0
863,-0.05304165606125625,0.0
864,0.08595566030648538,0.0
865,0.08901198095473623,0.0
866,-0.04101343156519066,0.0
867,1.1094977467207603,0.0
868,6.666424666288707,0.0
869,1.1551868700981713,0.0
870,-1.67315277611547,0.0
871,1.1398343741247436,0.0
872,-0.49690542707458185,0.0
873,0.20371384046763352,0.0
874,-0.07583071825274318,0.0
875,0.11269584248700815,0.0
876,-0.01601332907815612,0.0
877,0.02729046895221106,0.0
878,-0.05074419110352647,0.0
879,-0.034501884981592006,0.0
880,-0.024616632657316263,0.0
881,-0.014069523512019025,0.0
882,-0.059448505852129414,0.0
883,0.03648953894357596,0.0
884,2.702143120509101,0.0
885,6.859144916219827,0.0
886,-2.1180464717515015,0.0
887,0.3674473867988548,0.0
888,-0.023308710100210045,0.0
889,-0.07183560629632131,0.0
890,0.006926925619549886,0.0
891,-0.04399294969870712,0.0
892,-0.0839003557225574,0.0
893,-0.07501121094203127,0.0
894,0.027006606319501213,0.0
895,0.14002706600041512,0.0
896,0.027619594166561165,0.0
897,-0.005919413958972689,0.0
898,0.0013870631950615806,0.0
899,-0.03777235205018044,0.0
900,0.23294126074795876,0.0
901,4.881891359158036,0.0
902,4.592673584238899,0.0
903,-2.946910042089629,0.0
904,1.5567544134086853,0.0
905,-0.8368999816975579,0.0
906,0.2518655630462415,0.0
907,-0.1644849667913123,0.0
908,0.030996469545159444,0.0
909,0.06989909512482345,0.0
910,-0.030609654191847146,0.0
911,-0.05366451237083029,0.0
912,-0.0490947862375299,0.0
913,-0.032227491813870746,0.0
914,-0.051958490852863415,0.0
915,0.13998281451613082,0.0
916,0.006072654516079608,0.0
917,1.160680322158593,0.0
918,6.547996419344757,0.0
919,1.1523563479242231,0.0
920,-1.6967659568527766,0.0
921,1.0693882542632864,0.0
922,-0.6494685411629696,0.0
923,0.2630154058965185,0.0
924,-0.05298063807726474,0.0
925,-0.045888169822763926,0.0
926,0.04286997414661617,0.0
927,-0.06658528562981134,0.0
928,-0.07026497491618186,0.0
929,-0.03569245915805031,0.0
930,-0.06490363386628359,0.0
931,-0.03476294832379654,0.0
932,-0.0030047109483515924,0.0
933,0.03421459527034721,0.0
934,2.6983908988399845,0.0
935,6.726235150783806,0.0
936,-2.1413537539862664,0.0
937,0.46535348709507296,0.0
938,8.936687385406594e-06,0.0
939,-0.0289413139463726,0.0
940,-0.0814251706446619,0.0
941,-0.021153494412475687,0.0
942,-0.04452327399746264,0.0
943,-0.07032553411693732,0.0
944,-0.01906261245584296,0.0
945,0.03513245462781717,0.0
946,-0.031005530337444485,0.0
947,-0.0888034445942617,0.0
948,-0.00505213239733435,0.0
949,-0.0006494373312988903,0.0
950,0.3463846176763208,0.0
951,4.863006127435855,0.0
952,4.59221515495382,0.0
953,-2.960999854735035,0.0
954,1.5727641087242443,0.0
955,-0.7158145349807901,0.0
956,0.28642139814743584,0.0
957,-0.12539704313085864,0.0
958,0.0013402780054730702,0.0
959,-0.07317465040413754,0.0
960,-0.05946329327343739,0.0
961,0.0757834625585266,0.0
962,-0.08506062978131858,0.0
963,-0.08877153791743153,0.0
964,0.06151009725127132,0.0
965,0.014368792981515518,0.0
966,0.011480996155309684,0.0
967,1.1693690353601989,0.0
968,6.621905742212118,0.0
969,1.154467370405364,0.0
970,-1.713627693447132,0.0
971,1.1389009508270787,0.0
972,-0.682834431937708,0.0
973,0.2846192518866762,0.0
974,-0.06659270838127115,0.0
975,-0.010907108118864871,0.0
976,-0.01918227261434752,0.0
977,0.015184951669415985,0.0
978,-0.019377395685004888,0.0
979,-0.05026175063145655,0.0
980,-0.0367436183199488,0.0
981,-0.04649424629293561,0.0
982,-0.18368807998867182,0.0
983,0.09610975732694318,0.0
984,2.7387169312694053,0.0
985,6.788929506110492,0.0
986,-2.0784934709828358,0.0
987,0.47029842605282884,0.0
988,0.024633686663360563,0.0
989,0.07588168966317282,0.0
990,-0.00514535332034282,0.0
991,0.03986469002105707,0.0
992,0.031797489128426684,0.0
993,0.0177838342013609,0.0
994,0.019675769601169187,0.0
995,0.015956110447718032,0.0
996,0.06736720629467109,0.0
997,-0.06394822856703272,0.0
998,0.03412927372111803,0.0
999,-0.1436010872145622,0.0
1000,0.35804583637071496,0.0
1001,4.827617584710024,0.0
1002,4.583898614795412,0.0
1003,-3.0736699701387353,0.0
1004,1.569636653558428,0.0
1005,-0.7693569731367582,0.0
1006,0.21844028745218322,0.0
1007,-0.2228446002636683,0.0
1008,-0.04104552265571733,0.0
1009,-0.06373304101951276,0.0
1010,-0.06680462109765366,0.0
1011,-0.0995420423548494,0.0
1012,-0.0487889555611553,0.0
1013,-0.04149321106418122,0.0
1014,-0.03856855056053204,0.0
1015,0.05093401336845829,0.0
1016,-0.01959221962036523,0.0
1017,1.12761303108819,0.0
1018,6.662261647609465,0.0
1019,0.9912585072059792,0.0
1020,-1.6839825559154706,0.0
1021,1.0978387136192933,0.0
1022,-0.5190180562504846,0.0
1023,0.3959063971939797,0.0
1024,-0.057854244602093374,0.0
1025,0.05203657845477122,0.0
1026,-0.06007548730947397,0.0
1027,0.10380682469808382,0.0
1028,-0.04500079837142637,0.0
1029,-0.015489624906857631,0.0
1030,-0.044792247552997225,0.0
1031,0.04872058523427236,0.0
1032,0.06219736676687268,0.0
1033,0.1186195665474303,0.0
1034,2.829631016128141,0.0
1035,6.835790548562155,0.0
1036,-2.136730730562231,0.0
1037,0.5142210689695798,0.0
1038,0.08656548148812096,0.0
1039,-0.03280962828680355,0.0
1040,0.10501807831196805,0.0
1041,0.09831105667609517,0.0
1042,-0.06010598477628004,0.0
1043,0.09863233368772803,0.0
1044,0.06068383327355937,0.0
1045,-0.05171867492925982,0.0
1046,0.09296098635646094,0.0
1047,0.12344989903864803,0.0
1048,0.05827343703906271,0.0
1049,-0.017684659811250607,0.0
1050,0.4855236405321703,0.0
1051,4.933578949375788,0.0
1052,4.67045884024898,0.0
1053,-3.0697395663671854,0.0
1054,1.5856949829698783,0.0
1055,-0.7282806426028625,0.0
1056,0.31636459136691675,0.0
1057,-0.1461185480242738,0.0
1058,-0.008226494065590687,0.0
1059,0.028440894371631414,0.0
1060,-0.05964782346699922,0.0
1061,0.1203854855263801,0.0
1062,0.03474794945658057,0.0
1063,-0.10637762079521249,0.0
1064,0.11998088638653097,0.0
1065,0.012750894588273729,0.0
1066,-0.02988529461530258,0.0
1067,1.1839860678313587,0.0
1068,6.7078853740695354,0.0
1069,1.0524085730464159,0.0
1070,-1.7418033237662371,0.0
1071,1.2387025292815543,0.0
1072,-0.5188819480528998,0.0
1073,0.25497205713089843,0.0
1074,0.07274422084424931,0.0
1075,0.12967400754503916,0.0
1076,0.002587764238922839,0.0
1077,0.04380998314235782,0.0
1078,0.08463273045545969,0.0
1079,0.1033680590500927,0.0
1080,0.01903014047330638,0.0
1081,0.06455166263513851,0.0
1082,-0.07434606415208043,0.0
1083,0.17740520264293957,0.0
1084,2.8252429876992893,0.0
1085,6.749968368186674,0.0
1086,-2.20249173805901,0.0
1087,0.4444973650833172,0.0
1088,-0.020785366278748635,0.0
1089,-0.03852714465131023,0.0
1090,-0.04165621001367689,0.0
1091,-0.0748744080277305,0.0
1092,0.05997941789183223,0.0
1093,-0.022611919632221814,0.0
1094,-0.01438836596010364,0.0
1095,-0.007249624565314348,0.0
1096,0.019120797955299786,0.0
1097,0.0032941266722816215,0.0
1098,-0.07770894281889107,0.0
1099,0.027887800515895404,0.0
1100,0.42798609963020295,0.0
1101,4.887532080336503,0.0
1102,4.60049310015772,0.0
1103,-3.0573603094265125,0.0
1104,1.6676489322749943,0.0
1105,-0.8559933463076786,0.0
1106,0.2668615300517242,0.0
1107,-0.13355245793212578,0.0
1108,0.0984868682838953,0.0
1109,0.003347643242937532,0.0
1110,0.03857211497782281,0.0
1111,-0.0761780802937569,0.0
1112,0.011842347503084242,0.0
1113,-0.06261588298698656,0.0
1114,-0.05107414309552179,0.0
1115,-0.08022770896942652,0.0
1116,0.06010836323002735,0.0
1117,1.1084120992056348,0.0
1118,6.671492886889005,0.0
1119,1.0143545209954858,0.0
1120,-1.6500847929601223,0.0
1121,1.2093845473766853,0.0
1122,-0.5643041258454677,0.0
1123,0.2653899555354162,0.0
1124,-0.005187994773425603,0.0
1125,-0.006704419555009573,0.0
1126,-0.108201339323325,0.0
1127,0.04045031383288216,0.0
1128,0.0621398496980328,0.0
1129,-0.0017913853277299017,0.0
1130,-0.0288489605843394,0.0
1131,0.01561751577756558,0.0
1132,0.01292248537098183,0.0
1133,0.03211205861942285,0.0
1134,2.8226386462827655,0.0
1135,6.724802952084431,0.0
1136,-2.118607087149642,0.0
1137,0.4329178445733439,0.0
1138,-0.11168881410004985,0.0
1139,-0.05654399588590775,0.0
1140,-0.012494608472571486,0.0
1141,-0.09499705341002947,0.0
1142,0.038187419947870845,0.0
1143,-0.06665591820149437,0.0
1144,-0.03573273401144466,0.0
1145,-0.006928918062848226,0.0
1146,-0.0401413673749833,0.0
1147,-0.011013537537529705,0.0
1148,0.03368526787436876,0.0
1149,-0.14123102499033743,0.0
1150,0.39683095383581246,0.0
1151,4.805582570973318,0.0
1152,4.510547835965971,0.0
1153,-2.9586122267631967,0.0
1154,1.5408594767766302,0.0
1155,-0.852843167437256,0.0
1156,0.36190356215617603,0.0
1157,-0.11284947981179022,0.0
1158,0.004307936641109209,0.0
1159,-0.07873915314291698,0.0
1160,-0.03203458676578938,0.0
1161,-0.048460588569826095,0.0
1162,0.014471044346764432,0.0
1163,0.02216455429246566,0.0
1164,-0.07072302807342581,0.0
1165,0.02520683516354193,0.0
1166,-0.06444351075317829,0.0
1167,1.1840293613740394,0.0
1168,6.522470218209923,0.0
1169,0.9237251908288453,0.0
1170,-1.7154565867909184,0.0
1171,1.0587035204087896,0.0
1172,-0.5974745681706702,0.0
1173,0.1141259829055645,0.0
1174,-0.17610571965392197,0.0
1175,-0.15971348442171318,0.0
1176,-0.11935604609903286,0.0
1177,-0.11274154327351397,0.0
1178,-0.16510233164069388,0.0
1179,-0.23179693880676489,0.0
1180,-0.21125395013389572,0.0
1181,-0.22074879896887875,0.0
1182,-0.15684287889417403,0.0
1183,-0.11159563407219363,0.0
1184,2.5701742395752594,0.0
1185,6.610744928998222,0.0
1186,-2.295079032782715,0.0
1187,0.3376155732976292,0.0
1188,-0.14120820944072082,0.0
1189,-0.0702306838939196,0.0
1190,0.004387814435590068,0.0
1191,-0.13806786989589204,0.0
1192,-0.12157760941046704,0.0
1193,-0.04300630205422024,0.0
1194,0.03647591871541514,0.0
1195,-0.08067488151194974,0.0
1196,-0.1328420974767882,0.0
1197,-0.013904003903522446,0.0
1198,-0.09073962895464419,0.0
1199,-0.06974769540044236,0.0
1200,0.24876131351866326,0.0
1201,4.80909589167942,0.0
1202,4.490562023816845,0.0
1203,-3.0904912053947418,0.0
1204,1.4913542576112013,0.0
1205,-0.9083243888974798,0.0
1206,0.19829961945443264,0.0
1207,-0.18108008466081388,0.0
1208,-0.09459750836558012,0.0
1209,-0.0460599636796338,0.0
1210,-0.03179303303156235,0.0
1211,-0.04156270310522957,0.0
1212,-0.12675159885996415,0.0
1213,-0.044433841254092936,0.0
1214,0.020441540839190617,0.0
1215,-0.007172421969475264,0.0
1216,-0.0664096578429188,0.0
1217,1.243934274279729,0.0
1218,6.642838823899973,0.0
1219,0.9118992456632543,0.0
1220,-1.633536333269454,0.0
1221,1.0859261934854878,0.0
1222,-0.6345549612107387,0.0
1223,0.16582621179021959,0.0
1224,-0.06002801278480692,0.0
1225,-0.06434242372518187,0.0
1226,-0.06654595092291934,0.0
1227,-0.009936244529804725,0.0
1228,-0.03189597331270094,0.0
1229,0.015362084858578554,0.0
1230,0.008657521693254844,0.0
1231,-0.047315820500105625,0.0
1232,-0.05626054216302752,0.0
1233,0.00669330647336901,0.0
1234,2.7030301800003707,0.0
1235,6.700899480025743,0.0
1236,-2.181401685645828,0.0
1237,0.4489503672767323,0.0
1238,-0.06726624726205549,0.0
1239,-0.03993912329022811,0.0
1240,-0.07698894980740045,0.0
1241,-0.10628899013008705,0.0
1242,-0.012444170344524382,0.0
1243,-0.0563312295629972,0.0
1244,-0.0438523120024336,0.0
1245,-0.04935209678165147,0.0
1246,-0.011961432061620939,0.0
1247,-0.0012421138718616068,0.0
1248,-0.011082555328939439,0.0
1249,-0.021699168830846362,0.0
1250,0.2639177763076963,0.0
1251,4.825588719710326,0.0
1252,4.526258058079852,0.0
1253,-3.0173465858197237,0.0
1254,1.5525492639918963,0.0
1255,-0.8026044332925335,0.0
1256,0.2593784505119819,0.0
1257,-0.12607128572360085,0.0
1258,0.024040530092262136,0.0
1259,-0.02994298821551205,0.0
1260,-0.05379703999779692,0.0
1261,-0.02278887927005217,0.0
1262,-0.03053245088505015,0.0
1263,0.01488368764849285,0.0
1264,0.013367150759806934,0.0
1265,0.029271094337000075,0.0
1266,0.014531970041185678,0.0
1267,1.1803703712701128,0.0
1268,6.616681604154091,0.0
1269,0.9461543419057898,0.0
1270,-1.55598204737449,0.0
1271,1.1335169602094062,0.0
1272,-0.5626734819611303,0.0
1273,0.15881116591881192,0.0
1274,-0.04371859214869314,0.0
1275,0.03739792943089559,0.0
1276,-0.031838896646141826,0.0
1277,-0.013039280284878016,0.0
1278,-0.0867894402236982,0.0
1279,0.029382419321374458,0.0
1280,-0.06722649576160225,0.0
1281,0.033282624852465637,0.0
1282,-0.0583135640124038,0.0
1283,0.011911890805619123,0.0
1284,2.7916299354217764,0.0
1285,6.694721988204053,0.0
1286,-2.1067152279275216,0.0
1287,0.5237976937447208,0.0
1288,-0.02424719051718971,0.0
1289,0.04723517960654476,0.0
1290,0.07255022157252936,0.0
1291,-0.04075548879604346,0.0
1292,-0.029738368666918223,0.0
1293,0.12036303729007619,0.0
1294,-0.023419716249778413,0.0
1295,-0.007846889746594945,0.0
1296,0.02236982964380736,0.0
1297,0.037635054603990595,0.0
1298,-0.029961223756168602,0.0
1299,-0.00471762731288123,0.0
1300,0.28368044344486865,0.0
1301,4.891218352095762,0.0
1302,4.390283039401395,0.0
1303,-2.9477846428671888,0.0
1304,1.5362100665742457,0.0
1305,-0.7146035457215828,0.0
1306,0.3554007173070026,0.0
1307,-0.15166783765872635,0.0
1308,0.04442324769837307,0.0
1309,0.09498679413828715,0.0
1310,0.05232934623957934,0.0
1311,0.078786797851784,0.0
1312,-0.07841660426948745,0.0
1313,-0.0396569149436087,0.0
1314,-0.0330994055287011,0.0
1315,-0.11946471459767728,0.0
1316,0.012824342908779582,0.0
1317,1.1267103131749987,0.0
1318,6.584822522816637,0.0
1319,0.9452056084741113,0.0
1320,-1.686756978359276,0.0
1321,0.9795577606003416,0.0
1322,-0.6701107043401409,0.0
1323,0.1087887322168289,0.0
1324,-0.1875824708898108,0.0
1325,-0.02400401199930932,0.0
1326,-0.06044803969930771,0.0
1327,-0.0011968239204852363,0.0
1328,0.002037546469949955,0.0
1329,-0.09569766393856265,0.0
1330,-0.09017216109854571,0.0
1331,-0.006790476340201865,0.0
1332,0.05814482619306443,0.0
1333,0.0851841495983552,0.0
1334,2.9039151402673347,0.0
1335,6.71616764986551,0.0
1336,-2.111386965738211,0.0
1337,0.5662146289319407,0.0
1338,-0.09925881462933328,0.0
1339,-0.02567411458820556,0.0
1340,0.0355665208825843,0.0
1341,0.03687941038135387,0.0
1342,0.0824479621246085,0.0
1343,0.017614757421135878,0.0
1344,0.06460618226815298,0.0
1345,0.0498215450217763,0.0
1346,0.041443658762734405,0.0
1347,0.11465082797362297,0.0
1348,-0.041556149782675245,0.0
1349,-0.05105202178106772,0.0
1350,0.39861287114288646,0.0
1351,5.043748064662903,0.0
1352,4.524218796681959,0.0
1353,-2.9377591643855316,0.0
1354,1.582509992898918,0.0
1355,-0.7014515413952251,0.0
1356,0.3537958319576365,0.0
1357,-0.14906322442811687,0.0
1358,0.012381278228065846,0.0
1359,-0.030501871240189347,0.0
1360,-0.027210418948251727,0.0
1361,0.07576225167459316,0.0
1362,0.10723003323405202,0.0
1363,0.003739732510744706,0.0
1364,0.08337535144177005,0.0
1365,0.060229676962906965,0.0
1366,0.04796408866064071,0.0
1367,1.2739200847623386,0.0
1368,6.720832127767988,0.0
1369,0.8937382083935332,0.0
1370,-1.5376257595522969,0.0
1371,1.1878569797393324,0.0
1372,-0.5347590387666363,0.0
1373,0.26737317229809787,0.0
1374,0.002439898750898978,0.0
1375,0.02461130520491142,0.0
1376,0.0857758949686334,0.0
1377,0.05757880492946185,0.0
1378,0.004805695822591029,0.0
1379,-0.0007821868811282578,0.0
1380,0.10028146591692666,0.0
1381,-0.017543383449271657,0.0
1382,0.07747100011060647,0.0
1383,0.07472219011434056,0.0
1384,2.849219182619797,0.0
1385,6.753987979050297,0.0
1386,-2.1699842527139865,0.0
1387,0.5902997494765765,0.0
1388,-0.024754160044610486,0.0
1389,-0.0242975714687542,0.0
1390,0.02117209101251615,0.0
1391,0.041042669471380896,0.0
1392,-0.11118333441101501,0.0
1393,-0.047151496480053096,0.0
1394,-0.014287443453808711,0.0
1395,-0.05721104893004748,0.0
1396,0.04139876302279974,0.0
1397,-0.02683001450241106,0.0
1398,-0.07327225052783175,0.0
1399,-0.013182035809600444,0.0
1400,0.39034905198713005,0.0
1401,4.956796205116901,0.0
1402,4.477934844420767,0.0
1403,-2.982497995292583,0.0
1404,1.5714818548299954,0.0
1405,-0.7497021364885346,0.0
1406,0.29414447353883816,0.0
1407,-0.27880274497271873,0.0
1408,-0.13831367789520765,0.0
1409,-0.1424140827888411,0.0
1410,-0.05598632417299987,0.0
1411,-0.11913949366746707,0.0
1412,-0.22113863144334947,0.0
1413,-0.07112624317101106,0.0
1414,-0.1482749921024408,0.0
1415,-0.09123654212094158,0.0
1416,-0.17827228133094164,0.0
1417,1.1167707346286284,0.0
1418,6.611703344804321,0.0
1419,0.8577479725041334,0.0
1420,-1.5618317784548843,0.0
1421,1.0692706466611126,0.0
1422,-0.5233044669256919,0.0
1423,0.21863793795600744,0.0
1424,-0.08697791372955271,0.0
1425,0.021710324593054494,0.0
1426,-0.007354251064382714,0.0
1427,-0.01587945365809856,0.0
1428,0.000920031732748806,0.0
1429,0.05142344487961985,0.0
1430,-3.1106082982556085e-05,0.0
1431,-0.06322103355259756,0.0
1432,0.050521133031127485,0.0
1433,-0.019346550196262857,0.0
1434,2.8151095655702143,0.0
1435,6.559259057297215,0.0
1436,-2.224256615865102,0.0
1437,0.5395484905812327,0.0
1438,-0.11881808119393264,0.0
1439,-0.07798692941618846,0.0
1440,-0.08330721744877603,0.0
1441,-0.059385766034402585,0.0
1442,0.011376526831073586,0.0
1443,0.03959175710351862,0.0
1444,-0.04029474135634122,0.0
1445,0.023684577945682683,0.0
1446,-0.04427174858309188,0.0
1447,0.011732828851193935,0.0
1448,-0.02206888239137694,0.0
1449,0.033000567579398635,0.0
1450,0.27257022575531287,0.0
1451,5.019942448443465,0.0
1452,4.27709136692386,0.0
1453,-2.9915701366877463,0.0
1454,1.5315189267703517,0.0
1455,-0.8733709170816849,0.0
1456,0.2691468474453528,0.0
1457,-0.07125521354082354,0.0
1458,-0.025386773219330354,0.0
1459,-0.043948403591711205,0.0
1460,-0.073086835185107,0.0
1461,-0.06500819626098239,0.0
1462,0.014781440372023277,0.0
1463,0.07199941440080158,0.0
1464,-0.015537778546952631,0.0
1465,-0.03990609929187001,0.0
1466,-0.04107301476235084,0.0
1467,1.1438404944166611,0.0
1468,6.686575460646914,0.0
1469,0.8173347804015603,0.0
1470,-1.5654964429167337,0.0
1471,1.045276050979131,0.0
1472,-0.5274469813634876,0.0
1473,0.19331417584604083,0.0
1474,-0.09626963702356024,0.0
1475,0.02727818512265462,0.0
1476,-0.07365743266324744,0.0
1477,-0.07246685631877472,0.0
1478,-0.0854985155098626,0.0
1479,-0.010744060092008595,0.0
1480,-0.0744076426633282,0.0
1481,-0.006357987008027713,0.0
1482,-0.05153425790058223,0.0
1483,-0.008122949845896357,0.0
1484,2.775612202015964,0.0
1485,6.683406922639356,0.0
1486,-2.3113025836225582,0.0
1487,0.46956573128900725,0.0
1488,-0.047806920892199595,0.0
1489,-0.03587088596076484,0.0
1490,-0.09027362474482797,0.0
1491,-0.032742102614931004,0.0
1492,-0.07879257788758612,0.0
1493,-0.11522474619009301,0.0
1494,-0.11199321622430113,0.0
1495,-0.03945784568486812,0.0
1496,-0.04850068290550641,0.0
1497,-0.04938877634024483,0.0
1498,-0.011362830658623788,0.0
1499,-0.06550738020422314,0.0
1500,0.3747446482893803,0.0
1501,4.950618172059084,0.0
1502,4.3729627778151965,0.0
1503,-3.000809612610188,0.0
1504,1.6190178485191338,0.0
1505,-0.9065957259090641,0.0
1506,0.33319452840899816,0.0
1507,-0.1582746753096902,0.0
1508,0.0780407605268608,0.0
1509,-0.06559241078924549,0.0
1510,-0.09006085404143263,0.0
1511,0.0016474942053530325,0.0
1512,-0.009688543811056907,0.0
1513,0.02602595114379591,0.0
1514,-0.05384524506975427,0.0
1515,-0.05527157587818171,0.0
1516,0.08822920178781139,0.0
1517,1.2056116625199724,0.0
1518,6.696094372864707,0.0
1519,0.7751985990600736,0.0
1520,-1.4723120374229448,0.0
1521,1.0515116839539977,0.0
1522,-0.486581580528448,0.0
1523,0.26034411450046485,0.0
1524,-0.04125724924026268,0.0
1525,0.10105616172637902,0.0
1526,-0.009740769723911916,0.0
1527,0.07032643426652624,0.0
1528,0.037525268171752627,0.0
1529,0.0053465412394188075,0.0
1530,-0.018674858585280694,0.0
1531,0.019573037440459472,0.0
1532,-0.0746003227121322,0.0
1533,0.11884521648045637,0.0
1534,2.9302735422898847,0.0
1535,6.643021423623134,0.0
1536,-2.345223492500036,0.0
1537,0.4119021273305721,0.0
1538,-0.1805094929060227,0.0
1539,-0.09496672999555422,0.0
1540,-0.029533865413776714,0.0
1541,-0.017903305658591058,0.0
1542,-0.0740608433975219,0.0
1543,0.03191898326857205,0.0
1544,-0.02655052999595513,0.0
1545,-0.050636286065180364,0.0
1546,-0.09691680217810812,0.0
1547,-0.03301011385154951,0.0
1548,0.02108642113597176,0.0
1549,0.011194533371066157,0.0
1550,0.4741240213369564,0.0
1551,4.996851943502617,0.0
1552,4.3711112617443995,0.0
1553,-2.9037174518105147,0.0
1554,1.5500517810497334,0.0
1555,-0.8080183645497904,0.0
1556,0.2911780201201742,0.0
1557,-0.09990878296194752,0.0
1558,-0.03343011121555896,0.0
1559,-0.05406974354056165,0.0
1560,-0.11110835478960387,0.0
1561,0.006403721567611695,0.0
1562,0.07207396271961769,0.0
1563,-0.16335424234068552,0.0
1564,0.04903687287542924,0.0
1565,-0.05238035827120399,0.0
1566,-0.035699237411774394,0.0
1567,1.2181924005288518,0.0
1568,6.670705256233248,0.0
1569,0.6892700568916112,0.0
1570,-1.5937388592183817,0.0
1571,1.0498508539935267,0.0
1572,-0.5387729267266296,0.0
1573,0.19075243809350328,0.0
1574,-0.04039537295683608,0.0
1575,-0.016171618326029737,0.0
1576,-0.118253431044095,0.0
1577,-0.03388644591465516,0.0
1578,-0.02269144975035292,0.0
1579,-0.04307048501458274,0.0
1580,-0.08322049104289593,0.0
1581,0.07055176042354953,0.0
1582,-0.09743372714453974,0.0
1583,-0.040765818201320525,0.0
1584,2.8006013586940575,0.0
1585,6.62140395219501,0.0
1586,-2.3449936491094325,0.0
1587,0.5254943141149594,0.0
1588,-0.15035749319313954,0.0
1589,-0.05472492386909887,0.0
1590,-0.09644296497255733,0.0
1591,-0.043477264571073836,0.0
1592,-0.038747936422276814,0.0
1593,-0.05893870795822353,0.0
1594,-0.036544422732419195,0.0
1595,-0.008665830894292507,0.0
1596,-0.09525672832770202,0.0
1597,-0.06354333576990624,0.0
1598,0.016731395144934658,0.0
1599,0.0008536500849446946,0.0
1600,0.23339908416319544,0.0
1601,4.895917959550057,0.0
1602,4.350444213500295,0.0
1603,-3.033563836231166,0.0
1604,1.5597580969564877,0.0
1605,-0.8841552150553372,0.0
1606,0.31207657320792975,0.0
1607,-0.138465305186244,0.0
1608,-0.05460982948107703,0.0
1609,-0.10451260847207247,0.0
1610,-0.04824646326741443,0.0
1611,0.021984535469440958,0.0
1612,0.07167222160771379,0.0
1613,-0.052669742682189116,0.0
1614,-0.037975938307439394,0.0
1615,-0.06858687212996928,0.0
1616,0.0029315989743135193,0.0
1617,1.2069434213576629,0.0
1618,6.656390115517542,0.0
1619,0.7443866115274153,0.0
1620,-1.582091256068931,0.0
1621,1.0033641394003476,0.0
1622,-0.6063207827575902,0.0
1623,0.10920522764890638,0.0
1624,-0.09941111218998143,0.0
1625,0.14529440463239968,0.0
1626,-0.09957046534205027,0.0
1627,-0.11242275564530031,0.0
1628,-0.10372090898585279,0.0
1629,-0.017696534095231267,0.0
1630,-0.13680138851547385,0.0
1631,-0.04145603767472187,0.0
1632,-0.01584102558455157,0.0
1633,-0.09228940249800771,0.0
1634,2.8417512855727045,0.0
1635,6.597435632299039,0.0
1636,-2.4627518492627773,0.0
1637,0.5471338774865524,0.0
1638,-0.13657138695133222,0.0
1639,-0.09951477973994778,0.0
1640,-0.10166058533237363,0.0
1641,-0.0019941014794543216,0.0
1642,-0.06766799743230831,0.0
1643,-0.18625334549345296,0.0
1644,-0.09685629095507865,0.0
1645,-0.15246593557982366,0.0
1646,-0.08496433878942498,0.0
1647,-0.04438876322162391,0.0
1648,-0.08975016641330653,0.0
1649,-0.0834073402136026,0.0
1650,0.3584497950774281,0.0
1651,4.875576003969639,0.0
1652,4.2707997138015825,0.0
1653,-3.021851417812269,0.0
1654,1.5767594259355118,0.0
1655,-0.8869319718019666,0.0
1656,0.27357231080632083,0.0
1657,-0.16508767627459545,0.0
1658,-0.012726192374687605,0.0
1659,-0.03745458657203525,0.0
1660,-0.09882720396155614,0.0
1661,-0.09435286604622484,0.0
1662,-0.12195921626069636,0.0
1663,-0.018828333262351865,0.0
1664,-0.09713856682346249,0.0
1665,0.011276564482471413,0.0
1666,-0.04486208485202028,0.0
1667,1.2675302918059266,0.0
1668,6.59994747294899,0.0
1669,0.6923221406889317,0.0
1670,-1.508436200518874,0.0
1671,0.9494750355663542,0.0
1672,-0.5543233993288269,0.0
1673,0.17780626698607627,0.0
1674,-0.05692289418701313,0.0
1675,-0.10215225172496512,0.0
1676,0.012507083881415693,0.0
1677,-0.11685976959009586,0.0
1678,-0.09665339536409057,0.0
1679,-0.06129472846649761,0.0
1680,-0.1463478959641226,0.0
1681,-0.06689176507244025,0.0
1682,-0.04755456126621461,0.0
1683,-0.024783045980098298,0.0
1684,2.8984352876625477,0.0
1685,6.588032857539278,0.0
1686,-2.3689699948048157,0.0
1687,0.5112222638504288,0.0
1688,-0.25822148484744345,0.0
1689,-0.058365576961224776,0.0
1690,-0.01548051962368683,0.0
1691,-0.080112984314446,0.0
1692,-0.0159489292605262,0.0
1693,-0.08123212564976501,0.0
1694,-0.14951444972122985,0.0
1695,0.028705986337253575,0.0
1696,-0.10172004220955247,0.0
1697,-0.02403383596883782,0.0
1698,-0.008296289131385304,0.0
1699,-0.07199982962330645,0.0
1700,0.28388847230284897,0.0
1701,4.945518229253654,0.0
1702,4.337290481193828,0.0
1703,-2.9666419396473223,0.0
1704,1.6081011589614682,0.0
1705,-0.7533047642535203,0.0
1706,0.2566812911933779,0.0
1707,-0.2018999691401977,0.0
1708,0.007652726765665285,0.0
1709,0.0202845766664157,0.0
1710,0.005397880513027493,0.0
1711,-0.08547499326360057,0.0
1712,0.011068661532425673,0.0
1713,-0.006514988041510079,0.0
1714,-0.07799525549413996,0.0
1715,-0.04894601147162253,0.0
1716,-0.04219360009862509,0.0
1717,1.1798136540362567,0.0
1718,6.667114467174288,0.0
1719,0.6766933630224822,0.0
1720,-1.5097326644563471,0.0
1721,1.0247314837076724,0.0
1722,-0.6308126059200174,0.0
1723,0.0909326803520231,0.0
1724,-0.09191474155941048,0.0
1725,0.004023500194764199,0.0
1726,-0.15953194586250882,0.0
1727,-0.021430224144271162,0.0
1728,0.019298345191353497,0.0
1729,0.022831586400722827,0.0
1730,0.0107630175051334,0.0
1731,-0.04944499839689721,0.0
1732,-0.07951231845673958,0.0
1733,0.0018567089281129288,0.0
1734,2.7340341662882723,0.0
1735,6.640051293466398,0.0
1736,-2.3540848980557945,0.0
1737,0.5953154970644331,0.0
1738,-0.12211455577946298,0.0
1739,0.0764657059568015,0.0
1740,-0.0134756657748406,0.0
1741,-0.07183074733525903,0.0
1742,0.00970797587556052,0.0
1743,0.03715876950872352,0.0
1744,-0.10105200753457486,0.0
1745,-0.10489365283518244,0.0
1746,-0.03231373168320785,0.0
1747,-0.11660117699572087,0.0
1748,0.018611686829540536,0.0
1749,-0.0500442193822359,0.0
1750,0.338116976123832,0.0
1751,5.079268651903504,0.0
1752,4.274584879923758,0.0
1753,-2.957046493372502,0.0
1754,1.5422287865471922,0.0
1755,-0.8735814597993152,0.0
1756,0.329022705917874,0.0
1757,-0.08350672876906515,0.0
1758,0.09888709489558167,0.0
1759,0.008350281400606029,0.0
1760,-0.08278257528756548,0.0
1761,-0.05543792860594703,0.0
1762,-0.05490954382101471,0.0
1763,-0.0016321883760026627,0.0
1764,-0.03355403779211477,0.0
1765,-0.03389437139482253,0.0
1766,-0.029151887475376087,0.0
1767,1.205246569201807,0.0
1768,6.7389059307715975,0.0
1769,0.6805315808028992,0.0
1770,-1.517665652359296,0.0
1771,1.0717537702871394,0.0
1772,-0.5242065539307871,0.0
1773,0.27344452881675646,0.0
1774,-0.1384122534019658,0.0
1775,-0.008137963130638325,0.0
1776,-0.04610823294888434,0.0
1777,-0.03972660373193309,0.0
1778,0.0487955082699803,0.0
1779,0.027893229981653958,0.0
1780,-0.02779177614544283,0.0
1781,0.02712051018436299,0.0
1782,0.05390157533934846,0.0
1783,-0.015214956474321674,0.0
1784,2.9604897270849437,0.0
1785,6.714328507871818,0.0
1786,-2.3301253490455904,0.0
1787,0.5821297553906769,0.0
1788,-0.06960815044376806,0.0
1789,0.0211675789620741,0.0
1790,0.028241366139615625,0.0
1791,0.0733175817577136,0.0
1792,0.057146699250358556,0.0
1793,0.02047501573239047,0.0
1794,-0.018820898300346396,0.0
1795,-0.03419232584670773,0.0
1796,-0.11585028370863285,0.0
1797,-0.18740299314287479,0.0
1798,-0.13524092690700795,0.0
1799,-0.02485315759044468,0.0
1800,0.22682564532921773,0.0
1801,4.896840213838227,0.0
1802,4.166457648949644,0.0
1803,-3.0004382580777067,0.0
1804,1.5386539655707248,0.0
1805,-0.8782186488521306,0.0
1806,0.2475182823332987,0.0
1807,-0.07627081050407772,0.0
1808,0.034197963595631924,0.0
1809,0.05206130371323774,0.0
1810,0.0489383015077333,0.0
1811,-0.010538892751663441,0.0
1812,0.06084736589615514,0.0
1813,0.15741567908414392,0.0
1814,0.07997861894851754,0.0
1815,0.08414086089939597,0.0
1816,-0.023870209101318984,0.0
1817,1.401870830136985,0.0
1818,6.76373729138366,0.0
1819,0.6916250921348114,0.0
1820,-1.5079721023624506,0.0
1821,0.9845248490207247,0.0
1822,-0.5055442233759204,0.0
1823,0.22329309727868857,0.0
1824,-0.08851846581209112,0.0
1825,0.000755025008355413,0.0
1826,0.028819502776457385,0.0
1827,0.08400766186648755,0.0
1828,0.03417685005103285,0.0
1829,-0.09443128958245597,0.0
1830,0.07325141904694078,0.0
1831,-0.01354571050178922,0.0
1832,0.04861063381898849,0.0
1833,0.01991368245388716,0.0
1834,2.9687895873199612,0.0
1835,6.6115198600273635,0.0
1836,-2.329435322926235,0.0
1837,0.6266435892454754,0.0
1838,-0.09415530458282168,0.0
1839,-0.033543681043254545,0.0
1840,-0.012711819584525316,0.0
1841,-0.00865354526583596,0.0
1842,-0.11945070115626369,0.0
1843,0.01628358755262789,0.0
1844,0.02601024324700122,0.0
1845,-0.06419826033700243,0.0
1846,-0.0618949545345982,0.0
1847,-0.07020441417769038,0.0
1848,-0.132557658513483,0.0
1849,0.030668683342475318,0.0
1850,0.46459134484722037,0.0
1851,5.18969095811776,0.0
1852,4.288794708980331,0.0
1853,-2.8880360727612016,0.0
1854,1.6762293733468778,0.0
1855,-0.8014786383034855,0.0
1856,0.30570195281557155,0.0
1857,-0.10275035057437434,0.0
1858,0.15882780215892664,0.0
1859,0.01188850202921863,0.0
1860,-0.007520856814604328,0.0
1861,0.04710939059832016,0.0
1862,0.08455264739909057,0.0
1863,0.17964447864547384,0.0
1864,-0.021038419495708005,0.0
1865,-0.00341355765090115,0.0
1866,0.052888266864188724,0.0
1867,1.3210601838322953,0.0
1868,6.703837728133819,0.0
1869,0.7632745752830931,0.0
1870,-1.4227716481514834,0.0
1871,1.1504836499613127,0.0
1872,-0.5554462823780676,0.0
1873,0.3244605124148015,0.0
1874,-0.10419526546988403,0.0
1875,0.03631524677423706,0.0
1876,-0.005070136319798076,0.0
1877,0.06768127083684841,0.0
1878,-0.001724959903321291,0.0
1879,0.03365945281977051,0.0
1880,-0.008959579367217984,0.0
1881,0.033297247724566686,0.0
1882,0.0270709797771476,0.0
1883,0.11582601483152301,0.0
1884,2.9168075498615615,0.0
1885,6.641439500596097,0.0
1886,-2.37015804297954,0.0
1887,0.7456388201988515,0.0
1888,-0.11724027867925163,0.0
1889,0.03283622775658658,0.0
1890,0.09207320148750348,0.0
1891,0.02259922607387391,0.0
1892,0.007770131099805562,0.0
1893,-0.06397615464731954,0.0
1894,-0.015556462953314839,0.0
1895,0.030152877907276845,0.0
1896,-0.08674376066450276,0.0
1897,-0.11507953776589644,0.0
1898,-0.09223120896602133,0.0
1899,-0.17573666018900078,0.0
1900,0.3775238821232464,0.0
1901,5.03564111488326,0.0
1902,4.185758438624834,0.0
1903,-3.0073829641037952,0.0
1904,1.5178553345947743,0.0
1905,-0.8484830711089163,0.0
1906,0.3808143421641663,0.0
1907,-0.1640851515870647,0.0
1908,-0.08340739060770869,0.0
1909,0.044012197267379934,0.0
1910,-0.021238859342204545,0.0
1911,0.10491249442925092,0.0
1912,-0.01651858405133598,0.0
1913,0.07688378165690159,0.0
1914,0.06400448491528662,0.0
1915,0.13946036891003952,0.0
1916,0.03159507040112801,0.0
1917,1.3298126428090327,0.0
1918,6.859120170931425,0.0
1919,0.6227498833740078,0.0
1920,-1.3347102724266149,0.0
1921,1.0528433331848555,0.0
1922,-0.4649260078474072,0.0
1923,0.23476869149088042,0.0
1924,-0.15626893674175762,0.0
1925,-0.03221920247578981,0.0
1926,0.024608107137947345,0.0
1927,0.10933020456404004,0.0
1928,-0.009211919261655961,0.0
1929,-0.028918642924395086,0.0
1930,0.026075330752459613,0.0
1931,0.046554727171873055,0.0
1932,0.0028963496612892,0.0
1933,0.0681290276885427,0.0
1934,2.9220748185014918,0.0
1935,6.583036529316681,0.0
1936,-2.343566102377978,0.0
1937,0.625899626952506,0.0
1938,-0.11990228138190487,0.0
1939,0.07608188363753589,0.0
1940,0.07155957878199784,0.0
1941,0.04595629826809563,0.0
1942,0.12034277859285315,0.0
1943,0.1276067939743895,0.0
1944,0.04891451512737333,0.0
1945,0.08425519354441649,0.0
1946,0.021592249037310066,0.0
1947,0.03518971464869777,0.0
1948,0.01936674919034029,0.0
1949,0.09521522278498745,0.0
1950,0.4794722577184899,0.0
1951,5.174921365476142,0.0
1952,4.250038787721699,0.0
1953,-2.9064151247384333,0.0
1954,1.6450649057922833,0.0
1955,-0.8055723745419938,0.0
1956,0.24857667438915382,0.0
1957,-0.07054886974532523,0.0
1958,0.1523377209812288,0.0
1959,0.060559765769250526,0.0
1960,0.04562289199047912,0.0
1961,0.09262333532764701,0.0
1962,0.08820065217969517,0.0
1963,0.03376553029194375,0.0
1964,-0.0030352782306293305,0.0
1965,0.022517833317764205,0.0
1966,0.03482820444676586,0.0
1967,1.3424051846868776,0.0
1968,6.716679710505489,0.0
1969,0.6448787053431169,0.0
1970,-1.360392959328642,0.0
1971,1.1000020190094606,0.0
1972,-0.4956286822934036,0.0
1973,0.25708713888020573,0.0
1974,-0.008738490075915813,0.0
1975,0.012751986126517553,0.0
1976,-0.010577448936909192,0.0
1977,0.07774561149945394,0.0
1978,0.010989493745182977,0.0
1979,-0.047620308653709975,0.0
1980,0.04060074955321022,0.0
1981,0.016345652410966242,0.0
1982,0.028559241267936065,0.0
1983,0.11712885479666407,0.0
1984,2.9650126438124764,0.0
1985,6.638336675679821,0.0
1986,-2.361447106466982,0.0
1987,0.7829381108921849,0.0
1988,-0.12592991513990087,0.0
1989,-0.05079863726265844,0.0
1990,0.0017599505928698328,0.0
1991,-0.014268226732361035,0.0
1992,0.06170819669514938,0.0
1993,0.05159886321079071,0.0
1994,-0.023283507814135868,0.0
1995,-0.07419963059939132,0.0
1996,-0.09271077601818183,0.0
1997,0.0028515202753244683,0.0
1998,-0.04532667098548138,0.0
1999,0.059475046569295226,0.0
2000,0.421777106065511,0.0
2001,5.212137081387187,0.0
2002,4.1872368025459705,0.0
2003,-2.906866128142143,0.0
2004,1.5829802280269984,0.0
2005,-0.7344554605978417,0.0
2006,0.34211480031984,0.0
2007,-0.17246948609811447,0.0
2008,0.08823075319501933,0.0
2009,0.014754014650548621,0.0
2010,0.08357271370000181,0.0
2011,0.03967581054337986,0.0
2012,0.008056720732483254,0.0
2013,-0.048599800565867705,0.0
2014,0.013898347409493087,0.0
2015,0.05529232918105398,0.0
2016,0.08268693524635283,0.0
2017,1.343421209090664,0.0
2018,6.822703867634297,0.0
2019,0.5853155207134468,0.0
2020,-1.4741395193561542,0.0
2021,0.9640322299491497,0.0
2022,-0.6175165059627262,0.0
2023,0.17010231532007047,0.0
2024,-0.10308191571900269,0.0
2025,0.05101992611733604,0.0
2026,0.014734663609076045,0.0
2027,-0.0424680940832954,0.0
2028,-0.03213110709379169,0.0
2029,0.09281362603658674,0.0
2030,0.07950761002943768,0.0
2031,0.01326419265377669,0.0
2032,0.04780969914614301,0.0
2033,0.06753434436077015,0.0
2034,3.032216951091721,0.0
2035,6.540372836958391,0.0
2036,-2.4637222814386734,0.0
2037,0.6808791991987647,0.0
2038,-0.18312008692296589,0.0
2039,0.04082975890182625,0.0
2040,-0.052171363980828736,0.0
2041,-0.00239467539184713,0.0
2042,-0.037944587922722046,0.0
2043,-0.04493744944413591,0.0
2044,0.08257149544210671,0.0
2045,-0.03292167376938585,0.0
2046,0.04327297883155158,0.0
2047,0.07153872031056051,0.0
2048,0.10104302959631907,0.0
2049,0.005140195252525133,0.0
2050,0.3908382486110071,0.0
2051,5.1447526205223815,0.0
2052,4.160644248828,0.0
2053,-2.8351631564317246,0.0
2054,1.6586986446199197,0.0
2055,-0.6872005079004768,0.0
2056,0.44472624921923254,0.0
2057,0.02901949329573124,0.0
2058,0.07726790470439102,0.0
2059,0.04548849527303248,0.0
2060,0.07637697265312464,0.0
2061,0.13217212495340747,0.0
2062,-0.022379052316450626,0.0
2063,0.024436513351405557,0.0
2064,0.0705750877700633,0.0
2065,0.023995255205636352,0.0
2066,9.887998881209087e-05,0.0
2067,1.3392356517592878,0.0
2068,6.819729600213557,0.0
2069,0.606612467411479,0.0
2070,-1.4220804219790344,0.0
2071,0.9588044432779487,0.0
2072,-0.3883196563386695,0.0
2073,0.12602835843646015,0.0
2074,-0.01875379733611867,0.0
2075,0.11155137323215564,0.0
2076,0.043415362627234166,0.0
2077,0.02327578151649694,0.0
2078,0.14944874264149688,0.0
2079,0.04485663178870464,0.0
2080,0.04069906455572746,0.0
2081,0.10199380621451692,0.0
2082,0.14497954487560444,0.0
2083,0.07241007500429117,0.0
2084,3.1353693911911766,0.0
2085,6.6238004764395,0.0
2086,-2.4039615675846755,0.0
2087,0.7978185065069713,0.0
2088,-0.021411482294731554,0.0
2089,0.17014596029926204,0.0
2090,-0.014819416943706577,0.0
2091,0.03555125736313093,0.0
2092,0.08045921270836465,0.0
2093,0.12537684467296517,0.0
2094,0.06964050594379204,0.0
2095,0.050950013951373434,0.0
2096,0.033545319965219964,0.0
2097,0.06599646196201978,0.0
2098,-0.03938322600148995,0.0
2099,0.04847053666976806,0.0
2100,0.5265367368157577,0.0
2101,5.283251443457754,0.0
2102,4.119411687879499,0.0
2103,-2.8123261942497706,0.0
2104,1.7369189274605632,0.0
2105,-0.813487481966411,0.0
2106,0.32593359884566364,0.0
2107,-0.12227071245873108,0.0
2108,0.030555621229381817,0.0
2109,-0.0368205414627104,0.0
2110,-0.06393418829207956,0.0
2111,0.03145558424241635,0.0
2112,-0.09544111151798745,0.0
2113,0.10095224050285914,0.0
2114,-0.07983621953723427,0.0
2115,0.02599366960568376,0.0
2116,-0.06101519887797716,0.0
2117,1.3932467923775367,0.0
2118,6.790348120255519,0.0
2119,0.6317714385925898,0.0
2120,-1.4668276243206777,0.0
2121,1.0594649897485213,0.0
2122,-0.44026503878029727,0.0
2123,0.2170029839181221,0.0
2124,0.017850561359316564,0.0
2125,0.045590051925150976,0.0
2126,-0.03340714108703435,0.0
2127,-0.06289083481058245,0.0
2128,-0.08631748849188134,0.0
2129,0.11361391870951597,0.0
2130,0.051894263291066986,0.0
2131,0.015469438302291829,0.0
2132,-0.05500318229289432,0.0
2133,0.10733627353631808,0.0
2134,3.0181879702178347,0.0
2135,6.63948611747618,0.0
2136,-2.3478605620929547,0.0
2137,0.7286033616397968,0.0
2138,-0.07657229293946509,0.0
2139,0.00974764949412299,0.0
2140,0.0511507659869296,0.0
2141,0.21539297611382613,0.0
2142,0.11659099830980582,0.0
2143,0.08758617260911312,0.0
2144,0.018035855487282856,0.0
2145,0.05320382948164057,0.0
2146,0.16767420189075724,0.0
2147,0.10199054278051917,0.0
2148,0.040399816801904596,0.0
2149,0.01899438891540483,0.0
2150,0.3475890805104432,0.0
2151,5.191463192250135,0.0
2152,4.084965813588794,0.0
2153,-2.7919938019043844,0.0
2154,1.5530867221111717,0.0
2155,-0.7742073957205936,0.0
2156,0.1745480804078923,0.0
2157,-0.1397898924960737,0.0
2158,0.10711170228068606,0.0
2159,0.06376179689873354,0.0
2160,0.04005799464077331,0.0
2161,0.0561161321526158,0.0
2162,0.01070478578389221,0.0
2163,0.008729279248638144,0.0
2164,0.05956441428966652,0.0
2165,-0.008482259040037084,0.0
2166,0.06828204892444303,0.0
2167,1.3245210381225692,0.0
2168,6.874202896494503,0.0
2169,0.6097545434162068,0.0
2170,-1.4090262365289028,0.0
2171,1.0012166414059338,0.0
2172,-0.44680842275689986,0.0
2173,0.15018013998674695,0.0
2174,-0.11117396355276159,0.0
2175,0.10291488420428284,0.0
2176,-0.034955481637425484,0.0
2177,0.009938446024591964,0.0
2178,0.017189286515672822,0.0
2179,0.016964028501320037,0.0
2180,0.0972731816611938,0.0
2181,0.07552961103297132,0.0
2182,0.006964097552932251,0.0
2183,0.051596325124048034,0.0
2184,3.0639236249203283,0.0
2185,6.600615873054421,0.0
2186,-2.302701648098131,0.0
2187,0.7069563799769762,0.0
2188,-0.04950993472696423,0.0
2189,0.09484727045220674,0.0
2190,0.008335051497404702,0.0
2191,0.039849925840880006,0.0
2192,-0.026374301820037888,0.0
2193,-0.00624051317486859,0.0
2194,0.07882290771737958,0.0
2195,0.017999692372368394,0.0
2196,-0.05668870299120783,0.0
2197,-0.028627369359386687,0.0
2198,-0.08395269231265548,0.0
2199,0.027725948104543093,0.0
2200,0.41927230018210754,0.0
2201,5.170382656764226,0.0
2202,3.9401394429231718,0.0
2203,-2.9358870705075897,0.0
2204,1.5952983336322961,0.0
2205,-0.8653266437057663,0.0
2206,0.1515509752365472,0.0
2207,-0.07073386566675958,0.0
2208,0.00028567738754809585,0.0
2209,-0.042842939363198336,0.0
2210,-0.006877868215985353,0.0
2211,-0.037699627032387266,0.0
2212,0.0033783388486037617,0.0
2213,-0.060373895911006906,0.0
2214,-0.02183034313314642,0.0
2215,-0.058291880760567065,0.0
2216,-0.1620896340391941,0.0
2217,1.293065922828308,0.0
2218,6.706792633570056,0.0
2219,0.36396519552306505,0.0
2220,-1.397167685579944,0.0
2221,0.9487674380286824,0.0
2222,-0.5565276511589037,0.0
2223,0.20335460718423595,0.0
2224,-0.09429869063061169,0.0
2225,0.013062935499805979,0.0
2226,0.00925417478905196,0.0
2227,0.008186781560040261,0.0
2228,-0.06548773327564616,0.0
2229,-0.07533404136167987,0.0
2230,0.006611707507973623,0.0
2231,-0.0032066575930382694,0.0
2232,-0.06898173932155457,0.0
2233,-0.005326398882055591,0.0
2234,3.0296627333481188,0.0
2235,6.442557581517331,0.0
2236,-2.451528347508609,0.0
2237,0.6776958740387766,0.0
2238,-0.25356023750582957,0.0
2239,-0.015679280015292327,0.0
2240,-0.11287179134392353,0.0
2241,-0.008855647406226571,0.0
2242,-0.10012792336542448,0.0
2243,-0.09758209254516653,0.0
2244,-0.11164615047010688,0.0
2245,-0.025721785617601745,0.0
2246,-0.06413247407506573,0.0
2247,-0.0559018613060664,0.0
2248,-0.13315217617322628,0.0
2249,-0.07125593306507247,0.0
2250,0.33695043565050214,0.0
2251,5.204767321244677,0.0
2252,4.07916797695608,0.0
2253,-2.9428752031551566,0.0
2254,1.5270230803831217,0.0
2255,-0.7707041798313037,0.0
2256,0.2214716119209504,0.0
2257,-0.1881226195322042,0.0
2258,-0.1235264677519376,0.0
2259,-0.07489133285436474,0.0
2260,-0.15499541678625833,0.0
2261,-0.07396218083663536,0.0
2262,-0.04990265228479038,0.0
2263,-0.01963976646209052,0.0
2264,-0.09902999581064023,0.0
2265,-0.00738398930204421,0.0
2266,-0.06976094787822724,0.0
2267,1.3131156881952328,0.0
2268,6.690281860830031,0.0
2269,0.40599994133765116,0.0
2270,-1.2930001257258923,0.0
2271,0.9065548008442521,0.0
2272,-0.582531169289872,0.0
2273,0.1503320359459402,0.0
2274,-0.016386497315388923,0.0
2275,-0.05637529514293235,0.0
2276,-0.0642049638878798,0.0
2277,-0.03935885531781518,0.0
2278,-0.049138843549067515,0.0
2279,-0.07503805967055398,0.0
2280,0.07497744098689091,0.0
2281,-0.07774641820659417,0.0
2282,0.0056656367406822394,0.0
2283,0.05067934642339452,0.0
2284,3.135346532631108,0.0
2285,6.449581214244,0.0
2286,-2.5250714869520894,0.0
2287,0.6657337264134028,0.0
2288,-0.19866624030900615,0.0
2289,-0.1330769943286772,0.0
2290,-0.15707610176250458,0.0
2291,-0.09558882310699952,0.0
2292,-0.05274008312402989,0.0
2293,-0.09066660759206631,0.0
2294,-0.1876612760690407,0.0
2295,-0.10374030583836287,0.0
2296,-0.0949421785813144,0.0
2297,-0.1085751059132195,0.0
2298,-0.06780341448406935,0.0
2299,-0.05381739071772857,0.0
2300,0.33472501453246084,0.0
2301,5.2566792126992,0.0
2302,4.0430929404768445,0.0
2303,-2.9119639151971612,0.0
2304,1.6568549269957993,0.0
2305,-0.8100249653058504,0.0
2306,0.23940167986201558,0.0
2307,-0.12972957000182828,0.0
2308,-0.013802631860566609,0.0
2309,-0.09011538342126588,0.0
2310,-0.0350543276551386,0.0
2311,-0.0667534030144991,0.0
2312,-0.09724731361345693,0.0
2313,-0.03856902388196441,0.0
2314,-0.04174943394248215,0.0
2315,0.036258979139127,0.0
2316,-0.053931424884908354,0.0
2317,1.2800137578537583,0.0
2318,6.703004708762862,0.0
2319,0.3217810286581309,0.0
2320,-1.412786497750246,0.0
2321,0.8464058092356895,0.0
2322,-0.4587059836124277,0.0
2323,0.24523780574515353,0.0
2324,-0.09706148981941498,0.0
2325,0.0234472049253574,0.0
2326,-0.03231693534509086,0.0
2327,-0.030900954006719043,0.0
2328,-0.11221814883363876,0.0
2329,-0.014281136798530332,0.0
2330,-0.04694937213094865,0.0
2331,-0.035879410830246296,0.0
2332,0.05933392967509725,0.0
2333,-0.01704444594479044,0.0
2334,3.119098562378305,0.0
2335,6.525505475398449,0.0
2336,-2.4358007648477926,0.0
2337,0.7069818002433954,0.0
2338,-0.3101641500910242,0.0
2339,-0.04313076144959914,0.0
2340,-0.09933272468144196,0.0
2341,-0.03720217566212718,0.0
2342,-0.08036331301555033,0.0
2343,-0.01792123500830959,0.0
2344,-0.0675097494246781,0.0
2345,-0.09129985002099028,0.0
2346,-0.03364851673190895,0.0
2347,-0.022398341012509558,0.0
2348,0.028801036335448543,0.0
2349,-0.0012107301312834114,0.0
2350,0.4231656927907235,0.0
2351,5.234311353072864,0.0
2352,3.990594711585725,0.0
2353,-2.868358959761684,0.0
2354,1.5510903595735228,0.0
2355,-0.7363957976034126,0.0
2356,0.3001787244702858,0.0
2357,-0.13228644632581335,0.0
2358,-0.008828878865667005,0.0
2359,-0.15408837550065022,0.0
2360,0.029698294077036586,0.0
2361,-0.03374369512146494,0.0
2362,-0.143615184440603,0.0
2363,-0.12196319924691529,0.0
2364,-0.048091399383637615,0.0
2365,-0.1100217340806008,0.0
2366,0.02107944592045561,0.0
2367,1.3611521889887912,0.0
2368,6.742862743955936,0.0
2369,0.43459533734381656,0.0
2370,-1.4240609226929422,0.0
2371,0.9476362172354985,0.0
2372,-0.439484756241684,0.0
2373,0.10929347578229848,0.0
2374,-0.05381616549073702,0.0
2375,-0.02490086355012318,0.0
2376,0.0031591035144694253,0.0
2377,0.03471081822584649,0.0
2378,-0.0454121208572887,0.0
2379,-0.05900068547080117,0.0
2380,0.05813333552142595,0.0
2381,0.0395944023590053,0.0
2382,-0.027344931513594895,0.0
2383,0.12170405125587183,0.0
2384,3.0475189570752432,0.0
2385,6.568204695019057,0.0
2386,-2.4921127058265973,0.0
2387,0.8588823563070628,0.0
2388,-0.13892479969019894,0.0
2389,0.06108055467781144,0.0
2390,-0.09721010654274462,0.0
2391,0.026084859866564884,0.0
2392,-0.005884020915402358,0.0
2393,0.03112177515651777,0.0
2394,0.0064113271797457995,0.0
2395,0.01583516222143861,0.0
2396,-0.0137746439907586,0.0
2397,-0.03390370715353177,0.0
2398,-0.015119509801699599,0.0
2399,0.043907531012924675,0.0
2400,0.5002648464036147,0.0
2401,5.259859075528984,0.0
2402,4.114307827513664,0.0
2403,-2.831323928029573,0.0
2404,1.7065955918918783,0.0
2405,-0.7797482613741973,0.0
2406,0.4133855040456468,0.0
2407,-0.09273205233560919,0.0
2408,-0.041667092327786856,0.0
2409,0.025139500638717446,0.0
2410,-0.005639581307701636,0.0
2411,0.022514200053396754,0.0
2412,0.008611592223292138,0.0
2413,0.10693552941064513,0.0
2414,0.08911770736034921,0.0
2415,0.029407928025871444,0.0
2416,-0.14445694898357792,0.0
2417,1.3750898605677246,0.0
2418,6.808063385436302,0.0
2419,0.38709989921481386,0.0
2420,-1.2158934557491952,0.0
2421,0.9925893258870652,0.0
2422,-0.45894266896100394,0.0
2423,0.3058483627758857,0.0
2424,0.022121607926499802,0.0
2425,0.09484105340880342,0.0
2426,-0.02973288333937031,0.0
2427,0.05683630688033073,0.0
2428,0.05353777092488793,0.0
2429,-0.0171531235094124,0.0
2430,0.18066205964272913,0.0
2431,0.05551164413577654,0.0
2432,0.025765248236191925,0.0
2433,0.07168399937861518,0.0
2434,3.1497646164902964,0.0
2435,6.487290447930651,0.0
2436,-2.511360646208925,0.0
2437,0.8046882533152917,0.0
2438,-0.18965303324215288,0.0
2439,-0.04308567282914931,0.0
2440,-0.014026353917234766,0.0
2441,0.004207161811862384,0.0
2442,-0.009457581364699486,0.0
2443,-0.009167013723397354,0.0
2444,0.015972058351832047,0.0
2445,0.03226178449992191,0.0
2446,-0.04291748872477279,0.0
2447,0.02438321473591435,0.0
2448,0.07333859189166086,0.0
2449,0.1413143835997704,0.0
2450,0.45538491843620976,0.0
2451,5.345338056109961,0.0
2452,4.053119058429514,0.0
2453,-2.826823275117654,0.0
2454,1.620645929720424,0.0
2455,-0.8027043948676637,0.0
2456,0.41981235198252714,0.0
2457,-0.014627567145529277,0.0
2458,0.13052595528883534,0.0
2459,0.08187739527260343,0.0
2460,-0.006344738844625442,0.0
2461,0.04622623088298886,0.0
2462,0.015381799450215613,0.0
2463,-0.002026647478505887,0.0
2464,-0.04337030505739627,0.0
2465,0.04184865232860624,0.0
2466,-0.06358540280718045,0.0
2467,1.4609846523811938,0.0
2468,6.854703404567512,0.0
2469,0.40390296499463063,0.0
2470,-1.2896261358262313,0.0
2471,1.0074079888879435,0.0
2472,-0.5048349866992671,0.0
2473,0.28007522622860415,0.0
2474,0.007736059162665759,0.0
2475,-0.01156623802853447,0.0
2476,0.043769992809661984,0.0
2477,-0.05652199195626985,0.0
2478,-0.002908763758628712,0.0
2479,0.007303517624390863,0.0
2480,-0.07891622429237141,0.0
2481,-0.024513280545185104,0.0
2482,-0.008164115971270884,0.0
2483,0.1346288371263186,0.0
2484,3.2214649686068273,0.0
2485,6.595421007073858,0.0
2486,-2.4282719759900355,0.0
2487,0.7090608785704656,0.0
2488,-0.23488378485893902,0.0
2489,-0.02669665487274627,0.0
2490,-0.11482280210118838,0.0
2491,-0.08759894232317739,0.0
2492,0.005974833370132146,0.0
2493,-0.017719948556678425,0.0
2494,-0.0006741734571091076,0.0
2495,-0.12942060986638806,0.0
2496,-0.07378838526386775,0.0
2497,-0.052401744480423444,0.0
2498,0.06302094967886666,0.0
2499,-0.08709849559669325,0.0
2500,0.4403017015471797,0.0
2501,5.180736769855436,0.0
2502,3.9807526494837435,0.0
2503,-2.923244752954122,0.0
2504,1.5511286230890597,0.0
2505,-0.8815297070001618,0.0
2506,0.2613321839216671,0.0
2507,-0.1436208897383685,0.0
2508,-0.02202490023901413,0.0
2509,-0.06330222688857368,0.0
2510,-0.0931374319610477,0.0
2511,-0.0218947777281379,0.0
2512,-0.007586627071257512,0.0
2513,-0.11846054583751114,0.0
2514,-0.0028756791339629023,0.0
2515,-0.0530416190195581,0.0
2516,-0.08696106780529524,0.0
2517,1.3084478724012647,0.0
2518,6.765123041437592,0.0
2519,0.37880512574632225,0.0
2520,-1.3194662009156934,0.0
2521,0.8452093052954851,0.0
2522,-0.5393589381703333,0.0
2523,0.1647630353282925,0.0
2524,-0.04538166677709119,0.0
2525,-0.01969154287219151,0.0
2526,0.03627938757222026,0.0
2527,-0.05786433991773848,0.0
2528,-0.07915499941562351,0.0
2529,-0.1374530296376789,0.0
2530,0.010042541766716179,0.0
2531,-0.1022679612233285,0.0
2532,-0.16572347818063654,0.0
2533,-0.06626328016061206,0.0
2534,3.064619521282478,0.0
2535,6.448979924533219,0.0
2536,-2.5922694214467272,0.0
2537,0.6285114928946925,0.0
2538,-0.2536261787188604,0.0
2539,-0.02829790760808457,0.0
2540,-0.11325807594603925,0.0
2541,-0.09903988989026713,0.0
2542,-0.04161499533858373,0.0
2543,-0.15844619952431574,0.0
2544,0.04766754281798767,0.0
2545,0.02811754570114921,0.0
2546,-0.07646150685583439,0.0
2547,-0.001067536581777509,0.0
2548,-0.15625689016880706,0.0
2549,-0.0663552163743105,0.0
2550,0.3462846537334631,0.0
2551,5.171429133038956,0.0
2552,3.8415788488306606,0.0
2553,-2.955465635072549,0.0
2554,1.5212156652758548,0.0
2555,-0.9320445705980475,0.0
2556,0.3536023076996049,0.0
2557,-0.15278130004693025,0.0
2558,-0.10330436783325939,0.0
2559,-0.11633674052556825,0.0
2560,-0.04984334290513927,0.0
2561,-0.11898086692190998,0.0
2562,-0.06251965901009232,0.0
2563,-0.1118022510828027,0.0
2564,-0.09757213975104677,0.0
2565,-0.008983225633406491,0.0
2566,-0.06579275527147267,0.0
2567,1.3317905441256432,0.0
2568,6.741205761766886,0.0
2569,0.2987415389884791,0.0
2570,-1.4605452144086604,0.0
2571,0.7867503073908335,0.0
2572,-0.6358708307734472,0.0
2573,0.10247793180989703,0.0
2574,-0.11479112623039414,0.0
2575,-0.05768392207861868,0.0
2576,-0.2176146689993786,0.0
2577,-0.10216898455549553,0.0
2578,-0.10282925340479998,0.0
2579,-0.14747015941703792,0.0
2580,-0.06466810792219403,0.0
2581,-0.07188226041127878,0.0
2582,-0.06945578793855708,0.0
2583,-0.05235897441443067,0.0
2584,3.129008976805366,0.0
2585,6.347103117881945,0.0
2586,-2.6502550622952112,0.0
2587,0.6976637908540206,0.0
2588,-0.30729434527218824,0.0
2589,0.005626254592851064,0.0
2590,-0.1344883338734546,0.0
2591,-0.14801769384857727,0.0
2592,-0.1526754552525549,0.0
2593,-0.10771988246495137,0.0
2594,-0.09225325416077026,0.0
2595,-0.09138830855601417,0.0
2596,-0.1448624939756563,0.0
2597,-0.0768182837465457,0.0
2598,-0.11015002910513456,0.0
2599,-0.029756868205027265,0.0
2600,0.27829912835467885,0.0
2601,5.1824955365788865,0.0
2602,3.814420867385228,0.0
2603,-2.891332381545494,0.0
2604,1.4381402341262395,0.0
2605,-0.898191242125894,0.0
2606,0.31509305566293233,0.0
2607,-0.18255743636117303,0.0
2608,0.013105332694718398,0.0
2609,-0.06339433475456607,0.0
2610,-0.0062446048961440626,0.0
2611,-0.05392004140420275,0.0
2612,-0.07665041105221855,0.0
2613,-0.0500420307825266,0.0
2614,-0.011581572262725999,0.0
2615,-0.09683946109104224,0.0
2616,-0.054891939279705426,0.0
2617,1.3639834766298915,0.0
2618,6.7025564200139085,0.0
2619,0.28419459182917567,0.0
2620,-1.2222717820692157,0.0
2621,0.8512979361318109,0.0
2622,-0.5276441025592739,0.0
2623,0.23119561140301037,0.0
2624,-0.13023237728077414,0.0
2625,-0.027655485917863626,0.0
2626,0.011213280621428671,0.0
2627,-0.10134782129468882,0.0
2628,-0.12092985236405643,0.0
2629,-0.0811732372407753,0.0
2630,-0.1113485605615099,0.0
2631,-0.02924930112842704,0.0
2632,-0.11154048736466946,0.0
2633,-0.011882522056164087,0.0
2634,3.025302776975825,0.0
2635,6.5062942963867165,0.0
2636,-2.4615536198521117,0.0
2637,0.7658356179798742,0.0
2638,-0.29481513351809235,0.0
2639,-0.04353038594534609,0.0
2640,-0.11223786716369889,0.0
2641,-0.032337773308169476,0.0
2642,-0.12638293171338283,0.0
2643,0.0012660258726999718,0.0
2644,-0.08436329786870145,0.0
2645,-0.009249689059829543,0.0
2646,-0.0507778155477972,0.0
2647,-0.03548822977247866,0.0
2648,-0.056272970513705736,0.0
2649,0.02926177782538912,0.0
2650,0.3694672872692609,0.0
2651,5.25017598188954,0.0
2652,3.87198410620234,0.0
2653,-2.8879831640976024,0.0
2654,1.6051155935966352,0.0
2655,-0.7541047016189789,0.0
2656,0.3574041938660101,0.0
2657,-0.1483032371673648,0.0
2658,0.04942726280084126,0.0
2659,0.006198048986982903,0.0
2660,-0.0048206301115384055,0.0
2661,0.07710149948641191,0.0
2662,0.11291656433821892,0.0
2663,-0.06613081253911866,0.0
2664,0.004597756228664429,0.0
2665,-0.04161373720007893,0.0
2666,-0.005100001997290529,0.0
2667,1.4624186148457314,0.0
2668,6.846667525363528,0.0
2669,0.3065909790385456,0.0
2670,-1.248072860116279,0.0
2671,1.0053943487459136,0.0
2672,-0.4647110944242924,0.0
2673,0.24136170350577096,0.0
2674,-0.09428074426779014,0.0
2675,-0.02881022727580084,0.0
2676,-0.13264478871005708,0.0
2677,0.02832761080470944,0.0
2678,-0.05502324554113448,0.0
2679,0.011613118035561303,0.0
2680,-0.04363705938084804,0.0
2681,-0.04635701984536417,0.0
2682,-0.06334510072018268,0.0
2683,0.023756338846159544,0.0
2684,3.0908130523525785,0.0
2685,6.475522674065863,0.0
2686,-2.587122936792635,0.0
2687,0.816408765148068,0.0
2688,-0.21652762522158284,0.0
2689,0.031741685508476995,0.0
2690,0.06479655294633516,0.0
2691,0.05635909500702366,0.0
2692,0.04890873304298804,0.0
2693,0.007800464789920129,0.0
2694,0.18680699838069098,0.0
2695,0.03952019842938425,0.0
2696,-0.020724506978858435,0.0
2697,0.01178235436360767,0.0
2698,-0.010267418602925706,0.0
2699,-0.04036145324720354,0.0
2700,0.46953143521877344,0.0
2701,5.311209581139397,0.0
2702,3.863632659655015,0.0
2703,-2.8867133426206473,0.0
2704,1.5504963988891298,0.0
2705,-0.795949584735704,0.0
2706,0.3641693240253055,0.0
2707,-0.13164782412679601,0.0
2708,0.08793877633335959,0.0
2709,0.04307879939775175,0.0
2710,-0.061537527984765084,0.0
2711,0.007418683500482477,0.0
2712,0.05923528987326121,0.0
2713,0.017119907246949395,0.0
2714,0.03702278964556917,0.0
2715,-0.0020949854045910696,0.0
2716,0.07948836333384113,0.0
2717,1.3825178743506656,0.0
2718,6.852365607536391,0.0
2719,0.23401301202161717,0.0
2720,-1.1618906738719432,0.0
2721,0.9546225523163917,0.0
2722,-0.39818978320811743,0.0
2723,0.1959181528728961,0.0
2724,-0.011351172845683249,0.0
2725,0.025008338252891192,0.0
2726,-0.018795105574478985,0.0
2727,0.024329040012009577,0.0
2728,0.03999620515747959,0.0
2729,0.041317433454778674,0.0
2730,-0.044861914655346426,0.0
2731,-0.0024377374116547248,0.0
2732,0.01002622564903129,0.0
2733,0.18433445423865244,0.0
2734,3.1780430975298835,0.0
2735,6.440302590195103,0.0
2736,-2.6019460724931225,0.0
2737,0.8307840877275058,0.0
2738,-0.16859454586489148,0.0
2739,0.12863022745224117,0.0
2740,0.04634839957288324,0.0
2741,0.044659999219028426,0.0
2742,0.00970293515042192,0.0
2743,0.0019138179997104446,0.0
2744,0.05730896234363926,0.0
2745,0.05005584814427057,0.0
2746,0.050702130589602004,0.0
2747,-0.012195645355169232,0.0
2748,0.04764429807327109,0.0
2749,-0.04667750681344778,0.0
2750,0.4901323393413964,0.0
2751,5.34500265562672,0.0
2752,3.925664654013223,0.0
2753,-2.843221485207665,0.0
2754,1.535858357296337,0.0
2755,-0.8001441825101114,0.0
2756,0.37467608221492227,0.0
2757,-0.12548502520171456,0.0
2758,0.07902440478243129,0.0
2759,0.07167533680251613,0.0
2760,-0.01974113452882032,0.0
2761,0.02990755739758347,0.0
2762,-0.015577156073102547,0.0
2763,-0.040480217892811976,0.0
2764,-0.023705174598765536,0.0
2765,0.003570720779541769,0.0
2766,-0.00011682769063134455,0.0
2767,1.381379381286222,0.0
2768,6.793777714648029,0.0
2769,0.1990222977993088,0.0
2770,-1.153096328617792,0.0
2771,0.8143688527101827,0.0
2772,-0.4372390728146513,0.0
2773,0.2622927194098895,0.0
2774,-0.04633700264208044,0.0
2775,-0.024148012579183076,0.0
2776,0.0011414812810331746,0.0
2777,-0.022521176260856913,0.0
2778,0.0338373729868826,0.0
2779,0.05164781722119496,0.0
2780,0.002935615816958237,0.0
2781,0.041963471994995304,0.0
2782,-0.008540200491411723,0.0
2783,0.004195626173297565,0.0
2784,3.2346189699211503,0.0
2785,6.4408885166732945,0.0
2786,-2.5452293957073837,0.0
2787,0.8575905226423967,0.0
2788,-0.1729629339989646,0.0
2789,0.12101575203816758,0.0
2790,-0.05011257557364275,0.0
2791,0.06818380880003719,0.0
2792,0.05415872650615795,0.0
2793,0.07399808853089673,0.0
2794,0.020632924441181463,0.0
2795,0.01495413958673685,0.0
2796,-0.025455039378406607,0.0
2797,0.05301566929229083,0.0
2798,0.01710063095245832,0.0
2799,-0.011120201792352529,0.0
2800,0.4259825580268947,0.0
2801,5.3443222602154945,0.0
2802,3.8659995779251406,0.0
2803,-2.970572979090529,0.0
2804,1.605008794114056,0.0
2805,-0.6510342660018122,0.0
2806,0.4435709955380627,0.0
2807,-0.03805816223910082,0.0
2808,0.06595594844381954,0.0
2809,0.07435661372096995,0.0
2810,0.02894111770760289,0.0
2811,0.017144452704641017,0.0
2812,0.03744821818931437,0.0
2813,0.09507298282574944,0.0
2814,0.006021750837212993,0.0
2815,0.0010689771946745946,0.0
2816,0.06934151467721883,0.0
2817,1.4515254241954123,0.0
2818,6.799864832682186,0.0
2819,0.20147938681856054,0.0
2820,-1.2266972341025182,0.0
2821,0.8576410803098344,0.0
2822,-0.5749055211330865,0.0
2823,0.21092165087684672,0.0
2824,-0.12339361260136855,0.0
2825,0.04068015663184825,0.0
2826,0.0396568249563274,0.0
2827,-0.026299892044853453,0.0
2828,-0.014640528859232048,0.0
2829,-0.009547722358896057,0.0
2830,-0.026768675786065337,0.0
2831,0.04664638203424131,0.0
2832,0.021336260849501913,0.0
2833,0.08054149702282087,0.0
2834,3.1887472451841417,0.0
2835,6.455302029685946,0.0
2836,-2.6868373654970554,0.0
2837,0.8390658434857455,0.0
2838,-0.31291935334667714,0.0
2839,0.04464868953669127,0.0
2840,-0.12933040611669427,0.0
2841,-0.035575194061058524,0.0
2842,-0.05064251513672452,0.0
2843,0.0017684472754824349,0.0
2844,-0.10112839711111785,0.0
2845,0.04843235469642832,0.0
2846,-0.11626067582601032,0.0
2847,-0.12703169799566785,0.0
2848,-0.06713751123975716,0.0
2849,-0.02762933697260593,0.0
2850,0.4134629054046952,0.0
2851,5.4343136321753445,0.0
2852,3.832591543695918,0.0
2853,-2.7957362922889737,0.0
2854,1.6376424075689833,0.0
2855,-0.8383523237118232,0.0
2856,0.3377498724278241,0.0
2857,-0.04644556038537226,0.0
2858,0.04017704517092643,0.0
2859,0.004372933360439486,0.0
2860,-0.08813979382268719,0.0
2861,-0.08011723819708771,0.0
2862,-0.01249102104376653,0.0
2863,-0.016512512875109117,0.0
2864,-0.09251092615934593,0.0
2865,-0.14014613019556504,0.0
2866,-0.054156012170716555,0.0
2867,1.3375713799987372,0.0
2868,6.7682849400454765,0.0
2869,0.028058727412803394,0.0
2870,-1.2416999089823633,0.0
2871,0.8066561668624161,0.0
2872,-0.47964876681963053,0.0
2873,0.16322405501366383,0.0
2874,-0.07587311026448441,0.0
2875,-0.003245423283412303,0.0
2876,-0.013304290026259512,0.0
2877,0.07549263757929703,0.0
2878,-0.06917604107249634,0.0
2879,0.028311360354901408,0.0
2880,-0.04918106722807587,0.0
2881,-0.017435345041425618,0.0
2882,-0.009130371261273335,0.0
2883,0.06354044355546665,0.0
2884,3.2281988945205167,0.0
2885,6.299504441106697,0.0
2886,-2.6273822592411347,0.0
2887,0.8705486854920469,0.0
2888,-0.37411406988035356,0.0
2889,0.10815156092694664,0.0
2890,-0.06287798904417581,0.0
2891,0.00396575007255181,0.0
2892,-0.023685023422053194,0.0
2893,-0.026702108844417795,0.0
2894,-0.009837631660101038,0.0
2895,-0.0030880715606481472,0.0
2896,0.017520526363292144,0.0
2897,0.07616302095993206,0.0
2898,0.032383298895091034,0.0
2899,0.0682716572466065,0.0
2900,0.49561139985853075,0.0
2901,5.496607314066355,0.0
2902,3.886804271640508,0.0
2903,-2.8624974114582633,0.0
2904,1.623823320197709,0.0
2905,-0.6769700996852935,0.0
2906,0.47418960298625956,0.0
2907,-0.06830232679407587,0.0
2908,0.14442217748094943,0.0
2909,0.050958066766528046,0.0
2910,0.07113829769318436,0.0
2911,0.09360778615899848,0.0
2912,0.0791364572283333,0.0
2913,0.0973475393439966,0.0
2914,-0.04800820816844144,0.0
2915,0.027038672161129356,0.0
2916,0.10285919000286542,0.0
2917,1.4488711104702277,0.0
2918,6.982372070616645,0.0
2919,0.13425827565285697,0.0
2920,-1.0908433269144149,0.0
2921,0.7989510245548062,0.0
2922,-0.4992389077644098,0.0
2923,0.13677819995811008,0.0
2924,-0.09047492031429812,0.0
2925,-0.019946333517667936,0.0
2926,0.07762491341151115,0.0
2927,-0.06046857534087546,0.0
2928,0.01624128754005752,0.0
2929,-0.005910085564539249,0.0
2930,-0.05571319614233092,0.0
2931,-0.04850344827457982,0.0
2932,-0.00678586604217822,0.0
2933,0.012050221056222943,0.0
2934,3.251891605319244,0.0
2935,6.391624974232671,0.0
2936,-2.4783046725169346,0.0
2937,0.9386901912271856,0.0
2938,-0.27702921742224385,0.0
2939,0.07051669446441088,0.0
2940,-0.051302845297382466,0.0
2941,0.006607619784310856,0.0
2942,-0.005996300803243123,0.0
2943,0.057269016296442946,0.0
2944,-0.002961702109642885,0.0
2945,-0.004509935769626976,0.0
2946,-0.0443956452056645,0.0
2947,0.005356237298800907,0.0
2948,-0.010122342290395193,0.0
2949,-0.08272213060172129,0.0
2950,0.4141713575124564,0.0
2951,5.33213113998334,0.0
2952,3.750343670790197,0.0
2953,-2.8710422862285063,0.0
2954,1.5728180397975153,0.0
2955,-0.8069009804588606,0.0
2956,0.24591763881012013,0.0
2957,-0.19820812842948304,0.0
2958,0.0915657776983194,0.0
2959,-0.0847002442807282,0.0
2960,0.023098733756236955,0.0
2961,-0.09253517683513918,0.0
2962,0.09484920692040338,0.0
2963,-0.024609305615022684,0.0
2964,0.016934065945712708,0.0
2965,-0.001134214105730807,0.0
2966,-0.07073866564380876,0.0
2967,1.5103657136769155,0.0
2968,6.896283430477942,0.0
2969,0.07059908591715965,0.0
2970,-1.1738495266417632,0.0
2971,0.8197349425758162,0.0
2972,-0.4602121214654073,0.0
2973,0.10266676684104922,0.0
2974,-0.10766913401616979,0.0
2975,-0.014862939673087033,0.0
2976,-0.012088459044509928,0.0
2977,-0.04788595664561707,0.0
2978,0.026901367591068964,0.0
2979,-0.01148459482250425,0.0
2980,-0.06463795778380156,0.0
2981,-0.010078832749302727,0.0
2982,-0.01977121825124084,0.0
2983,0.053134607479704866,0.0
2984,3.2806156409111678,0.0
2985,6.337386444538668,0.0
2986,-2.6175507329662815,0.0
2987,0.8012175393910324,0.0
2988,-0.31555916047611904,0.0
2989,0.06470025895255282,0.0
2990,-0.2155361122000724,0.0
2991,-0.0469167136545984,0.0
2992,-0.06430448306398281,0.0
2993,-0.027275214575942126,0.0
2994,-0.10069631948426629,0.0
2995,-0.06879252610113136,0.0
2996,-0.19774083722493244,0.0
2997,0.014875030751375223,0.0
2998,-0.08411056482131304,0.0
2999,-0.07965247996572059,0.0
3000,0.48160151549290203,0.0
3001,5.317734311447619,0.0
3002,3.6940140079918775,0.0
3003,-2.8974805960381915,0.0
3004,1.4749412859997781,0.0
3005,-0.8375344354961682,0.0
3006,0.3442095106276506,0.0
3007,-0.17075560586277566,0.0
3008,-0.05307464731810955,0.0
3009,-0.07760103850566075,0.0
3010,-0.06115670284008616,0.0
3011,0.0008501645845037306,0.0
3012,-0.019482435090651555,0.0
3013,-0.11856587714137526,0.0
3014,-0.04534827872168944,0.0
3015,-0.04829266401545362,0.0
3016,-0.026388292501592584,0.0
3017,1.5560833287991347,0.0
3018,6.838504339811624,0.0
3019,0.0006994491963608282,0.0
3020,-1.2029808030615419,0.0
3021,0.8834187897392958,0.0
3022,-0.4618566790062302,0.0
3023,0.1797905642660335,0.0
3024,-0.128021453357685,0.0
3025,-0.008120543214265183,0.0
3026,-0.053227037644415116,0.0
3027,0.03478851491021946,0.0
3028,0.029295720263137266,0.0
3029,-0.02314702316392936,0.0
3030,-0.1498893831802921,0.0
3031,-0.07176302834688607,0.0
3032,0.030006456588460607,0.0
3033,-0.00929744137915181,0.0
3034,3.294759628900892,0.0
3035,6.293068277416214,0.0
3036,-2.6677579602113375,0.0
3037,0.8808589878952297,0.0
3038,-0.35230744753489796,0.0
3039,0.030760265193815636,0.0
3040,-0.14748831590164058,0.0
3041,-0.05727133651561975,0.0
3042,-0.06974903621689131,0.0
3043,0.05703007522283583,0.0
3044,-0.06789676193024004,0.0
3045,-0.04153932593531483,0.0
3046,-0.05095236883869183,0.0
3047,-0.04384617685002018,0.0
3048,-0.08379007700302163,0.0
3049,-0.037741153729279095,0.0
3050,0.4720302715167546,0.0
3051,5.4474607612293005,0.0
3052,3.617313007124506,0.0
3053,-2.823103975496871,0.0
3054,1.4875878808105731,0.0
3055,-0.8265129175833483,0.0
3056,0.279858404866261,0.0
3057,-0.15688243644530736,0.0
3058,0.0508503820140746,0.0
3059,0.04740003878398419,0.0
3060,-0.09887804870568431,0.0
3061,-0.060686667902215614,0.0
3062,-0.06839531946481306,0.0
3063,-0.18295408933950896,0.0
3064,-0.09181102931810875,0.0
3065,-0.0019504329465449416,0.0
3066,-0.0670202560951746,0.0
3067,1.4291018302396277,0.0
3068,6.81911686254502,0.0
3069,0.051385195868323026,0.0
3070,-1.1515486349190929,0.0
3071,0.7807781832998331,0.0
3072,-0.3932378600234646,0.0
3073,0.09056134735720318,0.0
3074,-0.116548250067993,0.0
3075,0.014166687172007475,0.0
3076,-0.16786797673662823,0.0
3077,0.014894523492721176,0.0
3078,-0.14229247675143666,0.0
3079,-0.08917903528980864,0.0
3080,-0.08535802348209913,0.0
3081,-0.15642895305493273,0.0
3082,-0.034798512666569074,0.0
3083,-0.03808620063755222,0.0
3084,3.276817092282466,0.0
3085,6.327356242974779,0.0
3086,-2.6985198350072803,0.0
3087,0.9259823468658364,0.0
3088,-0.4130653054471686,0.0
3089,0.02191482277893968,0.0
3090,-0.13460321299162809,0.0
3091,-0.07451020575617406,0.0
3092,-0.04190894558613591,0.0
3093,-0.11567476243298708,0.0
3094,-0.0675173228849048,0.0
3095,-0.05451814919337328,0.0
3096,-0.05973538377228035,0.0
3097,-0.012368964062679552,0.0
3098,-0.0716032057590682,0.0
3099,0.053055205371741465,0.0
3100,0.3183244950282033,0.0
3101,5.43233462652376,0.0
3102,3.5854090657480304,0.0
3103,-2.867436073023407,0.0
3104,1.5948662904656568,0.0
3105,-0.8513922198684798,0.0
3106,0.28669399870659207,0.0
3107,-0.20228138061955228,0.0
3108,0.02033174000135878,0.0
3109,-0.014868490539123078,0.0
3110,-0.021889507781084075,0.0
3111,-0.09941097093035561,0.0
3112,-0.07957880038235768,0.0
3113,-0.07848238887362562,0.0
3114,-0.054869297374138024,0.0
3115,-0.02656532553011301,0.0
3116,-0.10066842495897678,0.0
3117,1.441905783132269,0.0
3118,6.840239010662313,0.0
3119,-0.009606654472178486,0.0
3120,-1.1321390621120988,0.0
3121,0.7747264755018126,0.0
3122,-0.5180853094484891,0.0
3123,0.1101487468685949,0.0
3124,-0.13052046577349508,0.0
3125,-0.03156282095368687,0.0
3126,-0.009389230585565352,0.0
3127,0.006892043630222687,0.0
3128,-0.052428863511092404,0.0
3129,0.0108257758579984,0.0
3130,0.08983622883725553,0.0
3131,0.006431096427835223,0.0
3132,-0.05364036054504293,0.0
3133,0.020945403583554137,0.0
3134,3.26945575688848,0.0
3135,6.375705766181861,0.0
3136,-2.7582095705013128,0.0
3137,0.914132670019717,0.0
3138,-0.2654536944602872,0.0
3139,0.14555034061919947,0.0
3140,-0.07109066593369516,0.0
3141,-0.04281972869042834,0.0
3142,0.0055913711964373225,0.0
3143,-0.06420068115417714,0.0
3144,-0.0211512793928803,0.0
3145,0.006230559832790314,0.0
3146,-0.048232432745407436,0.0
3147,-0.02316261081777742,0.0
3148,0.026343804473833925,0.0
3149,0.022463073771910744,0.0
3150,0.40854094917305805,0.0
3151,5.461612095299518,0.0
3152,3.6411390112487028,0.0
3153,-2.794550989459518,0.0
3154,1.5923136526624528,0.0
3155,-0.8861939008315702,0.0
3156,0.33774471014376906,0.0
3157,-0.11715436001403154,0.0
3158,-0.038224355321492015,0.0
3159,-0.005819603875522567,0.0
3160,-0.041627576779804984,0.0
3161,-0.06601972476501357,0.0
3162,-0.05550638926838336,0.0
3163,0.0662149752479802,0.0
3164,-0.07456096878640593,0.0
3165,-0.062231180653592205,0.0
3166,-0.08162811536464608,0.0
3167,1.4508027108717807,0.0
3168,6.872013568490837,0.0
3169,0.022401453149700573,0.0
3170,-1.1109393894031812,0.0
3171,0.7945072705768431,0.0
3172,-0.4884555619586243,0.0
3173,0.15853675398637024,0.0
3174,0.04469187330611636,0.0
3175,-0.02721360492056895,0.0
3176,-0.06442367893593842,0.0
3177,-0.04313447387781642,0.0
3178,-0.08291779487280554,0.0
3179,-0.00917016848686536,0.0
3180,-0.0066181574907906715,0.0
3181,0.04350478263661629,0.0
3182,-0.05894734058763002,0.0
3183,0.09095089300475877,0.0
3184,3.2800327534081295,0.0
3185,6.2883503190708625,0.0
3186,-2.6665038257312736,0.0
3187,0.8981826877571151,0.0
3188,-0.3159440485850083,0.0
3189,0.13472411206865464,0.0
3190,-0.025954921109993992,0.0
3191,-0.10592201802562258,0.0
3192,-0.029942929779345408,0.0
3193,-0.10022080284699676,0.0
3194,-0.04056498968932761,0.0
3195,-0.0036241983482035636,0.0
3196,-0.00532632448217343,0.0
3197,-0.04578395726068568,0.0
3198,0.06336282992609574,0.0
3199,-0.11991045751328502,0.0
3200,0.43342652867578635,0.0
3201,5.54090598756895,0.0
3202,3.6180420996854825,0.0
3203,-2.826437563379561,0.0
3204,1.5168757196133933,0.0
3205,-0.8351111859746283,0.0
3206,0.2883393107459099,0.0
3207,-0.06098994072516137,0.0
3208,0.07066526567606729,0.0
3209,0.03219006236876727,0.0
3210,0.013595150553201665,0.0
3211,0.06851368316764589,0.0
3212,0.058760016239556886,0.0
3213,0.06786745756516563,0.0
3214,0.10642930910668208,0.0
3215,0.03747469136589693,0.0
3216,0.016152432428061924,0.0
3217,1.5228468038728802,0.0
3218,6.769013641111463,0.0
3219,0.044005542374780784,0.0
3220,-1.0354769891140267,0.0
3221,0.7766707400283884,0.0
3222,-0.5269794864517132,0.0
3223,0.11060854717758276,0.0
3224,-0.034973854798367746,0.0
3225,-0.034521823014440414,0.0
3226,-0.01635257150926922,0.0
3227,-0.0810930044581854,0.0
3228,-0.055826351486065455,0.0
3229,-0.05980838025168644,0.0
3230,-0.08512023978357866,0.0
3231,0.07515223644907688,0.0
3232,0.08235523044696999,0.0
3233,0.08613909491129404,0.0
3234,3.3749106759397214,0.0
3235,6.38561435446233,0.0
3236,-2.604533064058254,0.0
3237,1.0078858681370864,0.0
3238,-0.28629337773530217,0.0
3239,0.07727247716081392,0.0
3240,-0.15186030937044875,0.0
3241,-0.07370507865057299,0.0
3242,-0.05221257387936997,0.0
3243,0.01871456370667207,0.0
3244,-0.10489819631624545,0.0
3245,0.0727184945109322,0.0
3246,-0.026859701398732956,0.0
3247,-0.0770939165665156,0.0
3248,0.027770905379513204,0.0
3249,-0.013647828203477562,0.0
3250,0.4869035499178805,0.0
3251,5.413361640089088,0.0
3252,3.5359620531780753,0.0
3253,-2.76313481305819,0.0
3254,1.6329346565440834,0.0
3255,-0.8560640835910431,0.0
3256,0.25325356071065,0.0
3257,-0.19329466129586934,0.0
3258,0.01928002624154493,0.0
3259,-0.03313756197436479,0.0
3260,-0.07057037995666547,0.0
3261,-0.08438098859360271,0.0
3262,-0.04779488111726683,0.0
3263,-0.03627888754545891,0.0
3264,-0.030121898034144116,0.0
3265,-0.0522759865603919,0.0
3266,-0.04179222239131494,0.0
3267,1.4535488412245932,0.0
3268,6.822160812122823,0.0
3269,-0.11782032221228955,0.0
3270,-1.1891969864930092,0.0
3271,0.7385735569406537,0.0
3272,-0.5511402608616,0.0
3273,0.11308683747275854,0.0
3274,-0.13816688826051784,0.0
3275,0.003919784944099981,0.0
3276,-0.010150349944675854,0.0
3277,-0.048403354897653114,0.0
3278,-0.0917186239359161,0.0
3279,-0.006953573265703228,0.0
3280,-0.01615846142320069,0.0
3281,-0.10428451771160879,0.0
3282,-0.040485141950467304,0.0
3283,0.06902448047902417,0.0
3284,3.2447444135902797,0.0
3285,6.371636217997144,0.0
3286,-2.8462518025140056,0.0
3287,1.0011056416556396,0.0
3288,-0.3138051007095079,0.0
3289,0.06705186984810914,0.0
3290,-0.012806776255968808,0.0
3291,-0.0517538890666835,0.0
3292,-0.02818058297944611,0.0
3293,-0.0171839205595933,0.0
3294,-0.007766231590768939,0.0
3295,-0.06850025047475454,0.0
3296,-0.0856635062311569,0.0
3297,-0.16380489938090348,0.0
3298,-0.13464815025827911,0.0
3299,-0.033817912631507366,0.0
3300,0.40495614034269184,0.0
3301,5.45203467904547,0.0
3302,3.5051040380617384,0.0
3303,-2.7750188328223184,0.0
3304,1.5573917937578392,0.0
3305,-0.81688268740535,0.0
3306,0.2669622505862213,0.0
3307,-0.1825818919173127,0.0
3308,-0.0193339547220027,0.0
3309,-0.06881534166689868,0.0
3310,-0.08263209118686826,0.0
3311,-0.09154027717764528,0.0
3312,0.13840832439982234,0.0
3313,0.0018076032029267636,0.0
3314,-0.0009541163674495895,0.0
3315,-0.05109340584598664,0.0
3316,0.006579241444159445,0.0
3317,1.5052923799876592,0.0
3318,6.931711449004199,0.0
3319,-0.19358258398432532,0.0
3320,-1.2159030470281091,0.0
3321,0.8201176164382339,0.0
3322,-0.44677198878918734,0.0
3323,0.07522724329434677,0.0
3324,-0.11451379979090437,0.0
3325,0.028560529491465945,0.0
3326,-0.05480087305649726,0.0
3327,-0.12192298379786434,0.0
3328,-0.10978397633465534,0.0
3329,-0.06321671011988751,0.0
3330,-0.06354511664232651,0.0
3331,-0.041060470445921204,0.0
3332,0.01601164426403391,0.0
3333,0.0008986028349298805,0.0
3334,3.3067776956543162,0.0
3335,6.166820043604023,0.0
3336,-2.6909114431020424,0.0
3337,0.8779111573518624,0.0
3338,-0.43628558380822513,0.0
3339,0.055529390797800754,0.0
3340,-0.07280183575527899,0.0
3341,-0.15899820602896747,0.0
3342,-0.07966487715185666,0.0
3343,-0.037575786050390685,0.0
3344,-0.05224865857407717,0.0
3345,-0.08050826044326533,0.0
3346,-0.05139311516241771,0.0
3347,-0.05021523730664846,0.0
3348,0.01082295354981383,0.0
3349,-0.05706658501053969,0.0
3350,0.538194198518302,0.0
3351,5.4603199581309925,0.0
3352,3.4799183410651695,0.0
3353,-2.845179293227867,0.0
3354,1.547028748874243,0.0
3355,-0.9239054317418165,0.0
3356,0.27567939116084894,0.0
3357,-0.11742481751854006,0.0
3358,-0.04973377712550182,0.0
3359,-0.03787842235249911,0.0
3360,-0.07606823406398193,0.0
3361,-0.061680957799029816,0.0
3362,0.013492148576953342,0.0
3363,-0.0637507644385245,0.0
3364,-0.07193412657420353,0.0
3365,-0.031002266059381615,0.0
3366,-0.07633244638448719,0.0
3367,1.5514860594223108,0.0
3368,6.889468217534222,0.0
3369,-0.07224031109155216,0.0
3370,-1.128269471785773,0.0
3371,0.7789283444820203,0.0
3372,-0.4745752857587924,0.0
3373,0.08169675262355022,0.0
3374,-0.10625749244373454,0.0
3375,-0.07760897596978279,0.0
3376,-0.07849988932288578,0.0
3377,-0.030118127444913195,0.0
3378,-0.06677541649829312,0.0
3379,-0.03918157514546866,0.0
3380,-0.11430301259042554,0.0
3381,0.04372559197159275,0.0
3382,-0.010512987944525504,0.0
3383,0.09981338178608902,0.0
3384,3.3727630851011794,0.0
3385,6.311353533775938,0.0
3386,-2.6715778629369726,0.0
3387,0.94572833512448,0.0
3388,-0.43588817929770607,0.0
3389,0.04659913721394897,0.0
3390,-0.06715282609427171,0.0
3391,0.12195725218677106,0.0
3392,-0.10446772498719047,0.0
3393,-0.09265157423570773,0.0
3394,-0.006438743593120463,0.0
3395,0.005249025462691861,0.0
3396,-0.01913232831136598,0.0
3397,-0.11853309729718375,0.0
3398,-0.045408730401656466,0.0
3399,-0.03968482888955137,0.0
3400,0.5295129992138335,0.0
3401,5.444272604775772,0.0
3402,3.44165874541595,0.0
3403,-2.873718632550073,0.0
3404,1.6497757905244996,0.0
3405,-0.811670947505414,0.0
3406,0.37716626295536315,0.0
3407,-0.2342842373562044,0.0
3408,-0.008999239403078244,0.0
3409,-0.013047572266902778,0.0
3410,-0.1166576234507467,0.0
3411,-0.03326118070376817,0.0
3412,-0.07889522877155658,0.0
3413,-0.05195051916628941,0.0
3414,-0.03407038238175297,0.0
3415,-0.01962482790765022,0.0
3416,-0.021476146700206013,0.0
3417,1.5417793538934172,0.0
3418,6.8366578035968955,0.0
3419,-0.10150635591893231,0.0
3420,-1.0471784923271115,0.0
3421,0.7924938737881473,0.0
3422,-0.4164130042949751,0.0
3423,0.11003999528532396,0.0
3424,-0.025141247435652853,0.0
3425,0.03192809688531902,0.0
3426,0.09277008239129353,0.0
3427,-0.0018996675451511506,0.0
3428,0.09393511678218822,0.0
3429,0.11057640076983301,0.0
3430,-0.006933782004926833,0.0
3431,0.0443164732457325,0.0
3432,0.09061294031147346,0.0
3433,0.08212453257516389,0.0
3434,3.381498138461511,0.0
3435,6.278165112868598,0.0
3436,-2.672935329220789,0.0
3437,0.9859587735122014,0.0
3438,-0.3264118490767599,0.0
3439,-0.028461096324629856,0.0
3440,-0.013105748257753583,0.0
3441,-0.07934422115302449,0.0
3442,-0.07285106380873431,0.0
3443,-0.008824003998410636,0.0
3444,-0.017511796678700578,0.0
3445,-0.13566534954615547,0.0
3446,0.036714996786503334,0.0
3447,-0.14377046704388066,0.0
3448,-0.02606343614190336,0.0
3449,-0.041489317635887,0.0
3450,0.5325483892301616,0.0
3451,5.524515863433206,0.0
3452,3.5544226178738727,0.0
3453,-2.769156556591979,0.0
3454,1.5177929843976274,0.0
3455,-0.8221223648088082,0.0
3456,0.3567354337236664,0.0
3457,-0.07232374177243536,0.0
3458,0.10205988520944695,0.0
3459,0.026056058936649532,0.0
3460,-0.054493615766135914,0.0
3461,0.15355272749440832,0.0
3462,0.049010009953152765,0.0
3463,-0.0023195849816819644,0.0
3464,0.03994400383792289,0.0
3465,0.057453135353301064,0.0
3466,-0.008143119863426957,0.0
3467,1.5803381348640595,0.0
3468,6.953820437027104,0.0
3469,-0.12974486400448246,0.0
3470,-0.9240728186403567,0.0
3471,0.6749409600636953,0.0
3472,-0.47634616472260877,0.0
3473,0.24496274903670742,0.0
3474,-0.1587274019154683,0.0
3475,-0.07812407932344752,0.0
3476,-0.04412672696370847,0.0
3477,-0.08198910465827823,0.0
3478,0.0031874070306508705,0.0
3479,-0.04193348428522411,0.0
3480,-0.004683920918402324,0.0
3481,-0.0729831641715116,0.0
3482,-0.10749664644070189,0.0
3483,0.051933716552284216,0.0
3484,3.397039153882433,0.0
3485,6.248450820280903,0.0
3486,-2.716698488919379,0.0
3487,0.9791936072340646,0.0
3488,-0.2756955024920335,0.0
3489,0.06334770779886578,0.0
3490,-0.04852296854060238,0.0
3491,-0.022740080017479826,0.0
3492,-0.039718032563639365,0.0
3493,0.018407167614188764,0.0
3494,-0.03691763913316032,0.0
3495,-0.01261559092204745,0.0
3496,-0.04481364783604225,0.0
3497,-0.00963754920098493,0.0
3498,-0.1071833422402623,0.0
3499,-0.053375827540736775,0.0
3500,0.5919027933473174,0.0
3501,5.476901752003888,0.0
3502,3.5004779468966554,0.0
3503,-2.8327347848585904,0.0
3504,1.6312530377255714,0.0
3505,-0.7627517390655425,0.0
3506,0.28851725072416573,0.0
3507,-0.12756897533596148,0.0
3508,-0.008291602487534286,0.0
3509,-0.09597602363607695,0.0
3510,-0.016810024346040505,0.0
3511,-0.10874666839309424,0.0
3512,-0.04746959367240713,0.0
3513,-0.058698369106614134,0.0
3514,-0.062312858116836886,0.0
3515,-0.06680530408360648,0.0
3516,-0.13360671798731813,0.0
3517,1.5462118859746379,0.0
3518,6.845619178283036,0.0
3519,-0.20480158072946902,0.0
3520,-1.1193558708708278,0.0
3521,0.7178478048121484,0.0
3522,-0.5012091811184354,0.0
3523,0.07847281169491938,0.0
3524,-0.07071128706000773,0.0
3525,0.009364781756465566,0.0
3526,-0.09195400830888135,0.0
3527,0.010345844379679177,0.0
3528,-0.02872494431532268,0.0
3529,-0.12192457959154049,0.0
3530,0.046232474980967456,0.0
3531,-0.11881968828120582,0.0
3532,-0.042694203403481845,0.0
3533,0.0026345570684210874,0.0
3534,3.3880664948211625,0.0
3535,6.205089893566585,0.0
3536,-2.8169351983368895,0.0
3537,0.899320407191503,0.0
3538,-0.4226030782632576,0.0
3539,0.0492593929213648,0.0
3540,-0.09000390237527423,0.0
3541,-0.04296399082256261,0.0
3542,0.004295773736667466,0.0
3543,-0.14168003810466168,0.0
3544,-0.022546398206388776,0.0
3545,-0.08813646475729899,0.0
3546,-0.010510814282632806,0.0
3547,-0.07985736319809925,0.0
3548,0.01850740884250996,0.0
3549,-0.006325025435265218,0.0
3550,0.5384052297955937,0.0
3551,5.531094757241194,0.0
3552,3.5158068716478166,0.0
3553,-2.84406730311076,0.0
3554,1.5291081871744385,0.0
3555,-0.782149211775392,0.0
3556,0.2256234649739834,0.0
3557,-0.28140843112695213,0.0
3558,0.05001149748631983,0.0
3559,0.021853584231399457,0.0
3560,0.003098373211416927,0.0
3561,-0.16445634106640367,0.0
3562,-0.07331944722697092,0.0
3563,-0.04851851830949161,0.0
3564,-0.11481043806465048,0.0
3565,-0.028111668621336884,0.0
3566,-0.03211325528711187,0.0
3567,1.4360188998390992,0.0
3568,6.909245248249314,0.0
3569,-0.20758392423303104,0.0
3570,-0.9990681987554069,0.0
3571,0.7638195952290663,0.0
3572,-0.41569835306078173,0.0
3573,0.22380063230027358,0.0
3574,0.04452373501131494,0.0
3575,-0.0080786985403162,0.0
3576,-0.1331022284452419,0.0
3577,0.010621237439829121,0.0
3578,-0.0119588552689247,0.0
3579,0.0026623528921072004,0.0
3580,-0.008182332683066954,0.0
3581,-0.07206895269354964,0.0
3582,-0.009195753692082753,0.0
3583,0.04779819226829718,0.0
3584,3.4485353552759497,0.0
3585,6.303634542290839,0.0
3586,-2.77542833091984,0.0
3587,0.9111047851357155,0.0
3588,-0.3294375932785981,0.0
3589,0.06173973776604803,0.0
3590,-0.21170907179235876,0.0
3591,-0.01935386445682471,0.0
3592,-0.052088882069828646,0.0
3593,-0.12431806770325315,0.0
3594,-0.007564140497557617,0.0
3595,-0.12638762799146597,0.0
3596,-0.10042438577169213,0.0
3597,-0.0800595413885748,0.0
3598,-0.09763051142087137,0.0
3599,0.006639313484378254,0.0
3600,0.4120736338213735,0.0
3601,5.410937049897326,0.0
3602,3.370432013124106,0.0
3603,-2.7644915167852657,0.0
3604,1.5562955026384633,0.0
3605,-0.8275438731344054,0.0
3606,0.2666899371986892,0.0
3607,-0.18141489999495436,0.0
3608,-0.068746527668081,0.0
3609,0.007725946952864854,0.0
3610,-0.0037049462456371918,0.0
3611,-0.04843343126840254,0.0
3612,0.006613189832993201,0.0
3613,-0.005111118478483275,0.0
3614,0.038938251833905896,0.0
3615,0.038514130059071554,0.0
3616,0.025503603744482337,0.0
3617,1.578850025803594,0.0
3618,6.927888703888967,0.0
3619,-0.1831626689263404,0.0
3620,-0.9386006882246546,0.0
3621,0.849217428769087,0.0
3622,-0.3281127179818216,0.0
3623,0.16232185191179457,0.0
3624,-0.07240218645977432,0.0
3625,0.1222145121781271,0.0
3626,0.07022229158676586,0.0
3627,0.1503831118840906,0.0
3628,0.011544632280636326,0.0
3629,0.15265599585714118,0.0
3630,0.006613026886480862,0.0
3631,0.016688839719600723,0.0
3632,-0.018710812576657857,0.0
3633,0.10921141866627312,0.0
3634,3.5274121877628652,0.0
3635,6.280812851089314,0.0
3636,-2.692478683882789,0.0
3637,1.060420889611804,0.0
3638,-0.31276817864352446,0.0
3639,0.1177046882180839,0.0
3640,-0.03832965762971979,0.0
3641,-0.030623367438486794,0.0
3642,0.030190885578468996,0.0
3643,-0.011362430008719802,0.0
3644,-0.06328028290115136,0.0
3645,0.011212141954383815,0.0
3646,-0.04888980682012595,0.0
3647,0.011636040991976578,0.0
3648,0.01209167972981859,0.0
3649,-0.03775784937304275,0.0
3650,0.49407424414622253,0.0
3651,5.617170474500572,0.0
3652,3.372504087939912,0.0
3653,-2.742367148221787,0.0
3654,1.5346954593911484,0.0
3655,-0.7572309387217504,0.0
3656,0.33566044687570373,0.0
3657,-0.017036929192135578,0.0
3658,0.1315894493746662,0.0
3659,0.025317837279257266,0.0
3660,-0.05506804508736783,0.0
3661,-0.029634648879281036,0.0
3662,-0.02535337968290186,0.0
3663,0.004020497137919722,0.0
3664,0.008108919207382638,0.0
3665,0.058285862135538796,0.0
3666,0.05991253142514511,0.0
3667,1.6937366219345942,0.0
3668,6.833832614355747,0.0
3669,-0.23939104868522287,0.0
3670,-0.9781829989899455,0.0
3671,0.8216038109908551,0.0
3672,-0.3389873160229475,0.0
3673,0.16985962606660107,0.0
3674,-0.008374039127640478,0.0
3675,0.05592545979311532,0.0
3676,-0.03162025539016196,0.0
3677,-0.0143204413413631,0.0
3678,0.07430216954715388,0.0
3679,-0.029110897643579485,0.0
3680,0.03526398270907962,0.0
3681,-0.008885152100532237,0.0
3682,0.023359021015241066,0.0
3683,0.07520753634771155,0.0
3684,3.554015255002431,0.0
3685,6.236726802603618,0.0
3686,-2.666995048246609,0.0
3687,1.1297297355696205,0.0
3688,-0.2104048827691512,0.0
3689,0.21048064729326207,0.0
3690,-0.0051924634119793365,0.0
3691,0.06751076853443974,0.0
3692,0.14560728713075244,0.0
3693,0.07330623193543537,0.0
3694,0.06177384300399437,0.0
3695,0.0648401972521381,0.0
3696,0.09085645115641049,0.0
3697,0.021580074218660532,0.0
3698,0.025064015201185563,0.0
3699,0.016269225858277975,0.0
3700,0.6426550562801555,0.0
3701,5.648463474122129,0.0
3702,3.4226408405255713,0.0
3703,-2.6955030047081685,0.0
3704,1.5964203993252655,0.0
3705,-0.6790334003384426,0.0
3706,0.3496134355826912,0.0
3707,-0.07035853504970593,0.0
3708,0.00038879118944049745,0.0
3709,0.06423554175514386,0.0
3710,0.07525200416457789,0.0
3711,-0.04155443193577494,0.0
3712,0.052847820150429714,0.0
3713,0.17649434303567035,0.0
3714,-0.010873298588819136,0.0
3715,0.002236438580077972,0.0
3716,0.046746666665421155,0.0
3717,1.7547387892138142,0.0
3718,7.041632171540078,0.0
3719,-0.12445415359444366,0.0
3720,-0.7977513361307543,0.0
3721,0.8461636272160681,0.0
3722,-0.2995489310412693,0.0
3723,0.2009982168259967,0.0
3724,-0.04172557708008113,0.0
3725,0.07471755915061021,0.0
3726,0.05670752906737384,0.0
3727,0.029790410447604006,0.0
3728,0.06855386768635002,0.0
3729,-0.058256021199102885,0.0
3730,-0.02180267596615735,0.0
3731,-0.0091376753850261,0.0
3732,-0.02646928351185613,0.0
3733,0.1936366734041513,0.0
3734,3.5708827835231,0.0
3735,6.1909976087523315,0.0
3736,-2.7122172812224243,0.0
3737,1.077166163226409,0.0
3738,-0.42316077317986756,0.0
3739,0.10193686582324349,0.0
3740,-0.05589620753252947,0.0
3741,-0.07347779266156956,0.0
3742,0.025521220238164433,0.0
3743,0.006594406584756657,0.0
3744,0.02745966597326455,0.0
3745,-0.0244416923257065,0.0
3746,0.04218988170685239,0.0
3747,0.006937394362984746,0.0
3748,0.07973700797453394,0.0
3749,-0.06828923635877163,0.0
3750,0.5798510066718762,0.0
3751,5.630967052652794,0.0
3752,3.3642365415725823,0.0
3753,-2.688802716481634,0.0
3754,1.7036220855899948,0.0
3755,-0.7560479251681304,0.0
3756,0.3282812788440893,0.0
3757,-0.07143116182058397,0.0
3758,-0.008661185420148376,0.0
3759,0.028490288969524297,0.0
3760,0.020819742145342338,0.0
3761,0.0363343744733967,0.0
3762,0.0054803054648498665,0.0
3763,-0.023640319029114402,0.0
3764,-0.062335229861309835,0.0
3765,0.05799861085630688,0.0
3766,-0.017636985981571474,0.0
3767,1.6510361427873808,0.0
3768,7.035348592851804,0.0
3769,-0.2039892591442746,0.0
3770,-0.9392045847258444,0.0
3771,0.7113082428245758,0.0
3772,-0.34067699303383303,0.0
3773,0.23531377109500784,0.0
3774,0.0047585035257906964,0.0
3775,0.052673038231374945,0.0
3776,0.06532253967869851,0.0
3777,0.04387988773644394,0.0
3778,0.11046110589867689,0.0
3779,0.05819594830238813,0.0
3780,0.08493054739428019,0.0
3781,0.015636975968618724,0.0
3782,-0.00865914672715606,0.0
3783,0.07556540170168788,0.0
3784,3.4932941438130336,0.0
3785,6.214674576385891,0.0
3786,-2.6093300991450676,0.0
3787,1.125149397070672,0.0
3788,-0.37895066080729384,0.0
3789,0.17351471642747127,0.0
3790,-0.07390972669865865,0.0
3791,0.041509587931243104,0.0
3792,0.002925753506803498,0.0
3793,0.009203051521188547,0.0
3794,-0.043205597390545275,0.0
3795,0.09925572494551146,0.0
3796,0.07577497087630305,0.0
3797,0.02932225780422633,0.0
3798,0.11484218697534262,0.0
3799,0.07006021961137084,0.0
3800,0.7243997163798161,0.0
3801,5.8099960697604605,0.0
3802,3.4490906596597664,0.0
3803,-2.524491700812074,0.0
3804,1.7294924334770545,0.0
3805,-0.62591399376189,0.0
3806,0.38610699703576473,0.0
3807,-0.07214726205039203,0.0
3808,0.12206835080724068,0.0
3809,0.014927048354011083,0.0
3810,0.04859195408758424,0.0
3811,0.07537302396349989,0.0
3812,0.040366809403509785,0.0
3813,0.06086684231454012,0.0
3814,0.10990803920256112,0.0
3815,0.1050837164421956,0.0
3816,0.09246545161033379,0.0
3817,1.6709330768643664,0.0
3818,6.931169076061318,0.0
3819,-0.2173420176410909,0.0
3820,-0.9539065732022805,0.0
3821,0.7846495838243854,0.0
3822,-0.32816507521894545,0.0
3823,0.18150418438890273,0.0
3824,0.07222716630613607,0.0
3825,0.10070460110704117,0.0
3826,0.03419946903129108,0.0
3827,0.13227598416906672,0.0
3828,0.040134539675313316,0.0
3829,0.001375536404722981,0.0
3830,0.008055436021626637,0.0
3831,0.030941688693615597,0.0
3832,0.049671183892061155,0.0
3833,0.15628942203112334,0.0
3834,3.539829723404409,0.0
3835,6.240762341695255,0.0
3836,-2.6438452354130826,0.0
3837,1.0829246630421476,0.0
3838,-0.3374241899293327,0.0
3839,0.2390407184038674,0.0
3840,0.09156095540778417,0.0
3841,0.0016305928889680799,0.0
3842,0.04389904409242651,0.0
3843,0.044166623611747925,0.0
3844,0.1446671392631096,0.0
3845,-0.0152687803074813,0.0
3846,0.07133567886590465,0.0
3847,0.10870720226699404,0.0
3848,-0.0049474212283699,0.0
3849,0.12704132590022696,0.0
3850,0.7039542374859847,0.0
3851,5.674796037436568,0.0
3852,3.384507058688577,0.0
3853,-2.5919439164447433,0.0
3854,1.6572683245938644,0.0
3855,-0.8355893322687704,0.0
3856,0.2845945021328866,0.0
3857,-0.13662398795873165,0.0
3858,0.07496650933898893,0.0
3859,0.15634446802889518,0.0
3860,0.04061816162471665,0.0
3861,0.1419269764048859,0.0
3862,0.03827229286714247,0.0
3863,0.08235892883866583,0.0
3864,0.10201829085224565,0.0
3865,0.049074493709330286,0.0
3866,0.10914408233360039,0.0
3867,1.6877497931117538,0.0
3868,7.058519557806865,0.0
3869,-0.2128690699182808,0.0
3870,-0.9014869759338308,0.0
3871,0.7676897655805174,0.0
3872,-0.34506659831114506,0.0
3873,0.22284179876248156,0.0
3874,-0.09839637594066106,0.0
3875,0.04118587751511067,0.0
3876,0.03142260284127713,0.0
3877,0.06539473291393746,0.0
3878,0.09734655705651964,0.0
3879,-0.007952068125922418,0.0
3880,0.07747011530940144,0.0
3881,0.10524846069430263,0.0
3882,0.010830724269634114,0.0
3883,0.2063708739322104,0.0
3884,3.5331303224412167,0.0
3885,6.202058242441298,0.0
3886,-2.720378460178348,0.0
3887,1.0633615672466372,0.0
3888,-0.3051624121989172,0.0
3889,0.23939198308161197,0.0
3890,0.0236058768657989,0.0
3891,0.14248296164733537,0.0
3892,0.09987257286549224,0.0
3893,0.07488394126996725,0.0
3894,0.07421694719082284,0.0
3895,0.12779824820711067,0.0
3896,0.004585286618143489,0.0
3897,0.06479901448017189,0.0
3898,0.09287649136059016,0.0
3899,0.08603391008946497,0.0
3900,0.5534154917450596,0.0
3901,5.698654548469413,0.0
3902,3.3415447069924826,0.0
3903,-2.634951440520463,0.0
3904,1.6305076014739517,0.0
3905,-0.8042959789283063,0.0
3906,0.3966734800962712,0.0
3907,0.021199366752443487,0.0
3908,0.07493728621672603,0.0
3909,0.1021933598348394,0.0
3910,0.06235742048292711,0.0
3911,0.10400181753947516,0.0
3912,0.07486876925851656,0.0
3913,0.15101048751311405,0.0
3914,0.08885038017259468,0.0
3915,0.10230612378260012,0.0
3916,0.07082059886212477,0.0
3917,1.7846113152621284,0.0
3918,7.103251875296177,0.0
3919,-0.2862155823209611,0.0
3920,-0.7430974972506917,0.0
3921,0.8473343283137363,0.0
3922,-0.24249310764661378,0.0
3923,0.20296239247570763,0.0
3924,0.08695539932611532,0.0
3925,0.1809768188442195,0.0
3926,0.1226757606499228,0.0
3927,0.06377780492627845,0.0
3928,0.041397916806950506,0.0
3929,0.15579345825819071,0.0
3930,0.05069831666071886,0.0
3931,0.04035025568778914,0.0
3932,0.059376161945452414,0.0
3933,0.17808943261276802,0.0
3934,3.6146963737457565,0.0
3935,6.323816527680913,0.0
3936,-2.6601460673764388,0.0
3937,1.0891137989155,0.0
3938,-0.39738887011645646,0.0
3939,0.20463779299493504,0.0
3940,0.06684928357521754,0.0
3941,0.09395605714416498,0.0
3942,0.09464302890192522,0.0
3943,0.046006391237246466,0.0
3944,-0.07898364849046977,0.0
3945,-0.06868299761217249,0.0
3946,0.035024667459120286,0.0
3947,0.09725907049402323,0.0
3948,0.025306217302416213,0.0
3949,0.035524760291764226,0.0
3950,0.49058128754640384,0.0
3951,5.669486074988492,0.0
3952,3.409229475773324,0.0
3953,-2.601007723498187,0.0
3954,1.6514514376028038,0.0
3955,-0.7093845835280997,0.0
3956,0.4254493939525355,0.0
3957,-0.12153500460127167,0.0
3958,0.03652816271249084,0.0
3959,0.06029482421660218,0.0
3960,0.045982044251223486,0.0
3961,-0.010153073061285656,0.0
3962,0.08769408764162033,0.0
3963,0.008093614662538696,0.0
3964,-0.03492771617912108,0.0
3965,0.09931590946938348,0.0
3966,0.06685457019126251,0.0
3967,1.7900991688726986,0.0
3968,6.947933034181957,0.0
3969,-0.33434796573686687,0.0
3970,-0.7556332372474093,0.0
3971,0.7726632642031102,0.0
3972,-0.33129920233491733,0.0
3973,0.1465502612950405,0.0
3974,-0.09722251888664929,0.0
3975,-0.06607446067196296,0.0
3976,0.08024056223470369,0.0
3977,-0.008101563311437875,0.0
3978,-0.005785663949198255,0.0
3979,-0.035719220786639735,0.0
3980,0.041781869200712383,0.0
3981,0.07122263367605255,0.0
3982,0.060307712288311874,0.0
3983,0.20086245543967263,0.0
3984,3.6357342200183536,0.0
3985,6.227419137935306,0.0
3986,-2.737661014039849,0.0
3987,1.0470113804995134,0.0
3988,-0.3287366886211866,0.0
3989,0.1253747054214196,0.0
3990,-0.06895487997514424,0.0
3991,0.02128842983127794,0.0
3992,0.048922134764589134,0.0
3993,0.04899711381982214,0.0
3994,-0.002639745391337864,0.0
3995,0.04317864952122648,0.0
3996,0.06621740976463616,0.0
3997,-0.03649107077147694,0.0
3998,0.030662067318723313,0.0
3999,0.059760411532838745,0.0
4000,0.5340863350235755,0.0
4001,5.686420688996044,0.0
4002,3.3670322414006764,0.0
4003,-2.600258118334751,0.0
4004,1.5454091434294739,0.0
4005,-0.839221464789219,0.0
4006,0.419925033231685,0.0
4007,-0.021284215414982294,0.0
4008,0.01781112775979308,0.0
4009,-0.0003826442853014436,0.0
4010,0.03455868346077807,0.0
4011,0.014271270524916663,0.0
4012,0.03252681983164888,0.0
4013,0.031928167874477394,0.0
4014,0.05447099662154353,0.0
4015,0.006344861994792334,0.0
4016,0.07310716258363353,0.0
4017,1.693652226074203,0.0
4018,6.978714072668965,0.0
4019,-0.32219294309191504,0.0
4020,-0.8819221058566181,0.0
4021,0.7830294553698074,0.0
4022,-0.38149207695307824,0.0
4023,0.1382855965606182,0.0
4024,-0.07874264849876515,0.0
4025,-0.01673475278164999,0.0
4026,-0.0012456123725426115,0.0
4027,-0.04272866774338404,0.0
4028,-0.100582765920617,0.0
4029,-0.0030249827505508167,0.0
4030,-0.03939709855516145,0.0
4031,0.009881972568658984,0.0
4032,0.020649657519036663,0.0
4033,0.0783269653451025,0.0
4034,3.654226695707768,0.0
4035,6.14105297729341,0.0
4036,-2.8784594648926345,0.0
4037,1.04826303384506,0.0
4038,-0.46459351533977933,0.0
4039,0.10460890070247911,0.0
4040,-0.025008778793800937,0.0
4041,-0.018659939491182314,0.0
4042,-0.021421915031623807,0.0
4043,-0.02890993982003236,0.0
4044,-0.08651732982048332,0.0
4045,0.005452509664576666,0.0
4046,-0.13865456248578353,0.0
4047,-0.08134529728207579,0.0
4048,-0.09193384300046226,0.0
4049,-0.10148186369622819,0.0
4050,0.462907700201297,0.0
4051,5.649295046163337,0.0
4052,3.2413996492581196,0.0
4053,-2.7370056266094362,0.0
4054,1.571911759533911,0.0
4055,-0.8008951647838701,0.0
4056,0.17384612801531898,0.0
4057,-0.1970956887681184,0.0
4058,0.006916094506868444,0.0
4059,-0.004271665753809072,0.0
4060,-0.07572252294608553,0.0
4061,0.08294396998594628,0.0
4062,0.048774926738978576,0.0
4063,0.03178075841590645,0.0
4064,0.0014940106896064373,0.0
4065,0.03964606284148313,0.0
4066,0.12498470569133191,0.0
4067,1.7632228631357065,0.0
4068,6.887490850307447,0.0
4069,-0.32813442648571267,0.0
4070,-0.8724739110238536,0.0
4071,0.7338766983653994,0.0
4072,-0.4154119888272251,0.0
4073,0.19666941389704007,0.0
4074,-0.1061308120840159,0.0
4075,0.04261429713607259,0.0
4076,0.015157933655282499,0.0
4077,0.1071618790911273,0.0
4078,-0.0013319176549645055,0.0
4079,-0.14939998700387724,0.0
4080,0.027718889866422278,0.0
4081,-0.06105186527583272,0.0
4082,-0.015481594568917182,0.0
4083,0.04260233347035281,0.0
4084,3.5147787094654515,0.0
4085,6.083324266834587,0.0
4086,-2.8414593888100113,0.0
4087,1.0625434429311238,0.0
4088,-0.3629611885196121,0.0
4089,0.09881492129317104,0.0
4090,-0.03745489491310769,0.0
4091,0.011228028440972421,0.0
4092,0.05740254491798806,0.0
4093,-0.01464825184252651,0.0
4094,-0.07588126596158999,0.0
4095,0.0547553768937918,0.0
4096,-0.10600796900182372,0.0
4097,0.06318274939837105,0.0
4098,-0.08801405968161652,0.0
4099,0.03557360573258944,0.0
4100,0.6239411194818014,0.0
4101,5.624366503350956,0.0
4102,3.2380711410062615,0.0
4103,-2.624854542530388,0.0
4104,1.5795590248223692,0.0
4105,-0.7248597128936669,0.0
4106,0.27430237450137007,0.0
4107,-0.13103773939964414,0.0
4108,0.062102045168331524,0.0
4109,-0.041837354544823374,0.0
4110,0.007940355910637957,0.0
4111,-0.0321294161365682,0.0
4112,0.07517248797219503,0.0
4113,0.09961245704498446,0.0
4114,0.03199586659662372,0.0
4115,0.08537085154022703,0.0
4116,0.05598619413768336,0.0
4117,1.7214108284106975,0.0
4118,6.8800303680273105,0.0
4119,-0.3668064542665562,0.0
4120,-0.7733171892614533,0.0
4121,0.6766376094172032,0.0
4122,-0.4203949678910146,0.0
4123,0.13425679591066964,0.0
4124,-0.02516355750313621,0.0
4125,0.014739012123487629,0.0
4126,0.039116178593906384,0.0
4127,0.010093909610750865,0.0
4128,-0.0458283157876762,0.0
4129,0.09180202117725096,0.0
4130,-0.045892959595060095,0.0
4131,-0.06485819861286406,0.0
4132,-0.014037817611332212,0.0
4133,0.12583689263984704,0.0
4134,3.444102992147127,0.0
4135,6.061474775034388,0.0
4136,-2.834447156947548,0.0
4137,1.1764361453498964,0.0
4138,-0.43007658611392774,0.0
4139,0.030138455481957177,0.0
4140,-0.03503952382167669,0.0
4141,0.06573128443413286,0.0
4142,-0.11327805108089484,0.0
4143,-0.040695857843297094,0.0
4144,-0.06185524772198588,0.0
4145,-0.12405272976794252,0.0
4146,-0.007069876708497249,0.0
4147,0.036835010642515126,0.0
4148,-0.06674256415622745,0.0
4149,0.011812764156267776,0.0
