timestamp,value-0,is_anomaly
0,0.3840278372495451,0
1,4.6176185787674555,0
2,5.00219794449769,0
3,-2.937089232955198,0
4,1.5343987263885677,0
5,-0.703493982458141,0
6,0.4585372814212339,0
7,0.017905506703292835,0
8,0.19668199287657884,0
9,0.033789178830818015,0
10,0.14974868146531167,0
11,0.03662677406338683,0
12,0.04629818137147832,0
13,-0.03603174166648033,0
14,0.04442371766163458,0
15,0.1059764803960247,0
16,0.05333428981215275,0
17,1.0666610517053523,0
18,6.492950331628408,0
19,1.59385654070805,0
20,-1.9029206550774234,0
21,1.3302087371209916,0
22,-0.5820145707025656,0
23,0.4214523171059818,0
24,0.05326123368468148,0
25,0.08822911323642356,0
26,0.00012849823897728707,0
27,0.058061863189666066,0
28,0.13465265197201085,0
29,0.023131576585979904,0
30,0.04659565353459774,0
31,0.15173704341712688,0
32,0.035627230631337894,0
33,0.09297311055643744,0
34,2.516607323543222,0
35,6.913463220290864,0
36,-1.8052977146229159,0
37,0.21586559212600692,0
38,0.24378414168356172,0
39,-0.030917378089410384,0
40,0.120147247711885,0
41,0.028667287521117975,0
42,0.0386218925751425,0
43,0.02955571382678684,0
44,0.07653792945913412,0
45,0.05218498013678096,0
46,0.04045706036382944,0
47,0.028506492774252983,0
48,0.10199993410074015,0
49,0.04896977676970812,0
50,0.3561986738666743,0
51,4.627105690192234,0
52,4.985470383645877,0
53,-3.0456099506878602,0
54,1.612781968046446,0
55,-0.647139875386319,0
56,0.30674738930324685,0
57,-0.030029056642413163,0
58,0.07301237836792898,0
59,0.0907558687087495,0
60,-0.056571039357322564,0
61,0.01961003146666683,0
62,-0.0364319110246063,0
63,0.1042774640544139,0
64,-0.009294689239495118,0
65,0.01963598582684164,0
66,-0.003968069809223717,0
67,0.9902285777064481,0
68,6.444048279899859,0
69,1.5762786766282848,0
70,-1.9330929570043724,0
71,1.2354515198811244,0
72,-0.6616125137527005,0
73,0.26127076943078287,0
74,-0.07413674923868008,0
75,0.15589161521273076,0
76,0.05683937928158126,0
77,0.05086968877794033,0
78,-0.009627212286884797,0
79,0.11757725400988521,0
80,0.13848207733762605,0
81,-0.018329125668669184,0
82,0.11761513370238767,0
83,0.050467456732898014,0
84,2.5596782282160153,0
85,6.925514097070228,0
86,-1.8135741790566884,0
87,0.17406950802509236,0
88,0.19097329162201254,0
89,-0.1846643132480424,0
90,0.10496103235513934,0
91,-0.03009708610162569,0
92,0.0735248657125857,0
93,0.048817935691517635,0
94,0.04893406025370062,0
95,-0.07077577926520448,0
96,0.01679781476740827,0
97,-0.011782035413554267,0
98,0.025168182196286408,0
99,-0.13641927921982977,0
100,0.24514037519916962,0
101,4.6061154937394155,0
102,4.941284648360683,0
103,-2.976355655398977,0
104,1.6330450709041415,0
105,-0.6833535181543324,0
106,0.3358556079047909,0
107,-0.07559366369779266,0
108,0.011612050748631753,0
109,0.016768497651896704,0
110,-0.04837649516546844,0
111,0.025439512065553116,0
112,0.04148763439890034,0
113,0.12288980735596164,0
114,-0.05326372655189436,0
115,-0.028463669786182734,0
116,0.010694634670625919,0
117,0.977198884443102,0
118,6.400243366219202,0
119,1.5228256576136183,0
120,-1.8331918278530268,0
121,1.3171796993350533,0
122,-0.6538113706896442,0
123,0.33205206141996796,0
124,-0.06666558966500354,0
125,0.030262922970972665,0
126,-0.022930801979983224,0
127,0.06608629343774022,0
128,-0.006536392421541162,0
129,0.06120263580879189,0
130,0.07756326089570084,0
131,0.029635800763988945,0
132,-0.019697558829576203,0
133,0.07764638079502285,0
134,2.5188693957070765,0
135,6.872529142982459,0
136,-1.8186869215804138,0
137,0.1537720594096271,0
138,0.14224456678681804,0
139,-0.21211816872048828,0
140,0.052258872468184184,0
141,-0.08117395653450646,0
142,0.05255953189266936,0
143,-0.09154716245349795,0
144,-0.031829214276802686,0
145,-0.03850063286895512,0
146,0.0770146947405283,0
147,0.10673963493007259,0
148,-0.06273820523445911,0
149,0.04504755095359209,0
150,0.2768894510688755,0
151,4.705636435327428,0
152,4.94279942879389,0
153,-2.990039651339536,0
154,1.6042545795370213,0
155,-0.6874940707761183,0
156,0.34059266747767536,0
157,-0.053813228428462645,0
158,0.07957757714325206,0
159,0.04413914027702273,0
160,0.0017583373718316059,0
161,0.05708891888079169,0
162,-0.030697290098692452,0
163,0.03870714592713786,0
164,0.06713733374957888,0
165,0.004303266157626301,0
166,0.05040890897696119,0
167,1.1470273383142089,0
168,6.494368181563532,0
169,1.6543328935983828,0
170,-1.8156335889958517,0
171,1.3631636139484546,0
172,-0.5493987188340398,0
173,0.3832435678631595,0
174,-0.008571247810452551,0
175,0.14430161251088536,0
176,0.08917059843039456,0
177,0.07102589798405085,0
178,0.15071113515601464,0
179,0.08446541170993241,0
180,0.04951722747914261,0
181,0.15105659636603838,0
182,0.07019046772583137,0
183,0.17090372335703957,0
184,2.5401085697383397,0
185,6.853975330449098,0
186,-1.7888469271755834,0
187,0.14911402218799558,0
188,0.11210181759866719,0
189,-0.16992661035984452,0
190,0.0955370791139592,0
191,0.0638207030920077,0
192,0.014311863086762116,0
193,0.05748609534192765,0
194,0.06693352054212577,0
195,-0.03860741364292885,0
196,0.0785464552295732,0
197,0.06392425844146479,0
198,0.0629423966724385,0
199,0.07575634026416282,0
200,0.3295627246063546,0
201,4.681681984042571,0
202,4.918323998812212,0
203,-2.9941371128831324,0
204,1.5872137766071488,0
205,-0.7967236361938121,0
206,0.30744340348658716,0
207,-0.042824676701412955,0
208,0.030979059960387686,0
209,0.06766665740518911,0
210,-0.02857178634911603,0
211,0.003552975137533507,0
212,0.06390481061440355,0
213,0.021042584616440783,0
214,0.0964960084833047,0
215,-0.056478599585332585,0
216,0.041013989501700064,0
217,1.0767246634975398,0
218,6.503773511470436,0
219,1.5439470397678363,0
220,-1.8678963743432353,0
221,1.32484194830203,0
222,-0.5657756009468583,0
223,0.32487607807450025,0
224,-0.018515031635285565,0
225,0.031319458254890194,0
226,0.05852169209299908,0
227,0.09493262527028198,0
228,-0.009662687265094137,0
229,0.009860645948426864,0
230,0.016223962637642437,0
231,0.010310483644138845,0
232,-0.09112410055231943,0
233,-0.03903406297834994,0
234,2.5589514280887595,0
235,6.953236294138603,0
236,-1.928641692309306,0
237,0.21773195059698797,0
238,0.1583937193634487,0
239,-0.05640592123724372,0
240,0.11793253710931452,0
241,-0.009616217014633409,0
242,0.053265680217264556,0
243,-0.04862408301640393,0
244,0.06908390409891008,0
245,-0.03519331887726397,0
246,-0.017767599534254837,0
247,-0.038766142533084524,0
248,0.038207173061212935,0
249,-0.015093615669634866,0
250,0.2851358905546018,0
251,4.71240714751382,0
252,4.817612292201576,0
253,-3.0001366719561684,0
254,1.5139002356582567,0
255,-0.6798261220148537,0
256,0.26037185788260064,0
257,-0.10237461965913974,0
258,0.0697287823666927,0
259,0.008071106748316705,0
260,0.01777608396064002,0
261,0.040045243354262176,0
262,-0.028419550688307364,0
263,-0.04120961825939623,0
264,-0.05504477769546316,0
265,-0.018833489502433548,0
266,-0.013519696132386554,0
267,0.9732247417806549,0
268,6.436081787577247,0
269,1.4515032803672843,0
270,-1.9534009124087357,0
271,1.253804516220686,0
272,-0.5809711254780089,0
273,0.19745368689193551,0
274,-0.2052630849999481,0
275,0.09040215905841034,0
276,0.05394721201855715,0
277,0.025878753816834923,0
278,-0.051705529992741764,0
279,-0.009213104336644677,0
280,-0.03970571696049145,0
281,-0.0005221977194842173,0
282,-0.09910001297174612,0
283,-0.021965870423020197,0
284,2.47838956987237,0
285,6.791319563562106,0
286,-1.8101510802034861,0
287,0.21639103930839698,0
288,0.05247513995606096,0
289,-0.12033275859279088,0
290,-0.00999237624894986,0
291,-0.018946255505792035,0
292,-0.024817867255569583,0
293,-0.043942807974328646,0
294,-0.003352528909537675,0
295,-0.09491893315355684,0
296,0.05977672186670907,0
297,0.00010208123438918207,0
298,-0.03202198185278343,0
299,-0.04904627645806871,0
300,0.2769811053367528,0
301,4.560160324375741,0
302,4.888321865508789,0
303,-2.9586643274378726,0
304,1.5117258027438203,0
305,-0.7901015208560158,0
306,0.26578022477414553,0
307,-0.09748600229155936,0
308,0.03633671306166819,0
309,-0.07189246647664159,0
310,0.027591085975992843,0
311,0.08145317173271056,0
312,0.049432839843014005,0
313,-0.07971207311585672,0
314,0.03043979603674736,0
315,-0.08237950726009184,0
316,-0.0720860182666275,0
317,1.1271464885647207,0
318,6.441189793833321,0
319,1.2925237331503978,0
320,-1.9295315456119129,0
321,1.1150012276840067,0
322,-0.6912204804177681,0
323,0.15663117759989803,0
324,-0.20733850902527534,0
325,-0.04301990245902943,0
326,-0.004002481892158807,0
327,0.004089159162020045,0
328,0.04641443246231723,0
329,0.011780112604035782,0
330,0.002156806554615788,0
331,0.01153204360017187,0
332,-0.01801638059679056,0
333,-0.04632886734012322,0
334,2.508455269180822,0
335,6.936722420460068,0
336,-1.9082000662120098,0
337,0.2543539296542475,0
338,0.08665029410312883,0
339,-0.03860283783393301,0
340,0.09006881976426896,0
341,0.0025236292723529,0
342,0.009049904084924443,0
343,0.0470024573164698,0
344,0.09204411675800081,0
345,0.004312827910636945,0
346,0.033626621297244454,0
347,-0.023090043908058317,0
348,0.05209624805739878,0
349,-0.038531383370076375,0
350,0.3492554373115705,0
351,4.802299430621991,0
352,4.784249678145056,0
353,-2.9864180587472884,0
354,1.4941851447240893,0
355,-0.6905693533297157,0
356,0.2753464557700768,0
357,-0.17850884352499846,0
358,-0.0614979804304665,0
359,-0.05240015284833529,0
360,-0.11108742928031021,0
361,-0.03872165388285086,0
362,-0.09459945896894101,0
363,-0.12309530796476431,0
364,-0.09199555613935011,0
365,-0.09459673188676823,0
366,-0.050312114102328734,0
367,0.9412263415446951,0
368,6.404397310096787,0
369,1.341196660056244,0
370,-1.8293038375680049,0
371,1.1594958049765083,0
372,-0.6380777897611141,0
373,0.28062233226968847,0
374,-0.17873703099696178,0
375,-0.0782413815982419,0
376,0.005811860911081861,0
377,0.00013522390670678286,0
378,0.053629846760673595,0
379,-0.12771633613230277,0
380,0.03290504790751411,0
381,-0.13673082656780883,0
382,-0.08238722033057212,0
383,0.0157388008292186,0
384,2.569209070603639,0
385,6.7911531472455975,0
386,-1.9066190394899425,0
387,0.1504221499623039,0
388,0.02116647361633766,0
389,-0.15746107058174733,0
390,-0.035611975856018274,0
391,-0.07410010195474585,0
392,-0.048295657263383494,0
393,0.07030800440617177,0
394,-0.0742879615249414,0
395,-0.017615586788735156,0
396,-0.0008421058979889151,0
397,-0.02464191947053952,0
398,-0.02733061468027676,0
399,-0.05273332900441968,0
400,0.372640240296369,0
401,4.671271448957329,0
402,4.7992987286186075,0
403,-3.075163502825405,0
404,1.5899581815547414,0
405,-0.7302735425064196,0
406,0.27549029591767893,0
407,-0.17211393297167987,0
408,0.0716477034756453,0
409,-0.029674616740735942,0
410,-0.06786192144717768,0
411,-0.054664368074425866,0
412,-0.09033881587103951,0
413,-0.07238285401517029,0
414,-0.04869027327653543,0
415,-0.07708738720636826,0
416,-0.031685931737505724,0
417,1.1165556618207337,0
418,6.514762531704013,0
419,1.3870878614452706,0
420,-1.8581844118800803,0
421,1.192129540628397,0
422,-0.5855226811495997,0
423,0.2673435340639715,0
424,-0.1658192951632385,0
425,0.003301375221213071,0
426,-0.04883889521186775,0
427,-0.08258235785503465,0
428,-0.08739915505557488,0
429,-0.03072550131380955,0
430,-0.02278768298362189,0
431,-0.043241132335063874,0
432,-0.10837493587926075,0
433,-0.011183809585173997,0
434,2.543275900884311,0
435,6.83476492250438,0
436,-1.9593239669412421,0
437,0.17403179048501116,0
438,-0.022098759789605807,0
439,-0.127264517029375,0
440,0.008624960083218752,0
441,-0.09236965698536176,0
442,-0.0004114646979909778,0
443,0.011531775106395144,0
444,-0.02755350266799094,0
445,-0.024763672554332716,0
446,-0.04175726218139602,0
447,-0.06938781083472352,0
448,-0.019783758966317476,0
449,-0.07614684102145397,0
450,0.2559068846549487,0
451,4.622021261002265,0
452,4.764623785833845,0
453,-3.0483300811168124,0
454,1.4577506090347174,0
455,-0.7896563142243072,0
456,0.25864851834914326,0
457,-0.1937702768433466,0
458,0.04810690380136193,0
459,-0.043515526933669904,0
460,-0.015765690613626086,0
461,0.001320304773099662,0
462,0.009451456589729516,0
463,-0.0690509152995429,0
464,-0.08261655982471566,0
465,-0.07590161222664163,0
466,-0.10059680654530889,0
467,1.0117833861786474,0
468,6.493909833795832,0
469,1.2627744300384498,0
470,-1.9286739533841355,0
471,1.1818994749912994,0
472,-0.6869243694128943,0
473,0.19433473978622715,0
474,-0.10472349264863964,0
475,-0.052259812084207144,0
476,-0.12345243389172564,0
477,-0.05322131355371715,0
478,-0.05026443994019343,0
479,-0.001889389823058224,0
480,0.0071202065072750315,0
481,-0.056937536529911056,0
482,-0.06446073923021492,0
483,-0.0023635604091697925,0
484,2.5399706384697813,0
485,6.782553344102758,0
486,-2.122797788354459,0
487,0.2999926563873436,0
488,0.05271472710196175,0
489,-0.1940318668774329,0
490,0.07113231460349917,0
491,-0.054140130428684916,0
492,-0.030419596850829414,0
493,-0.02451484791964164,0
494,-0.11703469733613803,0
495,-0.12487391928252592,0
496,-0.08275752674007275,0
497,-0.039457283175018135,0
498,-0.11396705469247068,0
499,-0.022891850528619993,0
500,0.24482167187252457,0
501,4.692537312479922,0
502,4.767482122273015,0
503,-3.0664760913293363,0
504,1.4792189769249242,0
505,-0.7904951279471009,0
506,0.24483964870169653,0
507,-0.05236740924189889,0
508,0.04882956221592428,0
509,-0.055179387150479736,0
510,-0.058248181262795566,0
511,0.03102164904522346,0
512,-0.026863986867301497,0
513,0.0017583612104483818,0
514,-0.10577877973789693,0
515,-0.0662489976065753,0
516,-0.0725224163095059,0
517,1.1333267036617902,0
518,6.646274728320055,0
519,1.3387616856727547,0
520,-1.8058156851268317,0
521,1.105697908221427,0
522,-0.7087227778993983,0
523,0.23561502991706293,0
524,-0.08171456518011658,0
525,0.01739868347737722,0
526,0.016508032661364268,0
527,-0.017591100175007618,0
528,-0.08696292404600285,0
529,-0.010491221655231898,0
530,-0.02832458351288486,0
531,-0.08609437357747987,0
532,-0.15234690165098022,0
533,-0.11794944510178466,0
534,2.4938750909617666,0
535,6.7873232569514785,0
536,-1.9993183434827317,0
537,0.14926244278106038,0
538,-0.06756885928305759,0
539,-0.19778563334937366,0
540,-0.12700843079989033,0
541,-0.027652530159956515,0
542,-0.1421849405357588,0
543,-0.033368742263677684,0
544,-0.13517261185239748,0
545,-0.10933319050682981,0
546,-0.10551337479625836,0
547,-0.13931349596344433,0
548,-0.05138720228663367,0
549,-0.10808362035854886,0
550,0.23072178037944452,0
551,4.636214248581203,0
552,4.655868575144897,0
553,-3.196077525233556,0
554,1.47279036132702,0
555,-0.8541105265774811,0
556,0.21591617866157456,0
557,-0.19375648427769507,0
558,-0.08795450655683787,0
559,-0.09967759538690579,0
560,-0.14084599593227226,0
561,-0.11739335181025787,0
562,0.0007876055349182315,0
563,-0.13518089514707254,0
564,-0.01726244675421139,0
565,-0.04031352833653394,0
566,-0.07403000376247829,0
567,0.9765163526905253,0
568,6.455988812077558,0
569,1.1595966715713273,0
570,-1.8397424993025924,0
571,1.1100999578163457,0
572,-0.7637169442510015,0
573,0.18025266605388385,0
574,-0.06341103340533248,0
575,-0.10959524531885702,0
576,-0.09404161038725903,0
577,-0.12819634012212944,0
578,0.007811504131419789,0
579,-0.09376844110356514,0
580,-0.09810494730372166,0
581,-0.08968222507681034,0
582,-0.10214421191262592,0
583,-0.06510013864097552,0
584,2.492392226641549,0
585,6.674303656194959,0
586,-2.0375969107752137,0
587,0.16673828187282763,0
588,-0.08824847334313064,0
589,-0.2414493616466836,0
590,-0.028720961657804536,0
591,-0.2284489637454425,0
592,-0.08031734265158781,0
593,-0.11210457299385387,0
594,-0.020659593050117164,0
595,-0.0617632491615356,0
596,-0.1280205340752431,0
597,-0.04679079089413716,0
598,-0.13917022441238094,0
599,-0.05751010642355896,0
600,0.22016441911491189,0
601,4.70997101232883,0
602,4.606081854064234,0
603,-3.108677586932485,0
604,1.4385153461773048,0
605,-0.9876434861501723,0
606,0.29297874578273914,0
607,-0.24163691643927168,0
608,-0.07826747577040016,0
609,-0.12336055073080027,0
610,-0.17224528302431125,0
611,-0.12673470198317377,0
612,-0.18146044682989704,0
613,-0.14790056080892441,0
614,-0.19325826528256543,0
615,-0.11963841600318736,0
616,-0.05765028167350705,0
617,0.9734987670237701,0
618,6.389919968916337,0
619,1.0777192204133759,0
620,-1.8968018727908782,0
621,1.1260064663705114,0
622,-0.7108016291190277,0
623,0.16837917669949834,0
624,-0.22051774695563542,0
625,-0.19241186921456735,0
626,-0.14784186734713012,0
627,-0.11580998258939339,0
628,-0.12787218956885316,0
629,-0.16933234840885375,0
630,-0.17542285621563034,0
631,-0.0940287615018692,0
632,-0.1326953815053146,0
633,-0.07890490354190582,0
634,2.4449960153461534,0
635,6.708558165541978,0
636,-2.1314494712891587,0
637,0.17188084010157423,0
638,-0.04569332776686674,0
639,-0.1167134294434291,0
640,-0.10247594750282399,0
641,-0.10317235361096429,0
642,-0.1291525062135789,0
643,-0.08212402209122047,0
644,0.02694440824294786,0
645,-0.10615968543692633,0
646,-0.059205618771478626,0
647,-0.0389658666337596,0
648,-0.12077051120069952,0
649,-0.12798339728974106,0
650,0.2402727951446085,0
651,4.563535888877567,0
652,4.600016724455715,0
653,-3.095198420194636,0
654,1.4852407487942427,0
655,-0.7639132960088757,0
656,0.22450249128310482,0
657,-0.18985960581767897,0
658,0.08342783270210014,0
659,-0.05671699804926326,0
660,-0.07592229611456798,0
661,-0.0265943869059804,0
662,-0.06652304561826554,0
663,-0.021171453936982422,0
664,-0.03305800939454476,0
665,-0.02161465647320228,0
666,-0.004022003166981425,0
667,1.0181742518462782,0
668,6.545364711759988,0
669,1.1286536177431437,0
670,-1.8316976193859682,0
671,1.1731184727188246,0
672,-0.6670964919826292,0
673,0.16899498829985493,0
674,-0.1393743386903502,0
675,-0.02662085794440627,0
676,-0.08875133678403654,0
677,-0.03633746724314557,0
678,0.03211420540875308,0
679,-0.07079084306672959,0
680,-0.029302679574312387,0
681,0.014456145069082424,0
682,-0.09603442891399008,0
683,0.00036445855984032494,0
684,2.5327005828378866,0
685,6.764560006678907,0
686,-2.0192764801716026,0
687,0.2938932934205062,0
688,0.010743719362064183,0
689,-0.17225032689253517,0
690,-0.008630420700512287,0
691,-0.09414267984298443,0
692,-0.09779372857999613,0
693,-0.025170613571632264,0
694,-0.10219246014657674,0
695,-0.10605916652090314,0
696,-0.13093416140063036,0
697,0.0023620698354732406,0
698,-0.051054465058494924,0
699,-0.026510499010616244,0
700,0.270630495929033,0
701,4.727694666300206,0
702,4.7035354782718475,0
703,-3.061087091462634,0
704,1.6040894162934272,0
705,-0.8001490803985152,0
706,0.33804430027513255,0
707,-0.15232726090601006,0
708,-0.00988251171346687,0
709,-0.03301208348544155,0
710,-0.027742709039735358,0
711,-0.044348157471797774,0
712,0.020172632822681977,0
713,-0.03853355098047831,0
714,-0.04367822341638606,0
715,0.009378561449862884,0
716,-0.06733893917976229,0
717,1.048335212096388,0
718,6.547041164038885,0
719,1.1307213856399907,0
720,-1.6731899061091302,0
721,1.0732964796702436,0
722,-0.7076542949681222,0
723,0.19972857906225522,0
724,-0.2077167629187091,0
725,-0.05678460682704026,0
726,0.044274333671730746,0
727,0.05185426331202552,0
728,0.03690868636239712,0
729,0.021274689288356165,0
730,0.019130713506664995,0
731,-0.06375702230684459,0
732,0.045608800422565834,0
733,0.02171165927295972,0
734,2.635622767468889,0
735,6.704724046391837,0
736,-2.0004065510953373,0
737,0.21369053127566573,0
738,0.07650779471372028,0
739,-0.13152946573299618,0
740,-0.10372614054046318,0
741,-0.06217392589730064,0
742,-0.1791958635166437,0
743,0.0007995136497944769,0
744,-0.07765783259329101,0
745,-0.08368701714482595,0
746,0.003651238625700208,0
747,-0.06674182017943847,0
748,-0.0606438640802712,0
749,0.03209140278434007,0
750,0.3194162547012808,0
751,4.758809802717047,0
752,4.650432620652891,0
753,-2.984850429499615,0
754,1.5531045776375207,0
755,-0.7126316965013669,0
756,0.32723550761150794,0
757,-0.024215875621119043,0
758,0.07687401824941098,0
759,0.04614934725918436,0
760,0.0038985140317363462,0
761,-0.03563152832323964,0
762,-0.01053155453690327,0
763,0.00653759246110637,0
764,-0.030291342525091497,0
765,-0.09925852848671272,0
766,-0.047108866990057535,0
767,1.0765143812709468,0
768,6.588607592205198,0
769,1.2107627051458916,0
770,-1.806148307000833,0
771,1.270776842261089,0
772,-0.6547920558890697,0
773,0.22683124077481698,0
774,-0.14166273522500716,0
775,0.03511093675399289,0
776,-0.029903504982104298,0
777,-0.04990766377204069,0
778,0.0771710178433157,0
779,0.030588925089846376,0
780,-0.05046681031357004,0
781,0.056980165542364285,0
782,0.13146122862863543,0
783,-0.0357345049713953,0
784,2.682298973035555,0
785,6.788716812680297,0
786,-2.027138128402606,0
787,0.42697425577015025,0
788,0.030878209601185577,0
789,-0.020277338517013185,0
790,-0.001639301655153913,0
791,0.09825803464730432,0
792,0.046686474984678226,0
793,-0.0475353855507296,0
794,0.08043288583533947,0
795,-0.013166015636342253,0
796,0.015155486159908391,0
797,0.019081075011855242,0
798,0.00896161875535775,0
799,0.05418811109059368,0
800,0.32280982135509884,0
801,4.838975683144371,0
802,4.627322941248941,0
803,-2.9868463432021373,0
804,1.564264750985016,0
805,-0.8064543472607659,0
806,0.42404445250083117,0
807,-0.09830674562991805,0
808,0.011612711284661605,0
809,-0.1146100446418081,0
810,-0.03485319995816541,0
811,0.019736429348045342,0
812,0.048275489260836135,0
813,-0.02410877413455028,0
814,-0.015151049827314557,0
815,0.01281942798032602,0
816,0.04291680007981921,0
817,1.1679872726449303,0
818,6.603718017193139,0
819,1.182933909508594,0
820,-1.6832896281305485,0
821,1.1941876450018567,0
822,-0.6185454016273843,0
823,0.37074478671324,0
824,-0.09729583339304176,0
825,0.009529267536450475,0
826,-0.08507031516487236,0
827,0.025650811021852644,0
828,-0.08606351875649981,0
829,-0.012382685430311319,0
830,0.03110986960371039,0
831,-0.04690373705585495,0
832,0.014597968102723825,0
833,0.006428822940210854,0
834,2.738994957641236,0
835,6.784064282906878,0
836,-2.057130038482956,0
837,0.4342919197953206,0
838,-0.013927823913651022,0
839,-0.07388701924463106,0
840,0.07533183378432706,0
841,0.0035563087019895925,0
842,0.04366087736031357,0
843,0.00026152064005642225,0
844,0.06305010287393352,0
845,0.02247816978105077,0
846,-0.11724188061012224,0
847,0.05491886985369723,0
848,0.007898270576633976,0
849,0.03201255033152235,0
850,0.29646252205385903,0
851,4.861468313338446,0
852,4.657426031765036,0
853,-2.9646576632231714,0
854,1.5888385331844574,0
855,-0.7382595371450908,0
856,0.32559032159488444,0
857,-0.013472401353205363,0
858,0.05195972936809563,0
859,0.026642593472801943,0
860,0.037043626100994514,0
861,-0.05158323883654467,0
862,-0.03230890408307703,0
863,0.044648281160423284,0
864,-0.03713497711498455,0
865,0.04744751585608921,0
866,-0.0068294314804563,0
867,1.128991631814986,0
868,6.514259225380027,0
869,1.1959777994704759,0
870,-1.7991632716872403,0
871,1.1128489880021015,0
872,-0.5900478274424373,0
873,0.24741773170622752,0
874,-0.030710309501596776,0
875,-0.023856943689814357,0
876,0.019852429340923634,0
877,-0.0353166588601575,0
878,0.012786500991104724,0
879,-0.0033035011441142808,0
880,0.04322187325394571,0
881,0.01190934274843835,0
882,0.029465210932982072,0
883,0.03129470146694903,0
884,2.780020001034291,0
885,6.873511815891798,0
886,-2.046333891129937,0
887,0.45119878728056745,0
888,0.06239475130551307,0
889,-0.014492957545167797,0
890,0.07835071711985586,0
891,0.055774723881342005,0
892,0.02143144506659207,0
893,0.09685751682467912,0
894,0.04015024536292772,0
895,0.055669548841427816,0
896,0.006501003097352014,0
897,-0.04400203315566889,0
898,0.10814869253595737,0
899,0.030295746630261678,0
900,0.29414770182423716,0
901,4.916579943732247,0
902,4.670555805788764,0
903,-2.8850087137913962,0
904,1.5203041474687837,0
905,-0.6842272688764581,0
906,0.3923708900996,0
907,-0.04736548538659051,0
908,0.1292439799250367,0
909,0.08060001116590168,0
910,-0.015801391812295465,0
911,0.07725153428538871,0
912,0.018027706982106206,0
913,-0.03767099936155028,0
914,0.07860107401786838,0
915,-0.020486905314963662,0
916,-0.07834228266604654,0
917,1.12427454189619,0
918,6.581700308752706,0
919,1.0893530502859001,0
920,-1.706276353677212,0
921,1.1450314932926897,0
922,-0.5884460098829801,0
923,0.30122651210816914,0
924,-0.07602910595756696,0
925,-0.008569634370533614,0
926,0.0393536548321569,0
927,0.041418181257579,0
928,0.06690362846245712,0
929,0.11142665738818357,0
930,0.05137027037889767,0
931,0.054959662307827194,0
932,0.2089333240273581,0
933,0.1943268047430866,0
934,2.8198782082684355,0
935,6.8642537845746245,0
936,-2.0291353507321266,0
937,0.47359880333294524,0
938,0.10622994573008931,0
939,-6.0292948936387786e-05,0
940,-0.004705134478150172,0
941,0.004879746470861153,0
942,0.05078222827612183,0
943,0.04002971363233482,0
944,-0.050757264306743446,0
945,-0.06981845369981499,0
946,-0.0159988711056323,0
947,-0.10303739380240765,0
948,-0.08099236472735158,0
949,0.00814271527703439,0
950,0.21252201095048714,0
951,4.847592099563975,0
952,4.6524785225144285,0
953,-2.9879290427304035,0
954,1.4962417291551338,0
955,-0.8080574423149288,0
956,0.33091426061778423,0
957,-0.10325069661003711,0
958,0.10842036675583475,0
959,0.1401712022228864,0
960,0.060312726491465476,0
961,0.04111643530107538,0
962,-0.03717762462308105,0
963,0.03919236727476795,0
964,0.03964012613568974,0
965,-0.02385797605877403,0
966,0.05246809194534034,0
967,1.1928797365229393,0
968,6.584625178425657,0
969,1.0958248740446808,0
970,-1.7479950720773425,0
971,1.1063717822384433,0
972,-0.5800572304206097,0
973,0.1986852777837266,0
974,-0.08688685422473119,0
975,-0.034860995087714355,0
976,0.02263102438154231,0
977,0.01928798551185407,0
978,0.011183022751459585,0
979,-0.013135020427842927,0
980,0.03712715503556752,0
981,-0.039842100323511334,0
982,-0.07681675661189286,0
983,0.003749006739770893,0
984,2.691349791109,0
985,6.745454810063844,0
986,-2.2057244637258395,0
987,0.3353778579225523,0
988,0.028793259384476966,0
989,-0.13612255861902012,0
990,0.003071216316670275,0
991,0.01344669362106854,0
992,-0.09844051171056793,0
993,-0.1026824797973274,0
994,-0.00463811788703334,0
995,-0.10435630837707849,0
996,0.02166036975079368,0
997,0.0017174059612632825,0
998,0.01766217404432129,0
999,0.0023381476018183855,0
1000,0.31458981159158633,0
1001,4.934461903890254,0
1002,4.586168290938847,0
1003,-2.9833588733048337,0
1004,1.5550902654998426,0
1005,-0.7806686183073185,0
1006,0.29896147919323585,0
1007,-0.2053799400270901,0
1008,-0.048373435117358095,0
1009,-0.08026224875411424,0
1010,-0.08075449265544965,0
1011,-0.16733815335870594,0
1012,-0.12059735719217977,0
1013,-0.075240719467147,0
1014,-0.004669245419799184,0
1015,-0.06291561564612096,0
1016,-0.11110602270606058,0
1017,1.0370672603992512,0
1018,6.51137750984139,0
1019,0.981936071932941,0
1020,-1.7545112440481294,0
1021,1.0256416923045595,0
1022,-0.765920809899509,0
1023,0.22233854956298565,0
1024,-0.1993261833073285,0
1025,-0.08546843186458021,0
1026,-0.03864415123145047,0
1027,-0.038444716592865975,0
1028,-0.04953761350121598,0
1029,-0.06950494840392604,0
1030,-0.03910363601914835,0
1031,0.07211354013460299,0
1032,-0.008900928370279483,0
1033,0.07086547239892291,0
1034,2.7405878930449123,0
1035,6.636248291913058,0
1036,-2.1227611646104814,0
1037,0.4492448542885662,0
1038,-0.012716645898566206,0
1039,-0.040945454786256455,0
1040,-0.02857300687630136,0
1041,-0.05161501735308881,0
1042,-0.15352653570938324,0
1043,-0.016129649344596007,0
1044,-0.09483649632463075,0
1045,-0.0390954695558856,0
1046,0.02181625860725607,0
1047,-0.08008036176647697,0
1048,-0.052859596969624986,0
1049,-0.024419583896515384,0
1050,0.26746343608064377,0
1051,4.8405834023654695,0
1052,4.561295187431607,0
1053,-3.012210443891817,0
1054,1.5119618691641703,0
1055,-0.8619329920086048,0
1056,0.1599975543697088,0
1057,-0.20092861036698093,0
1058,-0.08939473197782338,0
1059,-0.07588951931456747,0
1060,-0.16315408294668768,0
1061,-0.1446039705459938,0
1062,-0.06469783792128589,0
1063,-0.1513643618137646,0
1064,-0.1393787264615119,0
1065,-0.10174772609057077,0
1066,-0.1613327825543059,0
1067,1.0031621417366394,0
1068,6.544993902607545,0
1069,0.95454011825168,0
1070,-1.8476828545364314,0
1071,1.047894807313982,0
1072,-0.7309706289779071,0
1073,0.09911595371414857,0
1074,-0.1584279649595594,0
1075,-0.10481432548363723,0
1076,-0.08657509583950442,0
1077,-0.09661566828486809,0
1078,-0.052774101070370436,0
1079,-0.04422309128833045,0
1080,0.018980382073506566,0
1081,-0.039535790514227814,0
1082,-0.14366522247502717,0
1083,-0.06482021060521612,0
1084,2.689805377043876,0
1085,6.706601793842709,0
1086,-2.2164183845713765,0
1087,0.3700627446589286,0
1088,-0.10923619220408626,0
1089,-0.0723469955547763,0
1090,-0.1386958099110333,0
1091,0.026116501676279942,0
1092,-0.11511287627272064,0
1093,0.033067481851051975,0
1094,-0.06658754977959297,0
1095,-0.0714098192732757,0
1096,0.06751444291623958,0
1097,-0.029821308172187897,0
1098,-0.03689524921550811,0
1099,-0.1510677294685547,0
1100,0.2973497578418396,0
1101,4.807973221274578,0
1102,4.494081394896386,0
1103,-3.0092397576762386,0
1104,1.513862394044065,0
1105,-0.8649991084684399,0
1106,0.09451928975961628,0
1107,-0.28596653205112665,0
1108,-0.07218945918326539,0
1109,-0.11982330075578684,0
1110,-0.0772841171588472,0
1111,-0.15222052896251656,0
1112,-0.14566431910374544,0
1113,-0.16657946984578886,0
1114,-0.13481951909995657,0
1115,-0.18039745099434046,0
1116,-0.04740821332177795,0
1117,1.0093731592452935,0
1118,6.553495734774262,0
1119,0.8701547989691376,0
1120,-1.6908181032252898,0
1121,1.095317218565376,0
1122,-0.632420950380108,0
1123,0.17334531829646938,0
1124,-0.09133653804539404,0
1125,-0.051994054225332306,0
1126,-0.05157993171989507,0
1127,-0.026710566790678326,0
1128,-0.04575382055616095,0
1129,-0.09988838151643235,0
1130,-0.10339531358414641,0
1131,-0.10118645281479127,0
1132,-0.06587946446716103,0
1133,-0.09034951407180644,0
1134,2.6990285325680214,0
1135,6.618854349498278,0
1136,-2.2181124807469446,0
1137,0.3862471822875204,0
1138,-0.00046641548919168496,0
1139,-0.003468169618361161,0
1140,-0.08583929180165994,0
1141,-0.12170321146753109,0
1142,-0.08805191948229568,0
1143,-0.001315121695896454,0
1144,-0.0896972523992319,0
1145,-0.03293987974340433,0
1146,-0.0415067557495686,0
1147,-0.059573554985504436,0
1148,0.001725278665094289,0
1149,-0.07376128955650019,0
1150,0.2719950789724734,0
1151,4.96511402356605,0
1152,4.513941788318806,0
1153,-2.9206243829817127,0
1154,1.5702866674534248,0
1155,-0.7861219795534246,0
1156,0.2881667201533369,0
1157,-0.08197538444965854,0
1158,0.03501128349777849,0
1159,-0.03630685283391147,0
1160,-0.0722244601021182,0
1161,0.04586642559435607,0
1162,-0.003299807443137794,0
1163,-0.06633685864910813,0
1164,0.07765083170647027,0
1165,0.04680307680278153,0
1166,0.06615164088499982,0
1167,1.0399999564120705,0
1168,6.64804690894467,0
1169,0.9097869213806987,0
1170,-1.6720860719843493,0
1171,1.2378866541427902,0
1172,-0.5440005890951666,0
1173,0.23374242622908414,0
1174,-0.06853613378584855,0
1175,0.035512857966602855,0
1176,-0.035660518001352656,0
1177,0.005802353492907973,0
1178,0.07040827608302463,0
1179,-0.0521028177022606,0
1180,-0.04137450682943544,0
1181,0.014375534835247287,0
1182,0.007808472416450271,0
1183,0.08736602750065056,0
1184,2.7027015858897503,0
1185,6.7732101535074145,0
1186,-2.182035766316662,0
1187,0.5135376764858626,0
1188,-0.09852467217373119,0
1189,0.0738698981586216,0
1190,0.01853430555341277,0
1191,-0.02933701913477297,0
1192,-0.10071025839256863,0
1193,0.09846443337740529,0
1194,0.11154341131767909,0
1195,-0.021122440514048796,0
1196,0.036493352790616405,0
1197,0.08023808987917605,0
1198,0.10097690067418355,0
1199,-0.024036554803721903,0
1200,0.4649232722935177,0
1201,4.966924203038793,0
1202,4.563612251611979,0
1203,-2.939995349891417,0
1204,1.6880802050024104,0
1205,-0.686114677316556,0
1206,0.38352171153635223,0
1207,-0.05858086353641233,0
1208,0.03715854946653592,0
1209,0.03830303213766283,0
1210,0.030980756694052456,0
1211,0.057757545892652834,0
1212,-0.039477472239541414,0
1213,0.04420703720095362,0
1214,-0.009888848940676022,0
1215,-0.06654675574992175,0
1216,0.0688095777031659,0
1217,1.0724418879529605,0
1218,6.641198825442276,0
1219,0.9632100269899755,0
1220,-1.5469813889381054,0
1221,1.1846804756402507,0
1222,-0.49162905400700396,0
1223,0.3821704018110607,0
1224,-0.060495882505833695,0
1225,0.1712197450063235,0
1226,0.09580461170502423,0
1227,0.13225871417921853,0
1228,0.06087882164631072,0
1229,0.17880812698792842,0
1230,0.11470237559588899,0
1231,0.08290249745658326,0
1232,0.06314725739288017,0
1233,0.1806300270968841,0
1234,2.840235961529829,0
1235,6.81201074538099,0
1236,-2.062899310550505,0
1237,0.600015485324584,0
1238,0.10998063520599977,0
1239,0.025708301349035206,0
1240,0.15466143470954902,0
1241,0.0818306124074823,0
1242,0.06520814749545502,0
1243,0.07026610492038919,0
1244,-0.030566999605356034,0
1245,0.09100403772714222,0
1246,0.09986480504003695,0
1247,0.047472399485097086,0
1248,0.19387451168020797,0
1249,0.03440288634384718,0
1250,0.4329641239336486,0
1251,4.983838095297876,0
1252,4.706782966978065,0
1253,-2.9490936275444244,0
1254,1.6712698470271838,0
1255,-0.736301473086339,0
1256,0.3749977076607365,0
1257,0.0036610927329617238,0
1258,0.08898619413151151,0
1259,0.10294378128047321,0
1260,0.06713202104671076,0
1261,0.09824959904553919,0
1262,0.12520806751013816,0
1263,0.04133673776409848,0
1264,0.05100759929453401,0
1265,0.07727973768654275,0
1266,0.12379335209079931,0
1267,1.2556925612827297,0
1268,6.665401692452109,0
1269,0.9951814583255186,0
1270,-1.5152051680429752,0
1271,1.113092493002842,0
1272,-0.45730981100962587,0
1273,0.3000209812990761,0
1274,-0.06969717329024706,0
1275,0.011543693461897035,0
1276,-0.006165266699968822,0
1277,0.1135108310612665,0
1278,0.042421939842648464,0
1279,0.09977097844145066,0
1280,0.02102235111823837,0
1281,-0.056275723495340636,0
1282,0.15953419944975616,0
1283,0.1320080082226433,0
1284,2.89274639272685,0
1285,6.771287789509408,0
1286,-2.135838371846646,0
1287,0.5248488871991241,0
1288,0.056078502978765335,0
1289,0.024731759197521352,0
1290,0.004659910682745183,0
1291,0.08549466248040524,0
1292,0.07372479906433013,0
1293,0.05182558322183911,0
1294,0.023543376206706816,0
1295,0.012073241597241338,0
1296,0.18954987782187846,0
1297,0.09492016983999714,0
1298,0.05511090404822442,0
1299,0.03565247004023493,0
1300,0.4602412467455772,0
1301,5.059717647752517,0
1302,4.5356469477040955,0
1303,-2.928901332857797,0
1304,1.6671742593402339,0
1305,-0.7525943036704805,0
1306,0.3427949516302353,0
1307,-0.11340026350358122,0
1308,0.08319165073678364,0
1309,0.12955227610012054,0
1310,0.04339654161601257,0
1311,-0.0337139129795123,0
1312,0.033128837514261135,0
1313,0.14829181970093985,0
1314,0.030255495292582025,0
1315,0.10455192947419492,0
1316,0.09403339649102704,0
1317,1.3320375005578267,0
1318,6.7069127360606275,0
1319,0.9556354310259753,0
1320,-1.6103623721018074,0
1321,1.1805989027674018,0
1322,-0.5043681511750739,0
1323,0.35535049333578433,0
1324,-0.07812471997811582,0
1325,0.14524842964646367,0
1326,0.05344743349591928,0
1327,0.03784635835465794,0
1328,0.08208222483847041,0
1329,0.06971120308568435,0
1330,0.06230920277476039,0
1331,0.02549282266062619,0
1332,0.016770061951835308,0
1333,0.08900879825252403,0
1334,2.8720979184879067,0
1335,6.8312496727818495,0
1336,-2.186514491225765,0
1337,0.5483384287826407,0
1338,-0.0277644619438131,0
1339,0.03412563776490257,0
1340,-0.01596959446735269,0
1341,0.028840710180900144,0
1342,-0.03046297420234658,0
1343,-0.10262281119699752,0
1344,-0.10676737020532182,0
1345,-0.0025460168022359737,0
1346,0.1251402392506597,0
1347,0.05120974458505863,0
1348,-0.09099256472578207,0
1349,-0.015706386164647087,0
1350,0.44673791977716915,0
1351,4.989138897261013,0
1352,4.512236702088925,0
1353,-3.003225053891745,0
1354,1.5850390223847728,0
1355,-0.7126430393000824,0
1356,0.3268093426150801,0
1357,-0.03571425334296788,0
1358,-0.01265377942265826,0
1359,0.012900659126972384,0
1360,0.13492894860308152,0
1361,-0.06534064200467113,0
1362,0.06341439641792904,0
1363,0.0202199484087543,0
1364,0.030684813818390954,0
1365,0.0002575516762866534,0
1366,0.04667961345953384,0
1367,1.1890549463767877,0
1368,6.681405357664933,0
1369,0.9612595680135518,0
1370,-1.4710250978994734,0
1371,1.1534612199100642,0
1372,-0.5768937810008647,0
1373,0.2908468747767513,0
1374,0.038953014285379145,0
1375,0.07906176224092148,0
1376,-0.02804949488893509,0
1377,-0.037443372348942586,0
1378,0.006743085333094895,0
1379,-0.03729435034542315,0
1380,0.04283766720641009,0
1381,-0.051553178912046735,0
1382,-0.028765527108568705,0
1383,-0.0069902829023672786,0
1384,2.878273111439447,0
1385,6.722660836180602,0
1386,-2.1093797831427032,0
1387,0.4947531737166408,0
1388,-0.009096904973938658,0
1389,0.03975120968381162,0
1390,0.012121177555785578,0
1391,-0.08455006959417238,0
1392,-0.048812021266667505,0
1393,-0.07527754669998117,0
1394,0.007487826742226169,0
1395,0.015978911839950215,0
1396,0.02440584829311019,0
1397,-0.038228388059387934,0
1398,-0.04237030567461486,0
1399,0.02821051771143891,0
1400,0.3631656274881703,0
1401,4.92774546190079,0
1402,4.484035059393399,0
1403,-2.961996789548605,0
1404,1.627278412510849,0
1405,-0.783111141787168,0
1406,0.17850282959752245,0
1407,-0.19918151707979426,0
1408,-0.029932020274468424,0
1409,-0.02691105234118594,0
1410,-0.014377898609529843,0
1411,0.02867831221415754,0
1412,0.045630772762502395,0
1413,-0.03978339395040822,0
1414,-0.05583902772884487,0
1415,-0.06018043330332208,0
1416,0.0715291310566265,0
1417,1.1026911408631994,0
1418,6.6772378382618065,0
1419,0.8241437549407267,0
1420,-1.6100421089856836,0
1421,1.105666202389406,0
1422,-0.5874881161878758,0
1423,0.25814543648652094,0
1424,-0.10827192367719617,0
1425,-0.09746557708937909,0
1426,-0.019935980487123965,0
1427,0.012575398935165846,0
1428,-0.0614816635695794,0
1429,-0.054159288754213844,0
1430,-0.004206910573779612,0
1431,0.0010652699048355752,0
1432,-0.030632083491201213,0
1433,0.008889137832870058,0
1434,2.8248016474232984,0
1435,6.741913580737172,0
1436,-2.210381323926765,0
1437,0.39313036792591505,0
1438,-0.07970746038774731,0
1439,0.027739078208882932,0
1440,-0.03493780864037118,0
1441,-0.08410525874837817,0
1442,0.036510073524318384,0
1443,0.038060145350594154,0
1444,0.006424117536439927,0
1445,0.016692728829712657,0
1446,0.035460588421811635,0
1447,0.025159422209564984,0
1448,0.054341086832699226,0
1449,0.06511470913617595,0
1450,0.43133738260983145,0
1451,5.05160408778981,0
1452,4.405863171446638,0
1453,-2.9547937822809818,0
1454,1.602844085553116,0
1455,-0.7609201608020569,0
1456,0.2911366839057374,0
1457,-0.08390823446155415,0
1458,0.03997321143631129,0
1459,0.025798011676695015,0
1460,-0.012353348357734332,0
1461,0.007280575935920167,0
1462,0.138023424967797,0
1463,-0.04527914318211239,0
1464,0.09407663987076509,0
1465,0.06721359575351113,0
1466,0.02532555070176451,0
1467,1.2852423995297055,0
1468,6.731118738959625,0
1469,0.9216853775375903,0
1470,-1.5036010620056326,0
1471,1.151108079162071,0
1472,-0.45716479574308316,0
1473,0.2872894480928883,0
1474,0.022997221751064743,0
1475,0.10740951735500026,0
1476,0.06833635893333395,0
1477,0.07888069399665712,0
1478,0.04915428938289556,0
1479,0.08673958310172378,0
1480,0.09690076991484906,0
1481,-0.04970905991178133,0
1482,0.12059881236125009,0
1483,0.06811171924488743,0
1484,2.9284856706831053,0
1485,6.685252180541415,0
1486,-2.204101782190596,0
1487,0.737622274407411,0
1488,0.08982292217234997,0
1489,0.0456530090789872,0
1490,0.07118967488739471,0
1491,0.10254916251803976,0
1492,0.025044981655634672,0
1493,0.08333155459991866,0
1494,0.1208861102603768,0
1495,0.0020910261409856426,0
1496,-0.010542228895691015,0
1497,0.11959315927227307,0
1498,0.1255797080650469,0
1499,-0.09794128615311345,0
1500,0.44780235179844297,0
1501,5.102231883204168,0
1502,4.460646907161637,0
1503,-3.008854804216001,0
1504,1.625146784358325,0
1505,-0.6856588548245739,0
1506,0.2476493407849384,0
1507,-0.04740722776775211,0
1508,0.09524962057203695,0
1509,-0.012830113445686235,0
1510,-0.004361164057547613,0
1511,0.0931720465287944,0
1512,0.06413975171477707,0
1513,0.012997981701133046,0
1514,0.08111834049027777,0
1515,0.0822202385286562,0
1516,0.012339827795067274,0
1517,1.295831729416172,0
1518,6.680011181025625,0
1519,0.8705679753503315,0
1520,-1.534693775798566,0
1521,1.0427232708663277,0
1522,-0.5082535420962805,0
1523,0.24646482867324804,0
1524,-0.028641608036841314,0
1525,0.051622501444385994,0
1526,0.15935614590812935,0
1527,0.02075958729980879,0
1528,0.02994488819443127,0
1529,0.0024995550291139687,0
1530,0.08464968813087298,0
1531,0.11303079777499209,0
1532,0.045594514452663874,0
1533,0.16562271589885802,0
1534,2.8896423203650516,0
1535,6.70453274687474,0
1536,-2.280419096400595,0
1537,0.5655569518425617,0
1538,-0.05749299138621594,0
1539,0.0528848611587768,0
1540,0.02613455516808824,0
1541,0.054706102562212075,0
1542,-0.036032091814146475,0
1543,-0.06190747907933436,0
1544,0.029315058245419405,0
1545,0.0020800185777163707,0
1546,0.09689334608203432,0
1547,0.013640441820956466,0
1548,0.03974406512357117,0
1549,0.013550305741306227,0
1550,0.3939693489815412,0
1551,5.085386012076961,0
1552,4.333864591462279,0
1553,-2.8828397585343484,0
1554,1.6487041403800802,0
1555,-0.6666425514574844,0
1556,0.38246449626197193,0
1557,-0.11613881973686298,0
1558,0.07220956553091772,0
1559,0.08777151064872123,0
1560,0.1460386418783366,0
1561,0.07598517757162411,0
1562,0.0454801360695914,0
1563,0.10776596031524788,0
1564,0.10450693698752028,0
1565,0.11226358985928675,0
1566,0.009373024595702606,0
1567,1.3195553416782257,0
1568,6.78099809455339,0
1569,0.7847624879307806,0
1570,-1.4452151461831146,0
1571,1.0087438718536816,0
1572,-0.5183663389841443,0
1573,0.3070073805072277,0
1574,0.017108585918845037,0
1575,0.08798239345511014,0
1576,0.027576526016763386,0
1577,-0.029367323511571147,0
1578,0.05108822982315104,0
1579,0.05086926208067054,0
1580,-0.003085136993207605,0
1581,-0.04908676691526177,0
1582,-0.03116273859586823,0
1583,-0.0009076766445162282,0
1584,2.9724435530143363,0
1585,6.8125521184661935,0
1586,-2.1917382152012124,0
1587,0.576040054984787,0
1588,-0.01016311080297543,0
1589,0.1757348024522233,0
1590,0.1099523410291206,0
1591,0.13362225817477985,0
1592,0.06193568241705,0
1593,0.17640832237719406,0
1594,0.15580490379858242,0
1595,0.11481967496522957,0
1596,0.056402026138960164,0
1597,-0.03901474958623234,0
1598,0.07525208250709768,0
1599,0.10554855002298794,0
1600,0.5171530247415761,0
1601,5.086769479857965,0
1602,4.397475900101883,0
1603,-2.849653073792689,0
1604,1.574166470237303,0
1605,-0.6819092603798614,0
1606,0.3821491754194757,0
1607,0.016945542074248685,0
1608,0.11417878406494407,0
1609,0.08287622882909713,0
1610,0.09587158538683699,0
1611,0.1486691956478412,0
1612,0.11014014688698465,0
1613,0.0836756200919554,0
1614,0.08765988254934695,0
1615,0.0797813225302346,0
1616,0.10359484113035602,0
1617,1.353553509332748,0
1618,6.776831100347954,0
1619,0.7785474811153302,0
1620,-1.5870845820364297,0
1621,1.0701716598141187,0
1622,-0.482936479916212,0
1623,0.2777702445046212,0
1624,-0.07403150058974187,0
1625,-0.011688302095470136,0
1626,0.062432611928863,0
1627,0.10929922234455934,0
1628,0.09116708770148405,0
1629,0.05942538197028195,0
1630,-0.030652316093059892,0
1631,0.011376755574774107,0
1632,0.07918417965067182,0
1633,0.08648054374227741,0
1634,2.907789932524465,0
1635,6.706506416443954,0
1636,-2.2963086549278184,0
1637,0.5350089427082746,0
1638,-0.04448180420147452,0
1639,0.044316514765150194,0
1640,0.0061491142376987485,0
1641,0.11584011842231492,0
1642,-0.02924742139528262,0
1643,-0.08406096841557475,0
1644,-0.020864179814629794,0
1645,-0.04328377567225991,0
1646,0.04582912331215354,0
1647,-0.06402731150800653,0
1648,0.006066871227581627,0
1649,-0.034462773247607645,0
1650,0.4125489281748583,0
1651,5.102182580583111,0
1652,4.394892118104247,0
1653,-2.887178591541696,0
1654,1.5742870862641762,0
1655,-0.9144066997568402,0
1656,0.3027662437059766,0
1657,-0.19122070974222044,0
1658,0.027807289524066265,0
1659,-0.07599340478465004,0
1660,0.1181649606559017,0
1661,-0.0666299472481143,0
1662,0.06085039573082866,0
1663,0.022844935923210522,0
1664,0.03086475702279931,0
1665,0.04136614485673494,0
1666,0.020482826094906495,0
1667,1.3135425928847413,0
1668,6.665212058457107,0
1669,0.7413643167687304,0
1670,-1.51363192102376,0
1671,1.0861031707926263,0
1672,-0.43430556071548665,0
1673,0.24285289614508676,0
1674,-0.06526197491033178,0
1675,-0.0019531504952083265,0
1676,0.1482725269437809,0
1677,0.03658336592757592,0
1678,-0.07712976931519613,0
1679,0.05881665747266687,0
1680,0.06103706904305484,0
1681,0.06519876642574968,0
1682,0.05422351078153851,0
1683,0.021442330893651274,0
1684,3.0152051252374883,0
1685,6.621253903701186,0
1686,-2.2802069857435576,0
1687,0.6832291233977207,0
1688,-0.031232607165916235,0
1689,-0.049050573333418196,0
1690,0.06043727229415298,0
1691,0.0050490924262632025,0
1692,0.01021895060119149,0
1693,-0.0037084679528778365,0
1694,-0.03365594184899205,0
1695,0.06852762407345439,0
1696,0.019355965496183285,0
1697,0.0224789753369568,0
1698,0.04922881925735359,0
1699,0.02251668668379527,0
1700,0.31029112407076587,0
1701,5.030338973011495,0
1702,4.438146728132432,0
1703,-2.959976757374613,0
1704,1.6563355424365327,0
1705,-0.7375583715179922,0
1706,0.3559376992043798,0
1707,-0.06974028361425683,0
1708,0.11152566069992924,0
1709,0.028572658796487283,0
1710,-0.012877927610325256,0
1711,0.004772965926158814,0
1712,0.013533913883607161,0
1713,0.020583668327073538,0
1714,0.025449427708344893,0
1715,-0.03425569738006016,0
1716,0.04188424115478849,0
1717,1.3083360879135144,0
1718,6.774525530275415,0
1719,0.8148620279304911,0
1720,-1.6112173067618591,0
1721,0.9719217778292822,0
1722,-0.5286671081527865,0
1723,0.2612900249599818,0
1724,-0.18503602203432157,0
1725,0.0097384583822473,0
1726,-0.05303362543387046,0
1727,0.032274470377229685,0
1728,-0.0068662214235863306,0
1729,0.013935623401583056,0
1730,0.025475528725337378,0
1731,0.07295341726929906,0
1732,0.011495794867977978,0
1733,0.07865362715387411,0
1734,2.9865547594156445,0
1735,6.668174230962945,0
1736,-2.337890130395417,0
1737,0.6069033432744632,0
1738,-0.05111923694076445,0
1739,0.054013976533989407,0
1740,0.10113498210259711,0
1741,-0.1232569931611561,0
1742,0.05651676149944646,0
1743,-0.006441180355874694,0
1744,-0.03604311364796724,0
1745,0.03804334117759186,0
1746,0.08725529059923808,0
1747,0.04309545092782283,0
1748,-0.022297136711406745,0
1749,-0.008076302432790027,0
1750,0.4112262556535135,0
1751,5.063249082916749,0
1752,4.243613090872237,0
1753,-2.9339636111568903,0
1754,1.5719293724072565,0
1755,-0.7609109359687015,0
1756,0.31757038689773914,0
1757,-0.11769846983175082,0
1758,-0.024823747136133077,0
1759,-0.029011865522088686,0
1760,-0.11092631644283732,0
1761,-0.03544771525521358,0
1762,0.06074280886118132,0
1763,-0.03706778320125379,0
1764,-0.03825526465437938,0
1765,0.02105463426408864,0
1766,0.05017622886904333,0
1767,1.1484405514189615,0
1768,6.788242614377923,0
1769,0.718964829971525,0
1770,-1.52420369040932,0
1771,1.0745995562308261,0
1772,-0.4868622038111671,0
1773,0.26136326590745895,0
1774,-0.15148264498602884,0
1775,0.006342505535503643,0
1776,0.009962562364352183,0
1777,0.19040033054451935,0
1778,1.7025788628007021e-06,0
1779,0.05230027717869204,0
1780,-0.01969915239736552,0
1781,0.003713410288853247,0
1782,-0.057508395932671603,0
1783,0.12399678315224555,0
1784,3.014147113652047,0
1785,6.701339479180663,0
1786,-2.3082838633435823,0
1787,0.6000097838545708,0
1788,-0.09382351844515739,0
1789,0.028097358082427748,0
1790,0.08292563469249632,0
1791,0.052762059357427185,0
1792,-0.04777330688082058,0
1793,0.09388341393419106,0
1794,0.029155036841852486,0
1795,-0.041891099046804124,0
1796,0.11549935001878929,0
1797,-0.09329615692868455,0
1798,-0.0029367604132995145,0
1799,-0.02966902816880148,0
1800,0.3455961850958239,0
1801,5.061508473609635,0
1802,4.331308560565416,0
1803,-2.876273173187741,0
1804,1.5997121405095542,0
1805,-0.7876861996670028,0
1806,0.31018678781870923,0
1807,-0.10161651580449141,0
1808,0.15318984812305236,0
1809,0.08173338786794866,0
1810,0.05285945647265296,0
1811,0.012206961593747408,0
1812,0.047974883558876275,0
1813,0.036227184953438976,0
1814,-0.029314351418340573,0
1815,0.10339395011304311,0
1816,0.06208732202349478,0
1817,1.2483827064875535,0
1818,6.719672741074302,0
1819,0.6926503828042919,0
1820,-1.3600018968636585,0
1821,1.0116530133763675,0
1822,-0.5175221016994747,0
1823,0.18610183631894806,0
1824,-0.05610000312256136,0
1825,-0.058450798552678,0
1826,0.1544739511945445,0
1827,0.08377599369397068,0
1828,0.04282336532506759,0
1829,0.042413935930682226,0
1830,0.11078974931178862,0
1831,0.027411164030322115,0
1832,-0.008065367723618702,0
1833,0.053068896656161754,0
1834,2.9848613038683265,0
1835,6.603221298338436,0
1836,-2.2642581979513623,0
1837,0.6070369241338482,0
1838,-0.2030432309490078,0
1839,0.09535560412546233,0
1840,0.0481791251016304,0
1841,0.004241724083274688,0
1842,0.01762667733734087,0
1843,0.04341516486405066,0
1844,0.035873837682747226,0
1845,0.007014224750519795,0
1846,-0.00991821895005083,0
1847,-0.06202630802900809,0
1848,0.020172533180937584,0
1849,0.07233893043170397,0
1850,0.3988483642138824,0
1851,5.033077037032751,0
1852,4.224914519194462,0
1853,-2.9309029305720715,0
1854,1.605205692315399,0
1855,-0.7740447378591468,0
1856,0.2818063745346412,0
1857,-0.031180624953545663,0
1858,0.08360898809566963,0
1859,-0.017873702883025182,0
1860,-0.011738122963191978,0
1861,-0.026498734371127673,0
1862,0.004513751819696942,0
1863,-0.005558328841837308,0
1864,-0.03184088560347298,0
1865,-0.027740702484289274,0
1866,-0.0061127871810543275,0
1867,1.2359659404743415,0
1868,6.758074005674581,0
1869,0.6044179108726503,0
1870,-1.3700865266554063,0
1871,1.0989634975877882,0
1872,-0.4627099370410256,0
1873,0.2146138090543443,0
1874,-0.13641093618410371,0
1875,0.0592959394078036,0
1876,0.015236192402443702,0
1877,0.010008963070133763,0
1878,0.041162944912435454,0
1879,0.11845852878695058,0
1880,0.11356990570067063,0
1881,0.03200866980682462,0
1882,0.016910391458832885,0
1883,0.12445482366688068,0
1884,2.969519637944134,0
1885,6.6272904513107145,0
1886,-2.3702558478802627,0
1887,0.7069082895568444,0
1888,-0.08996027561993974,0
1889,-0.026714921196385258,0
1890,-0.07395969248632248,0
1891,0.041103981044250476,0
1892,0.047854321557000284,0
1893,-0.04100142639471638,0
1894,0.08950687263520844,0
1895,-0.11839027824702925,0
1896,-0.027868589806421817,0
1897,-0.00655678889817763,0
1898,-0.01921302958598449,0
1899,-0.02599043797552998,0
1900,0.3807472031260379,0
1901,5.06935873688728,0
1902,4.1889817775153375,0
1903,-2.9012643559486593,0
1904,1.6340676936651304,0
1905,-0.7969265360003581,0
1906,0.2427697515224478,0
1907,-0.09655373748415333,0
1908,-0.027210934352136555,0
1909,-0.038573310150697857,0
1910,0.03747383467759045,0
1911,-0.00812364311667456,0
1912,0.07003486313964613,0
1913,0.01269746127264004,0
1914,-0.06006567438653755,0
1915,-0.049094502745012536,0
1916,0.025275385349454137,0
1917,1.3411840859581385,0
1918,6.735907129922623,0
1919,0.659137662150355,0
1920,-1.463743108238939,0
1921,0.951833468042448,0
1922,-0.5757886612594477,0
1923,0.15347226657479776,0
1924,-0.10159619439254758,0
1925,-0.08118888716612331,0
1926,-0.023702090725786794,0
1927,-0.009711479608823185,0
1928,-0.007184926806934597,0
1929,0.06008277261525778,0
1930,-0.0026609349101168623,0
1931,-0.007703207593329434,0
1932,0.06159919019889567,0
1933,0.10195919685969211,0
1934,3.0526119542925074,0
1935,6.710699381425968,0
1936,-2.3058190673824597,0
1937,0.7379468166451466,0
1938,-0.16628954035290255,0
1939,-0.023019811214828573,0
1940,-0.0734225537669911,0
1941,0.0638875467825025,0
1942,-0.08168460024572126,0
1943,0.06846737194874643,0
1944,0.06305671638867112,0
1945,0.03802656796499404,0
1946,0.025862025017901785,0
1947,-0.04295123409789816,0
1948,0.028222813411614,0
1949,-0.008757516118683896,0
1950,0.4696734801782238,0
1951,5.101910677081261,0
1952,4.293567953506481,0
1953,-2.884099056660105,0
1954,1.5230674567394566,0
1955,-0.8169772304310999,0
1956,0.23108952132543698,0
1957,-0.12323978344015225,0
1958,0.0012550613812182879,0
1959,-0.07412345804014794,0
1960,0.10458444539064003,0
1961,-0.04004527661650294,0
1962,-0.03393854345927727,0
1963,0.017564995470426135,0
1964,-0.03923286896597647,0
1965,-0.021118752098874066,0
1966,-0.04863357392872349,0
1967,1.1862528620269004,0
1968,6.838829745896054,0
1969,0.6468790983149202,0
1970,-1.3969271492147823,0
1971,1.0672723386574219,0
1972,-0.5437649406843508,0
1973,0.23880871300620518,0
1974,-0.08998873069018379,0
1975,0.022148205971898514,0
1976,-0.07659664164708099,0
1977,0.0629691307904103,0
1978,0.018791405932530973,0
1979,0.019214085959542306,0
1980,-0.0018371924476657722,0
1981,-0.08172974071598693,0
1982,-0.07824656951461585,0
1983,0.09778255965721724,0
1984,2.9911865544945204,0
1985,6.566366612192904,0
1986,-2.352421600819897,0
1987,0.6411502700196565,0
1988,-0.09603787044486234,0
1989,0.06227815510881253,0
1990,-0.08072878283988649,0
1991,-0.05144985720862743,0
1992,-0.032914918577410135,0
1993,0.026666397396105764,0
1994,-0.03548004259882097,0
1995,-0.054992138980006475,0
1996,0.07992109265775046,0
1997,-0.06649415708757904,0
1998,0.030518290902096762,0
1999,0.013186716443473964,0
2000,0.3565067823195237,0
2001,5.10986771265204,0
2002,4.156951376447064,0
2003,-2.8096182206959526,0
2004,1.5802966539171612,0
2005,-0.750922328184788,0
2006,0.24007535473798824,0
2007,-0.03390791222230441,0
2008,-0.023314066887228174,0
2009,0.007532881559880163,0
2010,0.09201691411717072,0
2011,-0.004090459907284041,0
2012,0.012985532119093535,0
2013,-0.038855220125191964,0
2014,-0.007902315144198334,0
2015,-0.0345412181334574,0
2016,-0.02247506754120887,0
2017,1.3747388845878783,0
2018,6.835179615668292,0
2019,0.6001635795078533,0
2020,-1.4539680363950103,0
2021,1.1149776184204956,0
2022,-0.4491498750799275,0
2023,0.19653281351876464,0
2024,0.017792452074966103,0
2025,0.037327571174542315,0
2026,-0.040723993508378145,0
2027,-0.038072828871875325,0
2028,-0.04677417447938527,0
2029,-0.011054865537955288,0
2030,0.04841262456048821,0
2031,0.054562990208979416,0
2032,0.0017748715055583893,0
2033,0.11737395758658176,0
2034,2.997140235891161,0
2035,6.576949947326988,0
2036,-2.407817144000338,0
2037,0.7412900367786981,0
2038,-0.10180126048220567,0
2039,0.05182889078043391,0
2040,-0.03609662565087076,0
2041,-0.0030041116592472153,0
2042,-0.036279493011823025,0
2043,0.05836143095593698,0
2044,0.007506437055163421,0
2045,0.0003618789098907525,0
2046,-0.024761063027709945,0
2047,-0.010640757759306087,0
2048,0.06450345632563725,0
2049,0.05697994999364944,0
2050,0.3653524047759368,0
2051,5.166765489838831,0
2052,4.156386497603617,0
2053,-2.9468166533458224,0
2054,1.6034257366652316,0
2055,-0.7888923981822226,0
2056,0.34630964178817414,0
2057,-0.1055925405827199,0
2058,0.15189863144067983,0
2059,-0.06398728344259784,0
2060,0.025427538153881043,0
2061,-0.027993371799654457,0
2062,-0.0629115259969191,0
2063,0.00889396526525519,0
2064,-0.011779610252641334,0
2065,-0.03288274985290475,0
2066,-0.08492039285882756,0
2067,1.24357098246762,0
2068,6.744201781343455,0
2069,0.5468609178408333,0
2070,-1.4329006614966067,0
2071,0.9216110446111138,0
2072,-0.5649537755286275,0
2073,0.1269487239214097,0
2074,-0.11583668358043463,0
2075,-0.03295556499728495,0
2076,-0.02292162768465674,0
2077,-0.09116486806704835,0
2078,-0.01287168941371922,0
2079,-0.07063055055129251,0
2080,0.0259400509800592,0
2081,-0.08488659572570573,0
2082,0.016652529558875823,0
2083,0.14585577286683854,0
2084,3.034371895275805,0
2085,6.563289777480865,0
2086,-2.454643999795647,0
2087,0.7102656003097437,0
2088,-0.2060321313156601,0
2089,0.025112381586921632,0
2090,-0.08345112355350268,0
2091,-0.021410586298222244,0
2092,-0.11625846619704097,0
2093,-0.026971364717339425,0
2094,-0.06942504984579653,0
2095,-0.07859192122766231,0
2096,-0.05573990888879294,0
2097,0.07275779256516668,0
2098,0.003288539488368991,0
2099,-0.09066870652531117,0
2100,0.33143326496298753,0
2101,5.176145328361856,0
2102,4.130737397230078,0
2103,-3.044393923307725,0
2104,1.5086678740058668,0
2105,-0.840093256187495,0
2106,0.2752177418828925,0
2107,-0.19798469894546258,0
2108,-0.048936225826493346,0
2109,-0.015102919715025004,0
2110,-0.04393107967470569,0
2111,-0.06183957074230331,0
2112,-0.033262319066588435,0
2113,0.03697404945327651,0
2114,-0.00826971004112654,0
2115,-0.030124149258820104,0
2116,-0.004666183302026675,0
2117,1.357213796563388,0
2118,6.737381908363919,0
2119,0.49481844376944595,0
2120,-1.3889210564535814,0
2121,0.9475029446648287,0
2122,-0.48838060460792454,0
2123,0.1702935566540775,0
2124,-0.16321207991463937,0
2125,0.018402391126254032,0
2126,-0.06936110892878541,0
2127,-0.008254750770588324,0
2128,-0.08078821162459135,0
2129,-0.10845631599762137,0
2130,0.020826903537104813,0
2131,0.019984914588433052,0
2132,-0.0699813762333813,0
2133,0.04427422702146704,0
2134,2.9854784373431906,0
2135,6.55662414835922,0
2136,-2.401498863542064,0
2137,0.6843218181434684,0
2138,-0.23286698344998497,0
2139,-0.10639460551236671,0
2140,-0.05637098536631484,0
2141,-0.05388149423153295,0
2142,0.019918500554229196,0
2143,-0.05373180756190401,0
2144,-0.052385494111343425,0
2145,-0.1214747288306558,0
2146,-0.038072578083376614,0
2147,-0.009724382848877881,0
2148,-0.09133630496909442,0
2149,-0.016542208999495774,0
2150,0.40008645615977195,0
2151,5.11911777200485,0
2152,4.159835188576709,0
2153,-2.918200804028285,0
2154,1.4053564336648472,0
2155,-0.8244019431439121,0
2156,0.2294256682378119,0
2157,-0.19057746887801852,0
2158,-0.08324385578641097,0
2159,0.07663252849530051,0
2160,-0.038063494479032595,0
2161,0.01071199117903119,0
2162,-0.0323101772312834,0
2163,-0.0900066974317154,0
2164,-0.013725492511971468,0
2165,-0.02751553203245686,0
2166,0.0015889391646690607,0
2167,1.244790841039709,0
2168,6.728812374043665,0
2169,0.5989489581945296,0
2170,-1.322068827090422,0
2171,1.0025448534176291,0
2172,-0.4095095632369994,0
2173,0.3115683978353185,0
2174,-0.05149225926644578,0
2175,0.028477550587867873,0
2176,0.05560334528927757,0
2177,-0.0013517847816052822,0
2178,-0.07232536448376244,0
2179,0.11244422312630595,0
2180,-0.004659005268108262,0
2181,0.01828561964791056,0
2182,0.03405567547526502,0
2183,0.10998940163217494,0
2184,3.154838091331977,0
2185,6.539318331488179,0
2186,-2.4538150052115544,0
2187,0.6123701783432073,0
2188,-0.03932457649625372,0
2189,0.0006948797054168593,0
2190,4.738736828995395e-05,0
2191,0.06026237460622515,0
2192,0.1290760843264126,0
2193,-0.04609487221850402,0
2194,0.024012587470094653,0
2195,0.09701159662241243,0
2196,0.05410403351923923,0
2197,0.102136330320188,0
2198,0.010022777786984592,0
2199,0.07573233380108703,0
2200,0.5011682944023249,0
2201,5.186046411461466,0
2202,4.171415937229851,0
2203,-2.8854081935957434,0
2204,1.6100541775093609,0
2205,-0.7196270753585156,0
2206,0.34487311370797846,0
2207,0.004438791082478036,0
2208,0.12571986857881193,0
2209,0.09204181941378616,0
2210,0.039452511258639744,0
2211,-0.0194955947585208,0
2212,0.009869076548665836,0
2213,0.06239926737868762,0
2214,-0.004431255503967203,0
2215,0.13707236446506593,0
2216,0.09769105258440947,0
2217,1.4824093036662098,0
2218,6.785620038403516,0
2219,0.42756230580431726,0
2220,-1.3316763156933218,0
2221,1.0023879447586193,0
2222,-0.4853575655046136,0
2223,0.256409270430907,0
2224,0.07501345734772735,0
2225,0.12188297710873157,0
2226,0.009029866101212598,0
2227,0.0711695612830563,0
2228,0.02558832331033309,0
2229,0.12236879772345455,0
2230,0.14417283716836593,0
2231,0.025045666654740898,0
2232,-0.010227617187856253,0
2233,0.12891355827115256,0
2234,3.08552389198938,0
2235,6.543243219836662,0
2236,-2.328534167578118,0
2237,0.852974077507761,0
2238,-0.15855540572563148,0
2239,0.042023608956462156,0
2240,-0.06359414217531476,0
2241,-0.010310966380000043,0
2242,0.03468055139399699,0
2243,0.030641950918431225,0
2244,0.12440500314472581,0
2245,0.03771841793617715,0
2246,-0.056658687299215346,0
2247,0.008318260503795138,0
2248,-0.02126100511939126,0
2249,0.030788005789012918,0
2250,0.4381776384942928,0
2251,5.230991907054161,0
2252,4.084037321624293,0
2253,-2.8749336304150526,0
2254,1.6749370892750548,0
2255,-0.7411811535280547,0
2256,0.3551752823004678,0
2257,-0.04598285079175537,0
2258,0.010105175942612052,0
2259,0.09491957109377315,0
2260,-0.044317178507824455,0
2261,0.019200646151133545,0
2262,-0.011634437006296246,0
2263,0.06607828120261583,0
2264,-0.10333735818834174,0
2265,0.04367537476525305,0
2266,-0.005297383189296647,0
2267,1.4125467723638945,0
2268,6.735827044307885,0
2269,0.5628540085284591,0
2270,-1.287163099859914,0
2271,0.8512868426455333,0
2272,-0.4152842897257457,0
2273,0.18313779779385173,0
2274,-0.06123770825738316,0
2275,0.0637172840628141,0
2276,-0.006449144621994127,0
2277,0.0478087899220035,0
2278,-0.016313265224729964,0
2279,0.14221055171139216,0
2280,0.07493465900155523,0
2281,0.11460254757740726,0
2282,0.038643937046071025,0
2283,0.004077778385871533,0
2284,3.1670576914186643,0
2285,6.57136243755759,0
2286,-2.4482845621249,0
2287,0.8831940457320746,0
2288,-0.21981344514807005,0
2289,-0.035199928977712736,0
2290,0.023153404231291193,0
2291,0.06459429498005023,0
2292,0.02796444211256311,0
2293,0.027301311136470358,0
2294,0.013254959939079821,0
2295,0.02660841186087154,0
2296,0.024566782673491827,0
2297,0.08659686569743846,0
2298,0.064349552911623,0
2299,0.022363784958118492,0
2300,0.47339640129652505,0
2301,5.338950050603084,0
2302,4.052870722649733,0
2303,-2.922401166684153,0
2304,1.7385472224820562,0
2305,-0.7050534677516836,0
2306,0.4439454376675415,0
2307,-0.03291526213808349,0
2308,0.10937686000650147,0
2309,0.07425599028454802,0
2310,0.03924681866465887,0
2311,0.057056937507168726,0
2312,-0.027508216276702115,0
2313,0.08221256003272523,0
2314,-0.05204283157950383,0
2315,0.042871584250589234,0
2316,-0.009094490655411461,0
2317,1.4031582551160269,0
2318,6.822947900444776,0
2319,0.42361331604166513,0
2320,-1.3723522687205594,0
2321,0.9801767451115311,0
2322,-0.6037249438117627,0
2323,0.17175761279842053,0
2324,-0.08357892027450482,0
2325,0.019456625625345465,0
2326,0.01715429880047431,0
2327,0.010908957525206752,0
2328,-0.028906672972625436,0
2329,0.05891890947864648,0
2330,-0.003529075328108683,0
2331,0.01368220696814223,0
2332,0.010486411039097223,0
2333,0.1656935009417376,0
2334,3.070156317540384,0
2335,6.585234035343429,0
2336,-2.444694335779866,0
2337,0.8045888480310898,0
2338,-0.12039485479815862,0
2339,-0.035615126887284056,0
2340,-0.05419055566094959,0
2341,-0.04481690499979302,0
2342,-0.01663827299267338,0
2343,-0.01938770789555026,0
2344,0.03348739680478913,0
2345,0.017733264599494848,0
2346,-0.07502730454318023,0
2347,-0.05428683322432107,0
2348,0.02228931780075794,0
2349,-0.01468888579111248,0
2350,0.4750457693802737,0
2351,5.1644887893003455,0
2352,4.037569361395753,0
2353,-2.876920350762766,0
2354,1.5644331798003037,0
2355,-0.8497994359735229,0
2356,0.3773007452312824,0
2357,-0.09639710481245135,0
2358,0.051535879037944626,0
2359,-0.05184345031119521,0
2360,-0.019795182133186102,0
2361,0.002657705293317235,0
2362,0.05593629742221107,0
2363,0.005781820874697828,0
2364,0.020720771995991063,0
2365,0.06474399108630739,0
2366,-0.03879567195989705,0
2367,1.3307735542521946,0
2368,6.792720675527538,0
2369,0.2738848979526647,0
2370,-1.3994138496463744,0
2371,0.9691272956830664,0
2372,-0.5704221057902139,0
2373,0.19508879855241748,0
2374,-0.05197756457231225,0
2375,0.05799167554147827,0
2376,-0.026483351451180158,0
2377,-0.0029119720478192456,0
2378,-0.06822697927617194,0
2379,-0.1236227033879366,0
2380,-0.017743575981538914,0
2381,-0.0656990905022737,0
2382,0.018737562379111984,0
2383,0.04869715067386254,0
2384,3.207442469099005,0
2385,6.518958404176867,0
2386,-2.428518447381845,0
2387,0.8636959894007301,0
2388,-0.2534863209990919,0
2389,-0.030656175892725193,0
2390,0.04032135491000162,0
2391,0.03409312602982023,0
2392,0.0013715117968849397,0
2393,0.03510283481557268,0
2394,-0.03501183071484115,0
2395,0.014821506998118017,0
2396,0.07371996162584366,0
2397,0.04174558590841479,0
2398,0.006455865559687985,0
2399,-0.04388737169171969,0
2400,0.4694739089323325,0
2401,5.2956219335673635,0
2402,4.055725014955569,0
2403,-2.801231537948984,0
2404,1.5669674779155403,0
2405,-0.7537944154380843,0
2406,0.3401624265041392,0
2407,-0.07243894109549559,0
2408,-0.060246114659746774,0
2409,-0.01580048351510462,0
2410,-0.0029064744995349616,0
2411,0.030640919874673635,0
2412,-0.04538633835520377,0
2413,-0.046035049280208,0
2414,-0.0808483623419604,0
2415,-0.027032278710777048,0
2416,-0.0448304341949748,0
2417,1.3421094001618934,0
2418,6.788165937066647,0
2419,0.3448561935407197,0
2420,-1.3230788245896892,0
2421,1.0115215679218585,0
2422,-0.513828291646102,0
2423,0.1814376963571725,0
2424,-0.05878345545175036,0
2425,-0.015585818975111071,0
2426,-0.014043525153390683,0
2427,-0.04472748025379766,0
2428,0.0243958808386741,0
2429,-0.0834765123526482,0
2430,0.07610778233227995,0
2431,-0.011745190046507592,0
2432,0.024179146067893675,0
2433,0.10769688974058395,0
2434,3.153065628376943,0
2435,6.531234349762519,0
2436,-2.5928045218144256,0
2437,0.7673813199891341,0
2438,-0.2263005343596376,0
2439,0.020105936606425283,0
2440,-0.08304339462695504,0
2441,0.028212066885839625,0
2442,0.06619363393936518,0
2443,-0.013465649361931068,0
2444,0.05123019750170202,0
2445,0.08253390442344126,0
2446,0.08702538780673934,0
2447,0.04363328511184163,0
2448,0.028354638139572175,0
2449,-0.015268970444375394,0
2450,0.5072577417158797,0
2451,5.304067611308776,0
2452,3.931589664352164,0
2453,-2.9029051389814073,0
2454,1.5237706921266116,0
2455,-0.8255060228072447,0
2456,0.2585445087703078,0
2457,-0.06025167994002884,0
2458,-0.0337299380902435,0
2459,-0.05626677848379219,0
2460,-0.03892858847620351,0
2461,0.02207323798399362,0
2462,-0.09354585396150449,0
2463,0.018865521923225704,0
2464,0.034624673871148724,0
2465,0.015266535762844329,0
2466,-0.04887383316576352,0
2467,1.3914044868452498,0
2468,6.7072388483547885,0
2469,0.3104022671027718,0
2470,-1.3153052161071621,0
2471,0.8540245713318386,0
2472,-0.6235405553548146,0
2473,0.18482638459300163,0
2474,-0.19448261917728965,0
2475,-0.07745538556532484,0
2476,-0.08155037443339327,0
2477,-0.07725231498367956,0
2478,0.02045655465258031,0
2479,0.09703370124277733,0
2480,-0.061389328652147565,0
2481,-0.033452460922607244,0
2482,0.017758618472263617,0
2483,0.17788578132197008,0
2484,3.09414460270212,0
2485,6.463836786982477,0
2486,-2.399764723156509,0
2487,0.7397580028470742,0
2488,-0.19122325621069353,0
2489,0.1510428804554847,0
2490,-0.011542607153992628,0
2491,0.0504092824246116,0
2492,0.168971411314652,0
2493,0.043203758042372246,0
2494,0.0694242805132459,0
2495,-0.02428735334181909,0
2496,0.024387776220872577,0
2497,-0.02608523120683207,0
2498,0.03621712010840036,0
2499,-0.006138577718392144,0
2500,0.43243144821871915,0
2501,5.352518459716526,0
2502,4.066762354737583,0
2503,-2.827688609279957,0
2504,1.5624612628247314,0
2505,-0.8954135529503678,0
2506,0.390671018388417,0
2507,-0.08981518619290572,0
2508,-0.0682698068601729,0
2509,-0.10166370598942272,0
2510,-0.19958906850742686,0
2511,-0.09270515638539412,0
2512,-0.06033457350789955,0
2513,-0.06617599270128716,0
2514,-0.11346660248348717,0
2515,0.02346275102913864,0
2516,0.029899847343082944,0
2517,1.4365988032263373,0
2518,6.793639868260404,0
2519,0.3602186520677672,0
2520,-1.2125927602589617,0
2521,0.9491256882456653,0
2522,-0.6003751547663636,0
2523,0.09058045642679535,0
2524,-0.03748123061818516,0
2525,0.006187868314385696,0
2526,0.05075298693051504,0
2527,-0.12346270330379885,0
2528,-0.04145401256688741,0
2529,-0.010398197141777588,0
2530,0.046533244635368384,0
2531,0.017038768601200155,0
2532,-0.08970438057865038,0
2533,0.09955324467224276,0
2534,3.135943136973053,0
2535,6.616492999010277,0
2536,-2.501806550299985,0
2537,0.8353093457308796,0
2538,-0.23353902751716102,0
2539,0.04487011876071112,0
2540,-0.08135981636324563,0
2541,-0.02423723486156408,0
2542,8.510308127374078e-06,0
2543,0.05994386588397349,0
2544,0.011467698419669853,0
2545,0.03483415647423673,0
2546,0.02836347215648414,0
2547,0.13082347641596215,0
2548,0.07162255982666375,0
2549,0.13998254879823777,0
2550,0.5219653607411322,0
2551,5.37707524248108,0
2552,4.164421234060563,0
2553,-2.8506011480621356,0
2554,1.6914755852133874,0
2555,-0.7712091865415529,0
2556,0.39684106821021203,0
2557,-0.031306427326723944,0
2558,0.1338071018681575,0
2559,0.03991772727130176,0
2560,0.1957336904310149,0
2561,0.0740019669950089,0
2562,-0.02871176865494219,0
2563,0.044748985266857,0
2564,-0.020116980055834042,0
2565,-0.019140165133352066,0
2566,-0.02129742428665695,0
2567,1.379641847296797,0
2568,6.821219723629505,0
2569,0.333207638195681,0
2570,-1.2396429577778532,0
2571,0.9635614130542183,0
2572,-0.4889477765550621,0
2573,0.1274592517927401,0
2574,0.005304606539095161,0
2575,-0.002722328643189713,0
2576,0.0024519302459323766,0
2577,0.049979356619601734,0
2578,-0.06345305110423739,0
2579,-0.01789529515125379,0
2580,0.0023954799287935254,0
2581,0.10133893565665959,0
2582,0.05093985270493202,0
2583,0.07359465710746274,0
2584,3.2363669765907543,0
2585,6.591364568942032,0
2586,-2.4536067108109094,0
2587,0.7346614102599862,0
2588,-0.15034179171070688,0
2589,0.17447918244698524,0
2590,-0.013867172947259053,0
2591,0.018174110406332177,0
2592,0.03188677473974985,0
2593,0.07389818991498508,0
2594,-0.015088779661388387,0
2595,-0.022007916867954246,0
2596,-0.007938312122972257,0
2597,0.10754974135003723,0
2598,0.016323127172600205,0
2599,0.03267146162714929,0
2600,0.5865875173164459,0
2601,5.34769290517363,0
2602,4.010964760822785,0
2603,-2.71448358359124,0
2604,1.7566999091330882,0
2605,-0.7604317977848162,0
2606,0.41872698713474055,0
2607,-0.06409562279454317,0
2608,0.18420687652581041,0
2609,0.0015722337229787178,0
2610,0.11418669454025283,0
2611,0.052331437963902945,0
2612,0.031090746625342378,0
2613,0.05968663974745207,0
2614,0.09290331612363752,0
2615,0.03571662206672205,0
2616,-0.024339659889056328,0
2617,1.528412986980527,0
2618,6.853974265426095,0
2619,0.2897118983214117,0
2620,-1.2903540850886042,0
2621,0.8615985544757284,0
2622,-0.36138236287510156,0
2623,0.2623086569603053,0
2624,0.004995147310239555,0
2625,-0.02287841496250508,0
2626,0.052166091264893785,0
2627,0.027722617475250032,0
2628,-0.026366726490556977,0
2629,0.005779267834755271,0
2630,0.013607511397358128,0
2631,0.019578150521467413,0
2632,0.02573131238838977,0
2633,0.07320318176990749,0
2634,3.2105358973894016,0
2635,6.4939363687084874,0
2636,-2.4915583513699824,0
2637,0.892429056009601,0
2638,-0.2374416994563324,0
2639,0.022867415317834823,0
2640,-0.014279853824458039,0
2641,0.043911317006898536,0
2642,0.027801061750856535,0
2643,-0.025716456087188987,0
2644,-0.0584441946020423,0
2645,0.02774321441512287,0
2646,0.06324494178419526,0
2647,0.0027557269591845443,0
2648,-0.008790128090848368,0
2649,-0.01897463263473645,0
2650,0.3137679710420255,0
2651,5.213049794056831,0
2652,3.782600936094496,0
2653,-2.918081395398614,0
2654,1.5089628075515047,0
2655,-0.797063061651187,0
2656,0.25891944973533343,0
2657,-0.09809423287144989,0
2658,-0.023500732918488858,0
2659,-0.04414725609000823,0
2660,-0.10267405233389082,0
2661,-0.07460426208433568,0
2662,-0.016901685696725243,0
2663,-0.0030258299296144053,0
2664,-0.07414261758840167,0
2665,0.010421941848814707,0
2666,0.09189233503236179,0
2667,1.4062175268014507,0
2668,6.794178207744967,0
2669,0.19602883244097968,0
2670,-1.2663883277800692,0
2671,0.9302325034760245,0
2672,-0.5376930301907594,0
2673,0.13976560756633266,0
2674,-0.10877807078718355,0
2675,0.02979655815007516,0
2676,-0.06406608864231479,0
2677,-0.015705730430516054,0
2678,0.01499129310673279,0
2679,-0.0083290295330413,0
2680,-0.0877566300464891,0
2681,0.09352571702082187,0
2682,-0.0907808993987541,0
2683,0.05389127680878726,0
2684,3.0665159773800186,0
2685,6.430244976844459,0
2686,-2.543545109555202,0
2687,0.8404186519647159,0
2688,-0.19346298108118704,0
2689,0.059454174943344026,0
2690,0.045446925818485404,0
2691,0.01719590700709206,0
2692,0.008243895178915897,0
2693,-0.005717174003460531,0
2694,0.014234095314460921,0
2695,-0.041990666823448514,0
2696,-0.08414413993716448,0
2697,-0.052427532016292314,0
2698,0.03421430282739782,0
2699,-0.08898184062761035,0
2700,0.31047308158808196,0
2701,5.297863220367112,0
2702,3.846189619278434,0
2703,-2.8335064541234725,0
2704,1.6097897790736237,0
2705,-0.844434007858195,0
2706,0.2849790887280974,0
2707,-0.16272005157852062,0
2708,0.04010573703588824,0
2709,-0.06640794392700301,0
2710,0.0017905710726418417,0
2711,-0.021557297541316477,0
2712,-0.03142304484029188,0
2713,-0.0689845425618933,0
2714,-0.015483395796117778,0
2715,-0.06029748947768515,0
2716,-0.13212409036522443,0
2717,1.4362579069086376,0
2718,6.830289078679093,0
2719,0.22419380664153526,0
2720,-1.2091578860099237,0
2721,0.9634518343309737,0
2722,-0.5075298367288286,0
2723,0.17716687314851154,0
2724,-0.10908525319740664,0
2725,-0.04091844798262393,0
2726,0.06106721041669793,0
2727,0.04236746182946548,0
2728,-0.12084736004231991,0
2729,-0.01928500459576687,0
2730,0.00830263767061721,0
2731,0.003522301232299775,0
2732,-0.023353001876375644,0
2733,0.11323960612249097,0
2734,3.1178958841879187,0
2735,6.425997033201162,0
2736,-2.5905801525397356,0
2737,0.8067166634135616,0
2738,-0.2665779195072908,0
2739,-0.04013846953611175,0
2740,-0.08952331693179613,0
2741,-0.11662202139526785,0
2742,-0.01303351159010619,0
2743,0.02141860415003007,0
2744,-0.022692640652254938,0
2745,0.020106973181986565,0
2746,0.012146952031076033,0
2747,-0.018433628345077058,0
2748,-0.1233488941839608,0
2749,0.00012942072486010758,0
2750,0.44066077425110367,0
2751,5.225310574668842,0
2752,3.868759132801478,0
2753,-2.825383508983021,0
2754,1.60085353959553,0
2755,-0.7740764925020499,0
2756,0.3796513133169752,0
2757,-0.09054085037734239,0
2758,0.03264258412780343,0
2759,0.08418271696392456,0
2760,-0.02824819818961971,0
2761,-0.01822625641544398,0
2762,-0.02684646221539428,0
2763,0.11455277307238391,0
2764,-0.05076609055160192,0
2765,-0.02289286819914822,0
2766,-0.05734301410556966,0
2767,1.5046318465957629,0
2768,6.862187533962961,0
2769,0.23734263390438196,0
2770,-1.350792111558608,0
2771,0.8672160107206436,0
2772,-0.5376149742013948,0
2773,0.12952090042390874,0
2774,-0.07262422314306204,0
2775,-0.06687691515305187,0
2776,0.030745671385203358,0
2777,-0.009891545592579098,0
2778,-0.06754770890871203,0
2779,-0.09280409602762313,0
2780,-0.0592708133934485,0
2781,0.057167765439741246,0
2782,-0.06504483896598874,0
2783,0.02897767379326987,0
2784,3.136102045387211,0
2785,6.4574991044848264,0
2786,-2.6121415507884653,0
2787,0.7303263879379644,0
2788,-0.23850162446203402,0
2789,0.03571601823510998,0
2790,0.013047516590092536,0
2791,0.10959573021984234,0
2792,-0.03049996271676361,0
2793,-0.05921401213804463,0
2794,0.07377124219723465,0
2795,0.005847045945473115,0
2796,-0.04306078970923931,0
2797,-0.07378477738475415,0
2798,-0.07632587716627645,0
2799,-0.042332684646659256,0
2800,0.401309011583006,0
2801,5.351415060745746,0
2802,3.6932183530256464,0
2803,-3.035038928621646,0
2804,1.4948385533984205,0
2805,-0.808298274002627,0
2806,0.20557897605269748,0
2807,-0.25221456059570835,0
2808,-0.050134488348421775,0
2809,-0.04515646239546142,0
2810,-0.04120947633949155,0
2811,0.07233167493860082,0
2812,-0.010369999862677587,0
2813,0.011542393588915862,0
2814,-0.018844926747944756,0
2815,-0.018078683746983897,0
2816,-0.04310365577807028,0
2817,1.486891296682625,0
2818,6.727143153414653,0
2819,0.24750039066157414,0
2820,-1.2161086242397494,0
2821,0.9493170798345193,0
2822,-0.40385171398242037,0
2823,0.15503981030227706,0
2824,-0.022876759906125012,0
2825,-0.05494015980027375,0
2826,0.07355801430969616,0
2827,0.0901681014360543,0
2828,0.10436156165450629,0
2829,-0.006356268696885641,0
2830,-0.0896210156420281,0
2831,-0.06250272166439316,0
2832,-0.05055828624235662,0
2833,0.12950205522242017,0
2834,3.303405372452912,0
2835,6.449506703007496,0
2836,-2.618831624422947,0
2837,0.8652230651192125,0
2838,-0.2674341110612806,0
2839,0.07050062423113652,0
2840,-0.10099999800095115,0
2841,-0.024518832205547847,0
2842,-0.03903641815134997,0
2843,-0.008122175067629318,0
2844,-0.03141382901799586,0
2845,-0.06296104598057589,0
2846,-0.013370477367378644,0
2847,-0.0547725477387184,0
2848,0.013914963238834155,0
2849,0.1555673147571002,0
2850,0.5012519262198694,0
2851,5.366714579552577,0
2852,3.8368026955280023,0
2853,-2.8003790904921466,0
2854,1.535414117606411,0
2855,-0.8536837287383643,0
2856,0.2942784100899002,0
2857,-0.16395173435761987,0
2858,0.05586850854752576,0
2859,0.058225412543151986,0
2860,-0.07584649575982694,0
2861,-0.10945696080874569,0
2862,-0.02787015364408804,0
2863,-0.017356586552242526,0
2864,0.010314110275221673,0
2865,-0.021203861718660014,0
2866,-0.1236495904041306,0
2867,1.4253729167198614,0
2868,6.773682820113369,0
2869,0.1292499079067289,0
2870,-1.2947847399270294,0
2871,0.8918771353647313,0
2872,-0.4903699686726481,0
2873,0.15812566749627535,0
2874,-0.10878330239889822,0
2875,0.02631465452469276,0
2876,0.03234554321316855,0
2877,-0.11513543606783855,0
2878,0.000709829033871956,0
2879,-0.048010028251041156,0
2880,0.005262466585900821,0
2881,-0.10029056571989733,0
2882,0.01263148922568011,0
2883,-0.058154753825786665,0
2884,3.1430541181975857,0
2885,6.407269782963383,0
2886,-2.6930067424730972,0
2887,0.9127297501359314,0
2888,-0.275539267060714,0
2889,0.07898941887897551,0
2890,-0.003196074958798558,0
2891,-0.02335416627952567,0
2892,0.15902689060311773,0
2893,0.03534343060826965,0
2894,0.006373254587605209,0
2895,0.07294000383028966,0
2896,0.023602133719162813,0
2897,0.06262166463655251,0
2898,0.02206794590717075,0
2899,0.0025190151931466925,0
2900,0.45614534602556167,0
2901,5.3320587050855694,0
2902,3.7957488856808173,0
2903,-2.924016662005148,0
2904,1.5234079643241716,0
2905,-0.7705348004180947,0
2906,0.257308166827121,0
2907,-0.18456218283630912,0
2908,-0.0683058661515156,0
2909,-0.029971329826775858,0
2910,-0.028983317598797912,0
2911,0.030354540521323962,0
2912,-0.07864650314652602,0
2913,0.005033039406015689,0
2914,-0.0034013688281459634,0
2915,0.07241129297673111,0
2916,-0.07633582907606842,0
2917,1.3766620550551305,0
2918,6.789240078976193,0
2919,0.09181065214579116,0
2920,-1.227998617649152,0
2921,0.7611031965226267,0
2922,-0.48063883331116,0
2923,0.15472456312192626,0
2924,-0.15999977935281423,0
2925,-0.12002689993311365,0
2926,-0.10771679329758278,0
2927,-0.09317957367432853,0
2928,-0.06834348587497958,0
2929,-0.014449597989136684,0
2930,-0.14811139928226233,0
2931,-0.023442502964468717,0
2932,-0.0602570361408984,0
2933,0.1774442424574016,0
2934,3.2081721824503324,0
2935,6.395218831909215,0
2936,-2.600924790645981,0
2937,0.9303716250758552,0
2938,-0.35536755383361607,0
2939,0.0868419311285458,0
2940,-0.06795322919687243,0
2941,-0.0006672805926711267,0
2942,-0.09629356778741727,0
2943,-0.10643830181946332,0
2944,-0.11564434825345693,0
2945,-0.09427602446926034,0
2946,-0.03700118021216494,0
2947,0.04251466219288412,0
2948,-0.029571031557011646,0
2949,-0.00729655244989562,0
2950,0.5212219531891757,0
2951,5.473187185757313,0
2952,3.779166857224647,0
2953,-2.766704116723775,0
2954,1.5547637167948143,0
2955,-0.7442867660041749,0
2956,0.27730616025493876,0
2957,-0.10485416059825488,0
2958,0.05533278471106424,0
2959,0.01037338411734074,0
2960,0.08752500656116832,0
2961,0.01981808199853189,0
2962,-0.06738753096965527,0
2963,-0.03233124393015266,0
2964,0.06610678501211462,0
2965,0.01062731568535238,0
2966,0.024209593115518038,0
2967,1.5414466260232347,0
2968,6.897536325875576,0
2969,0.11254072836561944,0
2970,-1.1520735691554889,0
2971,0.8649304371814838,0
2972,-0.46325842140314344,0
2973,0.14565468072805254,0
2974,-0.13174401688370166,0
2975,-0.033366336636325676,0
2976,-0.046204550918814154,0
2977,-0.07915050933585399,0
2978,0.017380806212915725,0
2979,-0.07347147235275953,0
2980,-0.11738186264306494,0
2981,-0.1118756936332374,0
2982,-0.028391431886378687,0
2983,-0.05506768312577966,0
2984,3.210700117862728,0
2985,6.286704093369661,0
2986,-2.6217419896044816,0
2987,0.851438016750801,0
2988,-0.26178044976735754,0
2989,0.023725847076152738,0
2990,-0.06488752185664898,0
2991,-0.0587090071456866,0
2992,-0.0963888091081249,0
2993,-0.07705255482775825,0
2994,-0.011814954714129862,0
2995,-0.08392111583341576,0
2996,-0.05728028213934028,0
2997,-0.06278084603253559,0
2998,-0.004067172320286638,0
2999,-0.03741494063153203,0
3000,0.3739824492729712,0
3001,5.354261997492019,0
3002,3.772135140601439,0
3003,-2.846269645446093,0
3004,1.5112205940307895,0
3005,-0.8274173290708774,0
3006,0.25331215971379983,0
3007,-0.13094898598481178,0
3008,0.012805963496344538,0
3009,0.023070340996863746,0
3010,0.039728570707399206,0
3011,0.01824436086724862,0
3012,0.05422102638714438,0
3013,-0.05456909844550444,0
3014,-0.038701719932317094,0
3015,-0.10320066398079157,0
3016,-0.016720943678922278,0
3017,1.4971621542427336,0
3018,6.882705716713731,0
3019,-0.04198458094674459,0
3020,-1.1900523853500518,0
3021,0.8127138398261554,0
3022,-0.5808366126718932,0
3023,0.15046385316962008,0
3024,-0.09911048501336706,0
3025,-0.07316615574126742,0
3026,-0.1282300289041661,0
3027,-0.08951356836222454,0
3028,-0.10898242037606654,0
3029,-0.03619378545221015,0
3030,-0.03267115925350402,0
3031,-0.07487760013177262,0
3032,-0.08157905177107838,0
3033,0.057776532359472096,0
3034,3.1801177725267347,0
3035,6.297150077002516,0
3036,-2.6675977576546126,0
3037,0.8619135665518678,0
3038,-0.24783553004796538,0
3039,0.014298444036271334,0
3040,-0.04933195723439677,0
3041,-0.03688932402084157,0
3042,-0.06528718167185288,0
3043,-0.09220288004453679,0
3044,-0.10878960899185283,0
3045,-0.2050640029677182,0
3046,-0.051754673519972615,0
3047,-0.12055660734682488,0
3048,-0.08539441365385583,0
3049,-0.1004844383877015,0
3050,0.4695562897227064,0
3051,5.307788321284223,0
3052,3.6940397601975694,0
3053,-2.8910227284440793,0
3054,1.5916730278439157,0
3055,-0.8840852866250622,0
3056,0.26511815651244386,0
3057,-0.26428791568133625,0
3058,-0.00017026595359199634,0
3059,-0.07367367366780979,0
3060,-0.055021551949943084,0
3061,0.02884375230109592,0
3062,-0.10139325129959713,0
3063,-0.13262254631829407,0
3064,0.02333574084782617,0
3065,-0.0873309339268242,0
3066,-0.10228219851437484,0
3067,1.4389933925836704,0
3068,6.785205638475399,0
3069,0.03302960360729193,0
3070,-1.23819026285707,0
3071,0.7529939808554517,0
3072,-0.5003678188940661,0
3073,0.1015896585245076,0
3074,-0.0019240409791542734,0
3075,-0.05378346811055075,0
3076,-0.1039863627754636,0
3077,-0.030284844432237574,0
3078,-0.06361845421646854,0
3079,-0.1362558718437408,0
3080,-0.13530337451665955,0
3081,-0.14728611303780048,0
3082,-0.05107063384413259,0
3083,0.055161291198905296,0
3084,3.293011498614288,0
3085,6.319045523274064,0
3086,-2.7349859856352783,0
3087,0.850534256054729,0
3088,-0.43047422282176906,0
3089,0.08537942088108305,0
3090,-0.146756726371103,0
3091,-0.07905818704341577,0
3092,-0.042646985861461637,0
3093,-0.09617284481072232,0
3094,-0.046035502180355015,0
3095,-0.03489489026138716,0
3096,-0.09766184084647833,0
3097,0.01828260753374751,0
3098,-0.11735169733358797,0
3099,-0.09515642914267924,0
3100,0.5290509190918765,0
3101,5.3965297660362035,0
3102,3.6789389269470583,0
3103,-2.8206712312274136,0
3104,1.5916671013828654,0
3105,-0.7452721218220046,0
3106,0.2976361803614469,0
3107,-0.17290638629800334,0
3108,0.08409582215990836,0
3109,-0.08646074124129918,0
3110,-0.05345666179742051,0
3111,-0.13902773327464407,0
3112,-0.0762716235768154,0
3113,-0.08006554351372629,0
3114,-0.08429797703493189,0
3115,-0.13561303926867352,0
3116,-0.17850331807760889,0
3117,1.371438354132525,0
3118,6.82236017940536,0
3119,-0.09293566189699518,0
3120,-1.3176262979383844,0
3121,0.7675268509771729,0
3122,-0.5298094644482553,0
3123,-0.02335979249555384,0
3124,-0.16679733391422918,0
3125,-0.18528032332409625,0
3126,-0.14141745484742507,0
3127,-0.12522925081786507,0
3128,-0.18193626667240362,0
3129,-0.05919343986512009,0
3130,-0.1653262503630691,0
3131,-0.17250957528444172,0
3132,-0.09649873202483718,0
3133,-0.044731936943786396,0
3134,3.2409926599130716,0
3135,6.283623332849859,0
3136,-2.6853396598551864,0
3137,0.8474520600266239,0
3138,-0.3855929329008307,0
3139,-0.023368336664545616,0
3140,-0.13345660779949656,0
3141,-0.02513578900005648,0
3142,-0.09812038922080066,0
3143,-0.013909856649957315,0
3144,-0.0839296674208061,0
3145,-0.12221994476870733,0
3146,-0.0681202555605954,0
3147,-0.03519965725107007,0
3148,-0.005590750207437156,0
3149,-0.08833065171309047,0
3150,0.33188668330061855,0
3151,5.4270792115890325,0
3152,3.680161373593212,0
3153,-2.817909170712859,0
3154,1.4953369852632559,0
3155,-0.897365276610014,0
3156,0.3771277318310362,0
3157,-0.07467489238263487,0
3158,0.11362029062893045,0
3159,0.0035927999327232908,0
3160,-0.006759057650868136,0
3161,0.07825507735262405,0
3162,-0.0110875186752675,0
3163,0.10839677887285354,0
3164,0.0027351438843797454,0
3165,0.056339540966938925,0
3166,0.09211634377823687,0
3167,1.484891377690688,0
3168,6.84751264944662,0
3169,0.031973157085028694,0
3170,-1.1124693745494958,0
3171,0.7972676691292816,0
3172,-0.47936358467988055,0
3173,0.193327531411216,0
3174,-0.19010231610383543,0
3175,-0.04432891474262017,0
3176,0.016615047341893778,0
3177,0.016331623940107183,0
3178,-0.048686558041894,0
3179,-0.06272995106961131,0
3180,-0.04696670473887937,0
3181,0.021766345022091724,0
3182,-0.03410578179011824,0
3183,0.05771807328795028,0
3184,3.34977960224708,0
3185,6.373289428014945,0
3186,-2.654414720310798,0
3187,0.8638520085847037,0
3188,-0.3475897827913455,0
3189,0.04020893998909708,0
3190,-0.16932891472382366,0
3191,-0.11578308714577025,0
3192,-0.23824887947703216,0
3193,-0.06235491443958822,0
3194,-0.057598251386045844,0
3195,-0.09580074326037022,0
3196,-0.08008256418448761,0
3197,-0.10974839915996687,0
3198,-0.10557887156757956,0
3199,-0.07265523939263711,0
3200,0.37874024894316083,0
3201,5.36291163649782,0
3202,3.5630066936366154,0
3203,-2.8325119619752215,0
3204,1.5399721859564683,0
3205,-0.8321074675423149,0
3206,0.31829636919978194,0
3207,-0.16035688297917816,0
3208,0.09200324077921876,0
3209,-0.036817810414874794,0
3210,0.02788718200875668,0
3211,0.04292036452154461,0
3212,-0.06293592112659092,0
3213,0.01921640794375551,0
3214,-0.1097123771162957,0
3215,0.03275476751797362,0
3216,-0.07173657728094379,0
3217,1.5042508189449306,0
3218,6.924253509810719,0
3219,-0.08841951416836144,0
3220,-1.0758286723227648,0
3221,0.8424695739474485,0
3222,-0.4875343062306128,0
3223,0.1483054572163973,0
3224,-0.044461115356268587,0
3225,-0.00827418619206639,0
3226,-0.029904456497655454,0
3227,-0.01987448514021051,0
3228,0.005603547646098866,0
3229,0.024358201655204564,0
3230,-0.026323255486355578,0
3231,0.08184642616352344,0
3232,0.017856401718253017,0
3233,0.059000463717902615,0
3234,3.370393526114247,0
3235,6.305225009349695,0
3236,-2.6728181424926603,0
3237,0.8773951866371363,0
3238,-0.2657661360273416,0
3239,0.0292355774152966,0
3240,-0.03288169533485376,0
3241,-0.0917763595556168,0
3242,-0.07224131989684529,0
3243,-0.11378435838708727,0
3244,-0.07524968640084893,0
3245,-0.0650796707731862,0
3246,0.06601364580573438,0
3247,-0.026436085317255394,0
3248,-0.014413826169351118,0
3249,0.08435501816593083,0
3250,0.5016257435376392,0
3251,5.591350240910057,0
3252,3.5724882121818187,0
3253,-2.7381062518102715,0
3254,1.6045289802508975,0
3255,-0.6581472077422507,0
3256,0.47300990354925077,0
3257,-0.0929575530756975,0
3258,-0.06123499750918279,0
3259,0.0120601443145738,0
3260,-0.06622271059358692,0
3261,0.058057732739119926,0
3262,-0.06513536427078803,0
3263,-0.04267066314477774,0
3264,0.0008688462593540378,0
3265,-0.05706257705678621,0
3266,-0.03421141587476371,0
3267,1.5076376963047073,0
3268,6.822302644139865,0
3269,-0.04228617490913639,0
3270,-1.1091317445219828,0
3271,0.8894295522619493,0
3272,-0.4625932522357245,0
3273,0.22635089799742994,0
3274,-0.09405383575735174,0
3275,0.0657319489472994,0
3276,0.03559422409538471,0
3277,0.03643563164874546,0
3278,-0.03924046307386506,0
3279,-0.060204064407172096,0
3280,-0.04038788753029873,0
3281,-0.04239148975991654,0
3282,0.0064869180594522725,0
3283,0.07172542495519771,0
3284,3.409135119365874,0
3285,6.303580634830441,0
3286,-2.5998355550247307,0
3287,1.0425560414562143,0
3288,-0.3264188545861719,0
3289,0.004001580624331813,0
3290,-0.12345642127439507,0
3291,-0.007307940305722764,0
3292,-0.01711105752321278,0
3293,-0.00541504894316493,0
3294,-0.0065640865082976915,0
3295,-0.058669967541712414,0
3296,0.01782155496487297,0
3297,-0.057194484160384015,0
3298,-0.06569196305281017,0
3299,-0.017197889283241154,0
3300,0.36464148342478475,0
3301,5.593396300627208,0
3302,3.570356937100069,0
3303,-2.7760561517743643,0
3304,1.5576037814932542,0
3305,-0.8199389537241487,0
3306,0.3018564852868513,0
3307,-0.07515014346894558,0
3308,-0.02746677561556896,0
3309,-0.06292180564734345,0
3310,0.008645240956969023,0
3311,-0.06353929129944164,0
3312,0.03607096571292294,0
3313,0.002186849678824071,0
3314,0.012066950509943268,0
3315,-0.021577862120928763,0
3316,-0.14990374243967194,0
3317,1.3791915276597937,0
3318,6.9297730280630665,0
3319,-0.061863092510656775,0
3320,-1.0147801216065313,0
3321,0.777676928038539,0
3322,-0.4283254505596736,0
3323,0.21611622790125545,0
3324,-0.13366354374741152,0
3325,-0.06683904508579863,0
3326,-0.023653908254642652,0
3327,-0.04915294681901776,0
3328,-0.036298938977588575,0
3329,0.013538086372673234,0
3330,0.016927886443554217,0
3331,-0.041808881741772205,0
3332,-0.08266767829718169,0
3333,0.0402859389618961,0
3334,3.401708245267153,0
3335,6.237725384751117,0
3336,-2.6728951684490383,0
3337,0.9462591994387848,0
3338,-0.5280674854209682,0
3339,0.07601862148679617,0
3340,0.016919809774524064,0
3341,-0.05991164589500308,0
3342,-0.15805387209159205,0
3343,0.05903555985113555,0
3344,-0.019094731727500987,0
3345,-0.05903902648757393,0
3346,0.013960943653393627,0
3347,0.005505653669189373,0
3348,-0.1252129101890034,0
3349,-0.020246239150875034,0
3350,0.4924079509710307,0
3351,5.432278767496913,0
3352,3.6012194924203054,0
3353,-2.781935446075087,0
3354,1.5905429468622354,0
3355,-0.8061637438309834,0
3356,0.36123838025740274,0
3357,-0.024827546529153144,0
3358,0.03571585000639193,0
3359,-0.0034530227019765047,0
3360,-0.08359395648837936,1
3361,-0.10795312666453405,1
3362,6.9438550560609205,1
3363,0.3969977943611766,1
3364,0.15488773188872018,1
3365,-0.04906984382013303,1
3366,-0.0351595525340157,1
3367,-0.06524157353237889,1
3368,-0.10781440553901447,1
3369,0.3230898805026424,1
3370,2.93734555496415,1
3371,1.077685336568304,1
3372,0.1400485990501217,1
3373,-0.09693218313045876,1
3374,0.022682220103390625,1
3375,-0.04802502186946868,1
3376,-0.058269593325717954,1
3377,2.6588321392664827,1
3378,-2.9535443548663265,1
3379,-0.8096557618950763,1
3380,-0.1978949814772086,1
3381,-0.08894704649581928,1
3382,-0.1276815774638328,1
3383,-0.02993384002931049,1
3384,-0.05097407678552824,1
3385,6.598044311574908,1
3386,-0.6275907763547682,1
3387,-0.05921363015001955,1
3388,-0.041432095221801274,1
3389,-0.09329634198928126,1
3390,-0.03180412024343979,1
3391,-0.09582735772009299,1
3392,0.10806451226991676,1
3393,4.511929234178416,1
3394,1.5197339422565692,1
3395,0.24499192016657306,1
3396,0.002839026602534017,1
3397,-0.044230086812420556,1
3398,-0.07409442655566656,1
3399,-0.061233577500534805,1
3400,1.7125110327333255,1
3401,-2.2167957370877396,1
3402,-0.547786964665456,1
3403,-0.10262161752692178,1
3404,-0.09606203069146824,1
3405,-0.020196754742717545,1
3406,-0.025152427983540844,1
3407,0.005927068667856521,1
3408,5.796982538738768,1
3409,-1.7687493907153407,1
3410,-0.32754456212560484,1
3411,-0.024662333450352368,1
3412,-0.052415215479841556,1
3413,-0.029124316594297477,1
3414,-0.023564296932588033,1
3415,0.05785530123408305,1
3416,5.911086408156965,1
3417,1.6520637703128396,1
3418,0.2626125222623202,1
3419,0.10446152511254335,1
3420,0.043191857542346876,1
3421,-0.03585109975060244,1
3422,0.05464867975965898,1
3423,1.1215495344013917,1
3424,-0.7830967138543414,1
3425,-0.07709606410041846,1
3426,-0.10072934871778688,1
3427,-0.024647992822188564,1
3428,0.08999918465940471,1
3429,0.04879562281016045,1
3430,0.03536729472243268,1
3431,4.862357663674622,1
3432,-2.4388964114919847,1
3433,-0.599814719554703,1
3434,-0.04165776277078462,1
3435,-0.03181142733093914,1
3436,-0.014885987248885311,1
3437,-0.013033335753359066,1
3438,-0.035436498778741804,1
3439,6.763913744817363,1
3440,1.3117009673644835,1
3441,0.3321159381703583,1
3442,-0.08916732927709212,1
3443,-0.05347426368585852,1
3444,-0.13605138612487722,1
3445,-0.018442384960069794,1
3446,0.6694883048670098,1
3447,0.9176118562274657,1
3448,0.46047414196032155,1
3449,-0.05217295256347548,1
3450,-0.13045547477668917,1
3451,-0.02671291521626492,1
3452,0.009404673730338722,1
3453,-0.021708785991387935,1
3454,3.8317832202822215,1
3455,-3.012188583578715,1
3456,-0.7708210985079755,1
3457,-0.014546304174986646,1
3458,0.01137389173298309,1
3459,0.059384105835443686,1
3460,0.06104686897528161,0
3461,0.019065023873086426,0
3462,-0.030702543391245424,0
3463,0.0855988160458187,0
3464,0.04158305457307414,0
3465,0.015064540642842229,0
3466,0.05478827229382613,0
3467,1.6047455408584683,0
3468,6.952875267290976,0
3469,-0.07215964733230237,0
3470,-0.9960245680287915,0
3471,0.8273794265061749,0
3472,-0.41966023874332536,0
3473,0.1915237148330367,0
3474,-0.014501845148932376,0
3475,0.10738338347161777,0
3476,-0.014707277110873777,0
3477,-0.03076681580498247,0
3478,-0.033239819637428544,0
3479,0.030916745995125866,0
3480,0.09717406407358403,0
3481,0.022174885279769477,0
3482,0.034461766267681375,0
3483,0.059952292688572904,0
3484,3.4899283980595692,0
3485,6.260239783976869,0
3486,-2.6351007211067805,0
3487,0.998953087078895,0
3488,-0.3109884046545203,0
3489,0.15438179235203325,0
3490,-0.048453557949374185,0
3491,0.04126118862244833,0
3492,-0.0464938015244968,0
3493,1.3812566340342877e-06,0
3494,0.02657972698886226,0
3495,-0.01359983967423337,0
3496,-0.022277580966668268,0
3497,-0.05286471611426198,0
3498,0.1263553815185798,0
3499,-0.09906572221499617,0
3500,0.5911924101523334,0
3501,5.446921357110299,0
3502,3.355486626591486,0
3503,-2.8183024320338146,0
3504,1.5112802070901963,0
3505,-0.8320829883594705,0
3506,0.23736439794253084,0
3507,-0.1434884368837431,0
3508,0.06401900839467299,0
3509,-0.004146947323171368,0
3510,-0.003949616925077632,0
3511,0.07686752839465644,0
3512,0.014340573128469213,0
3513,0.04277039719358574,0
3514,0.04475980959363126,0
3515,-0.014418861601191026,0
3516,-0.026687507967828622,0
3517,1.5754582734906477,0
3518,6.928352508756572,0
3519,-0.13263032612763628,0
3520,-0.8547619828433878,0
3521,0.7091151237211226,0
3522,-0.3640253853058408,0
3523,0.09716264291265682,0
3524,-0.13977607849046464,0
3525,-0.028333164149387424,0
3526,-0.0901345371578029,0
3527,-0.10760025414448186,0
3528,-0.034723249218114455,0
3529,0.04400844566088241,0
3530,-0.08552844351635046,0
3531,-0.04196063318952463,0
3532,-0.055185960374797,0
3533,0.061304533051475846,0
3534,3.467036795340288,0
3535,6.225292132461227,0
3536,-2.6699505918754203,0
3537,0.9337805193985252,0
3538,-0.4183816876521189,0
3539,0.020965280561400623,0
3540,-0.06624661438214041,0
3541,-0.06514361079261202,0
3542,0.005258451525031054,0
3543,0.08465743537106081,0
3544,-0.058711368157775015,0
3545,-0.10889022776891635,0
3546,0.0003525358328870347,0
3547,0.01469721390462312,0
3548,-0.018202054850201814,0
3549,-0.06820592670386419,0
3550,0.5164107796359136,0
3551,5.440873350505693,0
3552,3.459876391459324,0
3553,-2.724555764512941,0
3554,1.4693722029114376,0
3555,-0.8265012138079656,0
3556,0.27376231284870334,0
3557,-0.26941328908011364,0
3558,0.016213319764282634,0
3559,-0.05100186464672192,0
3560,-0.1303902273634791,0
3561,-0.09204181583127943,0
3562,-0.11474706891274196,0
3563,-0.10462724752213144,0
3564,-0.14572655664885442,0
3565,-0.043576867125475496,0
3566,-0.0585254823386306,0
3567,1.5835471029807087,0
3568,6.922646623225882,0
3569,-0.18154983109480374,0
3570,-0.9705717401845688,0
3571,0.8045547842655386,0
3572,-0.30115886154201693,0
3573,0.12668578921528806,0
3574,0.06451370744042902,0
3575,-0.0442160833493184,0
3576,0.010294942731232052,0
3577,0.00237799516958475,0
3578,0.01567476121677541,0
3579,0.1352491465994927,0
3580,-0.016845985240804974,0
3581,0.006007229259077174,0
3582,-0.03377732440155158,0
3583,0.18031960054374047,0
3584,3.4437107531049707,0
3585,6.222089688011381,0
3586,-2.6873782370575237,0
3587,0.9791940644265168,0
3588,-0.3853281696761585,0
3589,0.09906668420231514,0
3590,-0.044899100428468716,0
3591,0.0064454044419976165,0
3592,0.016865749308011053,0
3593,-0.026739489842738287,0
3594,-0.08557554163894149,0
3595,-0.04192755847696209,0
3596,-0.03723227054427552,0
3597,0.022128646802108673,0
3598,-0.07515993470422985,0
3599,-0.10871698978650793,0
3600,0.4860579928241193,0
3601,5.553963573985287,0
3602,3.4053663121653654,0
3603,-2.80952583306482,0
3604,1.6077844036865692,0
3605,-0.8826410455256402,0
3606,0.3741157458253735,0
3607,-0.11577578000379593,0
3608,-0.04966493741950287,0
3609,-0.05056510351628988,0
3610,0.057973498432309666,0
3611,0.11648315789892578,0
3612,0.011402844112591324,0
3613,0.06692362554986744,0
3614,-0.07637859729835059,0
3615,0.08044482629293176,0
3616,0.05453839310977728,0
3617,1.6795288998062805,0
3618,6.966530285027099,0
3619,-0.1865981666588807,0
3620,-1.0014581711289718,0
3621,0.7311312710491765,0
3622,-0.38889552782005415,0
3623,0.18225215887528887,0
3624,0.06654863363104278,0
3625,0.0023993641687846574,0
3626,-0.11044882114998622,0
3627,-0.010924262377913607,0
3628,-0.05607582199793605,0
3629,-0.02376633074677275,0
3630,-0.06354731503848136,0
3631,0.048529427643101156,0
3632,-0.08391287360741861,0
3633,0.17459571419152897,0
3634,3.414422191363287,0
3635,6.204463029409449,0
3636,-2.7324847751575887,0
3637,0.981813369616956,0
3638,-0.4748062265994559,0
3639,0.09656165085984798,0
3640,0.017953407238192068,0
3641,-0.0034962524914322122,0
3642,0.009987939930044147,0
3643,-0.046103930150650646,0
3644,-0.04282054370922227,0
3645,-0.03815687771813414,0
3646,-0.00375868283091298,0
3647,0.003984305982945371,0
3648,0.030036598375751056,0
3649,0.011283345214924523,0
3650,0.4571016121275937,0
3651,5.484181680429137,0
3652,3.4718134608092175,0
3653,-2.7127004283877487,0
3654,1.565807541098243,0
3655,-0.7643291148370714,0
3656,0.4540650387302249,0
3657,-0.15227087242095363,0
3658,0.005720197557287317,0
3659,0.05893827913509003,0
3660,-0.025975202522200477,0
3661,0.05611815219833106,0
3662,0.02940423562044265,0
3663,0.06462190920144414,0
3664,-0.028480152692676834,0
3665,-0.042452557778061555,0
3666,-0.07172518134629532,0
3667,1.5358277863926801,0
3668,6.970385907281917,0
3669,-0.14727731578554437,0
3670,-0.9210058664135935,0
3671,0.841823671480146,0
3672,-0.4409412179428053,0
3673,0.12759711351334452,0
3674,-0.0135712630173936,0
3675,0.11985500270977999,0
3676,0.03970691372534165,0
3677,-0.00432157904659196,0
3678,0.011680662211619333,0
3679,0.05034320790269134,0
3680,0.04925574469303698,0
3681,0.0013836422660271908,0
3682,0.0838631892530452,0
3683,0.08656073468418864,0
3684,3.6116354155499124,0
3685,6.373350039860306,0
3686,-2.660713014644494,0
3687,1.1695682082118313,0
3688,-0.39140955426760715,0
3689,0.10284963202915516,0
3690,0.0023549762905020477,0
3691,0.10285843440815573,0
3692,-0.014074072602012006,0
3693,-0.03102565527813003,0
3694,0.07101979354118308,0
3695,0.020400857609215152,0
3696,0.004127089594209673,0
3697,-0.03822079009237452,0
3698,0.01002440285694984,0
3699,0.007500161972696453,0
3700,0.44921063337667677,0
3701,5.536620290130808,0
3702,3.4424964713540738,0
3703,-2.715184328873898,0
3704,1.5430396056849283,0
3705,-0.8773093437381868,0
3706,0.32702835374476935,0
3707,-0.1485738664932265,0
3708,0.02263319535116711,0
3709,0.045472421006823034,0
3710,-0.02785821846835997,0
3711,0.09517305607428997,0
3712,0.029092806628399435,0
3713,0.09829933109414996,0
3714,0.06593126251400801,0
3715,0.07159383087734897,0
3716,-0.04859177184707638,0
3717,1.5962661361904307,0
3718,6.95242765618458,0
3719,-0.23702401161429268,0
3720,-1.000321367864357,0
3721,0.6904201578474988,0
3722,-0.4504281987565675,0
3723,0.1336337986989939,0
3724,-0.12668555295974998,0
3725,-0.10033197517853061,0
3726,-0.039435341704436896,0
3727,0.05026532963142387,0
3728,-0.06352587202327062,0
3729,-0.03872799365006109,0
3730,-0.07483713291303755,0
3731,-0.05732552109288004,0
3732,-0.059724289633772076,0
3733,-0.038398050540742995,0
3734,3.541152483211761,0
3735,6.229819517570774,0
3736,-2.769454601076479,0
3737,1.0847482633041945,0
3738,-0.33210254795596783,0
3739,0.05358629284182587,0
3740,-0.07172683243129516,0
3741,-0.07062163200518026,0
3742,0.04499821924670444,0
3743,0.055279578489336664,0
3744,-0.022781824516095603,0
3745,0.005057798317676845,0
3746,0.05148738899841379,0
3747,0.007717562935974833,0
3748,-0.08813677915294899,0
3749,0.0101374299656454,0
3750,0.5279669245237497,0
3751,5.543279966425799,0
3752,3.3700713960262476,0
3753,-2.7638952010595084,0
3754,1.5406006509226744,0
3755,-0.8094466074096144,0
3756,0.3444516530807668,0
3757,-0.02666820099465049,0
3758,0.004348704404456307,0
3759,0.021744504618892973,0
3760,0.04863906170819098,0
3761,0.0745946670759344,0
3762,0.0018313001819807379,0
3763,-0.019650275484292774,0
3764,0.12078631378055464,0
3765,0.0019134618744988119,0
3766,0.05044566190894298,0
3767,1.6053442621068625,0
3768,6.974026192176773,0
3769,-0.30415710851130057,0
3770,-0.8517885113380684,0
3771,0.7733489265519534,0
3772,-0.3966922387834614,0
3773,0.2821715963345493,0
3774,-0.1501941482620711,0
3775,0.005591683407837786,0
3776,0.01859798739492838,0
3777,0.04310590547097555,0
3778,0.023270657843224275,0
3779,0.0654280855046735,0
3780,0.04639220434481318,0
3781,0.07539806141894936,0
3782,0.0477809117458524,0
3783,0.1369978168125975,0
3784,3.4129583485210304,0
3785,6.311425499325084,0
3786,-2.7754729192887164,0
3787,1.0648227634493577,0
3788,-0.43800342962040706,0
3789,0.11559406663509209,0
3790,-0.00034280792981922215,0
3791,0.031363139389302824,0
3792,-0.016064530102398562,0
3793,-0.012392838527921085,0
3794,0.07567058830340154,0
3795,0.017555608240238656,0
3796,-0.014901576716931136,0
3797,0.04874431737590615,0
3798,-0.12366967617411617,0
3799,0.1312530369838719,0
3800,0.670194388164029,0
3801,5.712613297034745,0
3802,3.367017165137096,0
3803,-2.732169778872964,0
3804,1.5122059777968369,0
3805,-0.7763746665544158,0
3806,0.21710130351488438,0
3807,-0.06593939187265646,0
3808,-0.0735099599326275,0
3809,-0.034800693945197456,0
3810,-0.031210271809394223,0
3811,0.03223935266079263,0
3812,0.019682234488919738,0
3813,0.016783113524829238,0
3814,0.032234273522041744,0
3815,0.11047436537378194,0
3816,0.0006034760105942255,0
3817,1.8045730986759947,0
3818,6.977130513942206,0
3819,-0.1725078588016234,0
3820,-0.7681442945100772,0
3821,0.7807686866956831,0
3822,-0.2853684342883848,0
3823,0.25434252093226883,0
3824,0.11274824275872433,0
3825,0.11811517802590148,0
3826,0.04223356680682264,0
3827,0.04775902762194963,0
3828,0.09808557236812188,0
3829,0.053493420387825716,0
3830,-0.07303853039720269,0
3831,0.14051992151535006,0
3832,-0.05256699129448843,0
3833,0.1534547974436499,0
3834,3.5266257523424986,0
3835,6.184063851891341,0
3836,-2.715151396407095,0
3837,1.031872032990063,0
3838,-0.31288020941809247,0
3839,0.08339142631261798,0
3840,-0.05891206985683771,0
3841,0.009409948361188795,0
3842,0.11422148447053695,0
3843,0.05478479372465931,0
3844,-0.001586378258622522,0
3845,0.01763884535305354,0
3846,0.0422061926336595,0
3847,0.03208025462163624,0
3848,-0.0013064365277296215,0
3849,0.034871079395125855,0
3850,0.6229217590140856,0
3851,5.579307225549363,0
3852,3.4265186001576993,0
3853,-2.6963718804301067,0
3854,1.5809735264323252,0
3855,-0.7906184567202511,0
3856,0.41566092619818984,0
3857,-0.03731521693411942,0
3858,0.07083483472872248,0
3859,0.053127241469120776,0
3860,0.0288912625208927,0
3861,0.03387742503595788,0
3862,0.050742297565791725,0
3863,-0.011982959269399615,0
3864,0.023163386854382684,0
3865,0.038472741777753845,0
3866,0.021969255160281382,0
3867,1.6932772386166746,0
3868,6.960674983639026,0
3869,-0.2556423170680681,0
3870,-0.9054438610726357,0
3871,0.8082618570134552,0
3872,-0.3479591447378017,0
3873,0.1910741296770878,0
3874,0.004611067767098999,0
3875,0.0284832779460149,0
3876,0.04308343999370829,0
3877,-0.008618477326228067,0
3878,0.03424567298345959,0
3879,-0.07101493555326845,0
3880,0.02988798822157341,0
3881,-0.013039248068277812,0
3882,-0.006495052844809679,0
3883,0.011390912942470716,0
3884,3.5136635932135856,0
3885,6.250491262484347,0
3886,-2.8722823766102223,0
3887,1.0596391073757725,0
3888,-0.3486627172920874,0
3889,0.2925919518574632,0
3890,-0.05864677562363627,0
3891,-0.03338035417884257,0
3892,-0.01871090034022841,0
3893,-0.011647786846649563,0
3894,0.0014784974721404958,0
3895,-0.0529872166302065,0
3896,-0.04610060089709234,0
3897,-0.0769194998549045,0
3898,-0.07119721086654925,0
3899,-0.04543302121835629,0
3900,0.5678821896454305,0
3901,5.557550406356489,0
3902,3.3285789745520926,0
3903,-2.8279081873688985,0
3904,1.4945030490288818,0
3905,-0.7957231471149806,0
3906,0.36288236953095415,0
3907,-0.2992142215333442,0
3908,-0.054407371234498424,0
3909,-0.1053411752717043,0
3910,-0.12013516059169313,0
3911,-0.047331209276265565,0
3912,-0.025224429692602614,0
3913,0.03418917821033082,0
3914,-0.08585057908997247,0
3915,-0.0057434256950464405,0
3916,-0.00837838519029456,0
3917,1.6196019178393664,0
3918,6.818393816443551,0
3919,-0.3298579313875451,0
3920,-0.9012890936630366,0
3921,0.6437812738418015,0
3922,-0.33550087832118025,0
3923,0.15878054211262388,0
3924,-0.07102886869347494,0
3925,-0.058807311642056694,0
3926,-0.0733221486991702,0
3927,-0.006232513482979533,0
3928,-0.031534955977189305,0
3929,-0.03601559564774324,0
3930,-0.07809782813593444,0
3931,-0.12073942439884358,0
3932,0.01611815403628729,0
3933,0.03782442653281531,0
3934,3.5176400246258575,0
3935,6.21980498054676,0
3936,-2.8504264609588876,0
3937,1.0477362646924058,0
3938,-0.5105150429626457,0
3939,0.15859118412124806,0
3940,-0.04558169573384083,0
3941,-0.049370561776578774,0
3942,-0.08384056695918977,0
3943,0.004927477685597224,0
3944,-0.054760244107907086,0
3945,-0.05470910338731226,0
3946,-0.10101991483893569,0
3947,-0.09088450630043707,0
3948,-0.025819857705370663,0
3949,-0.1369219667462557,0
3950,0.5578700921583615,0
3951,5.612345241556866,0
3952,3.2329381953522467,0
3953,-2.784783287536321,0
3954,1.4996193460294387,0
3955,-0.7985334801616616,0
3956,0.33922604596216066,0
3957,-0.11653503217178475,0
3958,-0.007604049518824138,0
3959,-0.06442542112682845,0
3960,-0.023436316937581945,0
3961,0.02535719023967816,0
3962,0.016473859165286386,0
3963,-0.0922126262663658,0
3964,-0.03548522132491613,0
3965,-0.05344070564417616,0
3966,-0.0007084198902659426,0
3967,1.649323151924479,0
3968,6.874595792408543,0
3969,-0.36195889263866504,0
3970,-0.9436877668193304,0
3971,0.7735133467060262,0
3972,-0.3817337330294156,0
3973,0.13958130577391906,0
3974,-0.018366618965570743,0
3975,-0.09924625613630236,0
3976,0.02334679000633117,0
3977,-0.038591773836376006,0
3978,-0.01351241850906322,0
3979,-0.023117622801500003,0
3980,-0.019903892060096087,0
3981,-0.028249765970008396,0
3982,-0.032604727648120814,0
3983,0.1432754845760491,0
3984,3.5325177517078203,0
3985,6.130823154680513,0
3986,-2.775504590481047,0
3987,1.0741556312711666,0
3988,-0.4596959907814269,0
3989,0.18051159504866224,0
3990,-0.10735269851694976,0
3991,0.03571720606942437,0
3992,0.057246674731593436,0
3993,-0.1104191585370283,0
3994,0.10485768768262971,0
3995,0.06029259962066378,0
3996,-0.07690000039578859,0
3997,-0.029987651070022638,0
3998,0.006075898225461609,0
3999,-0.0681578297441315,0
4000,0.5748170419399594,0
4001,5.6319800641775295,0
4002,3.3360039560543755,0
4003,-2.6768965043105677,0
4004,1.4131167910500162,0
4005,-0.9067764549747995,0
4006,0.28100914631888435,0
4007,-0.08976488414771464,0
4008,-0.030033150214192183,0
4009,-0.0449947804116851,0
4010,-0.020784485834064708,0
4011,-0.04168031223543056,0
4012,0.07992981320877965,0
4013,0.016833849365903146,0
4014,0.01778596725334914,0
4015,0.009444428565331347,0
4016,-0.015623027764365272,0
4017,1.733937646651059,0
4018,6.984028294688018,0
4019,-0.36351846202382604,0
4020,-0.8895799051609102,0
4021,0.6523990915923077,0
4022,-0.28682451070155907,0
4023,0.15650741576084223,0
4024,0.0063239375988945155,0
4025,0.08879648104572607,0
4026,0.02151784497018629,0
4027,0.011222186337112458,0
4028,0.04471986811054118,0
4029,0.035004015695764536,0
4030,-0.04521765523779242,0
4031,-0.008472122769906283,0
4032,-0.022124261118596056,0
4033,0.04500543253645296,0
4034,3.5751523332603554,0
4035,6.142631679384107,0
4036,-2.834344249967148,0
4037,1.2377979308092448,0
4038,-0.3461296780887304,0
4039,0.1519533463940673,0
4040,-0.00994839478704819,0
4041,0.049214611546135614,0
4042,0.044334725300518324,0
4043,-0.05024764684855787,0
4044,-0.047411500214467564,0
4045,-0.01966358856196951,0
4046,0.1096558250236618,0
4047,0.0713145173353436,0
4048,-0.04309690324705383,0
4049,-0.0032169678345977406,0
4050,0.6828438615401433,0
4051,5.794402332545911,0
4052,3.2648013802920244,0
4053,-2.703187790953099,0
4054,1.465260694084749,0
4055,-0.7679165065433671,0
4056,0.3396845083586904,0
4057,-0.15973879905380803,0
4058,0.04631445044652898,0
4059,0.01255753775766632,0
4060,0.11479604781490191,0
4061,0.04873865881810572,0
4062,-0.008103285836176208,0
4063,0.004819797873634322,0
4064,0.05244541904775893,0
4065,0.0750584645100298,0
4066,0.052465951707154936,0
4067,1.6157320503954486,0
4068,6.959771157837845,0
4069,-0.33054483877903956,0
4070,-0.8489308291634631,0
4071,0.7105950993815218,0
4072,-0.33650908535882845,0
4073,0.1163891381392543,0
4074,0.06894078439013729,0
4075,0.00029203662446657466,0
4076,0.034676956601090166,0
4077,-0.00016480983591621139,0
4078,-0.035697268806197655,0
4079,0.06224507955318143,0
4080,0.0008189804171424113,0
4081,-0.040428900946276526,0
4082,0.002539473034747629,0
4083,0.12269784418830178,0
4084,3.552337811776727,0
4085,6.139915641203242,0
4086,-2.7575173396065162,0
4087,1.1897820135680284,0
4088,-0.507495733611448,0
4089,0.19978170810291934,0
4090,0.0007750916924029183,0
4091,0.010223325663794136,0
4092,0.07166669576519888,0
4093,0.06010070953202065,0
4094,-0.02021808677070896,0
4095,0.04553582357631563,0
4096,0.10843457570527665,0
4097,0.04689560846365487,0
4098,0.1369705935794407,0
4099,0.15055362604908265,0
4100,0.5944285425331433,0
4101,5.637208800654917,0
4102,3.2239487667170947,0
4103,-2.6882643880275614,0
4104,1.599987935404334,0
4105,-0.8779129184773691,0
4106,0.41282001656259526,0
4107,-0.15298509585237294,0
4108,-0.020443389157973904,0
4109,-0.06698279497549127,0
4110,-0.050622766429787414,0
4111,0.003778519996662842,0
4112,-0.05000227628859462,0
4113,0.008736850164551002,0
4114,0.07777251553992923,0
4115,0.08913166540548932,0
4116,0.07040228423212713,0
4117,1.682984466563909,0
4118,6.971702884405779,0
4119,-0.32485942473834806,0
4120,-0.7318686912895604,0
4121,0.7447297014821057,0
4122,-0.2869890203240072,0
4123,0.1983123798056559,0
4124,0.14967340191079606,0
4125,0.09726020231219709,0
4126,-0.025813005226816975,0
4127,0.07721225272947635,0
4128,0.11487349965763782,0
4129,0.08715484170878111,0
4130,-0.0017609997878919857,0
4131,-0.10824025258204684,0
4132,-0.004111705227628899,0
4133,0.10431487161992259,0
4134,3.5882458061377895,0
4135,6.00904802053321,0
4136,-2.793769966259169,0
4137,1.1979520220186675,0
4138,-0.4718548725425872,0
4139,0.15962342051712158,0
4140,-0.08584615059081427,0
4141,-0.04790522476744336,0
4142,0.02189026616913492,0
4143,0.04538192346978724,0
4144,-0.02214875693809098,0
4145,0.047075917669437015,0
4146,0.09445369659008343,0
4147,0.035499615367376246,0
4148,-0.026929686392403576,0
4149,0.11990043581043358,0
4150,0.6070966151213002,0
4151,5.707491658367406,0
4152,3.2305057498230463,0
4153,-2.605949343514325,0
4154,1.5399301232176097,0
4155,-0.7582166453012663,0
4156,0.405062962984394,0
4157,-0.08056692661755664,0
4158,0.08100083842888486,0
4159,-0.08959139223148528,0
4160,-0.01501685330703742,0
4161,0.01233514268079642,0
4162,0.04299323541236183,0
4163,0.020226925932805572,0
4164,0.027611959486345275,0
4165,-0.010555881056950607,0
4166,0.017812023852797978,0
4167,1.6693661516738831,0
4168,6.958977102059186,0
4169,-0.4599889304259509,0
4170,-0.6955366632979458,0
4171,0.7383556667398569,0
4172,-0.32478618798946807,0
4173,0.13860737122041739,0
4174,-0.050091066697276726,0
4175,0.15867605019626718,0
4176,-0.028733562693273172,0
4177,0.048053418569571446,0
4178,0.07073618445274013,0
4179,0.062184236025266126,0
4180,0.11539257592526118,0
4181,0.030641025166499854,0
4182,-0.08332737298521367,0
4183,0.21922603361696869,0
4184,3.6285097203904177,0
4185,6.097887017140827,0
4186,-2.746458784536601,0
4187,1.2075237084312396,0
4188,-0.4531955815840103,0
4189,0.22935677524540266,0
4190,-0.015994584892987107,0
4191,0.05793666835270951,0
4192,0.0921719370945599,0
4193,-0.020666764329305896,0
4194,-0.0005884871589546122,0
4195,0.029598988927898365,0
4196,-0.12531591002085815,0
4197,-0.016570979733505794,0
4198,-0.019568388317234866,0
4199,0.01985145854318182,0
4200,0.6519174778598522,0
4201,5.674304234153227,0
4202,3.257465364994236,0
4203,-2.6548870515013663,0
4204,1.5066803028009343,0
4205,-0.8172762902697085,0
4206,0.33816360587718025,0
4207,-0.01792330936054852,0
4208,0.11057342383338113,0
4209,-0.014817125790601047,0
4210,0.0023579135819641974,0
4211,0.031745389926648444,0
4212,0.05835823302882341,0
4213,-0.014200774371492994,0
4214,-0.09141255376666432,0
4215,0.04859917113276173,0
4216,0.03198467149524647,0
4217,1.8169158483191734,0
4218,7.008148426681043,0
4219,-0.3433356026990112,0
4220,-0.7761124899976445,0
4221,0.723883144258004,0
4222,-0.2841592865699471,0
4223,0.28890524092886555,0
4224,0.061705492316555595,0
4225,0.06478759292189909,0
4226,0.16198071593960106,0
4227,0.09256961111906527,0
4228,-0.03769755251361642,0
4229,0.03285116003940336,0
4230,0.16345324665665129,0
4231,0.04103514151061477,0
4232,-0.02564239787486327,0
4233,0.16580599451825379,0
4234,3.6169438703141314,0
4235,6.006942704994514,0
4236,-2.865651267778771,0
4237,1.0437418208739933,0
4238,-0.4912707630237669,0
4239,0.1473544191852078,0
4240,-0.051196922667268024,0
4241,0.04293281126921493,0
4242,0.01595203336085864,0
4243,0.051868296885554194,0
4244,0.01902984737498755,0
4245,-0.0331713512268619,0
4246,0.012728431656125326,0
4247,-0.011613640783415702,0
4248,0.03930975087825018,0
4249,0.09394588083229119,0
4250,0.7944558234324725,0
4251,5.802522072248423,0
4252,3.218001210756115,0
4253,-2.5836480743442527,0
4254,1.666266824296949,0
4255,-0.77269724291328,0
4256,0.45168450660524184,0
4257,-0.06613020196260876,0
4258,0.11146502636116457,0
4259,0.08337327004083366,0
4260,0.03474203841391596,0
4261,-0.008986911067671674,0
4262,-0.04500980567580564,0
4263,0.09371380830088628,0
4264,0.013878447769968681,0
4265,0.08404439253716404,0
4266,0.051322378484186165,0
4267,1.7452641726781872,0
4268,6.881637813121001,0
4269,-0.5259756430868093,0
4270,-0.8527475202278909,0
4271,0.6284669481548028,0
4272,-0.2593380239411715,0
4273,0.16903302716884352,0
4274,-0.0351743550882684,0
4275,-0.046661266017441305,0
4276,0.00889550476520922,0
4277,0.030462220520956106,0
4278,-0.0412982175832937,0
4279,0.10622747900546067,0
4280,0.01265026066930252,0
4281,0.01958135251950365,0
4282,0.00311714921958228,0
4283,0.15290592994710211,0
4284,3.652985986385401,0
4285,6.085247655710059,0
4286,-2.8652350480392004,0
4287,1.1461850428381344,0
4288,-0.4516815727829646,0
4289,0.13239888207629713,0
4290,-0.052782031314013586,0
4291,-0.0067959822909315105,0
4292,-0.07842892240422131,0
4293,-0.029994651691357434,0
4294,0.029359383584345776,0
4295,-0.07558150489431165,0
4296,0.010875383391648358,0
4297,0.004590590133227873,0
4298,0.03685428172780397,0
4299,-0.00046871256061183433,0
4300,0.6752365391320208,0
4301,5.826156285287668,0
4302,3.2054610604807903,0
4303,-2.52233320404651,0
4304,1.5750119188786378,0
4305,-0.6268854398644051,0
4306,0.444669780347001,0
4307,-0.12359203932167595,0
4308,0.1389120102223098,0
4309,0.011811352114072096,0
4310,0.0571832262090593,0
4311,0.09322039608342826,0
4312,0.06817424181078764,0
4313,0.030219462222157815,0
4314,-0.08698806560005255,0
4315,-0.044835448532323866,0
4316,-0.13519598072575392,0
4317,1.7382539106673174,0
4318,6.898984054137596,0
4319,-0.4732627493869246,0
4320,-0.8779697816476495,0
4321,0.6587740411184311,0
4322,-0.3799683162116247,0
4323,0.22763952761498868,0
4324,-0.018814029314261224,0
4325,0.01786816965507796,0
4326,-0.0705770981097486,0
4327,-0.05507164695223877,0
4328,-0.040504140018033076,0
4329,-0.11813382259150632,0
4330,-0.0809416818212354,0
4331,-0.09124345346339575,0
4332,-0.0811460997885272,0
4333,0.09369612962207202,0
4334,3.5411016963276953,0
4335,5.993427582833061,0
4336,-2.8244130493876582,0
4337,1.1158091179186154,0
4338,-0.5599707526574269,0
4339,0.287635698315605,0
4340,-0.014450997879494346,0
4341,0.05930306260574742,0
4342,0.026326579093662573,0
4343,0.08648870236857775,0
4344,-0.053201312781776394,0
4345,0.02762664290141994,0
4346,0.06966026995987266,0
4347,0.042975140832426165,0
4348,0.015550997554347717,0
4349,-0.07675499187023495,0
4350,0.6101442575136525,0
4351,5.818323461234887,0
4352,3.1404510618522035,0
4353,-2.5989362663500977,0
4354,1.5820405489704754,0
4355,-0.8530654814850129,0
4356,0.29207913556506604,0
4357,-0.19050705754302835,0
4358,-0.03630581079673209,0
4359,-0.07113056559975275,0
4360,-0.02736257249566972,0
4361,0.03841197373516469,0
4362,-0.07831582559131778,0
4363,-0.07215735474979398,0
4364,0.005419982210087531,0
4365,0.019031886721964972,0
4366,-0.04082149637361629,0
4367,1.7224626324627867,0
4368,6.8956689752711995,0
4369,-0.48564582991073524,0
4370,-0.83247400086283,0
4371,0.6056822236488933,0
4372,-0.41549999134660603,0
4373,0.10084182893609708,0
4374,-0.12476471895144081,0
4375,-0.0162548926936784,0
4376,-0.07457165317576081,0
4377,-0.040806279221999864,0
4378,-0.07837364136556965,0
4379,-0.09916481816495601,0
4380,-0.02425325167723377,0
4381,-0.0032672479802373228,0
4382,-0.015729189812579696,0
4383,0.06867154908323021,0
4384,3.6367284284187513,0
4385,5.955760636464179,0
4386,-2.934353316598373,0
4387,1.1354580303727333,0
4388,-0.4854491708242908,0
4389,0.11955390584017642,0
4390,-0.10094599680133286,0
4391,-0.011986004003000261,0
4392,0.10252389295286987,0
4393,-0.01757550994997798,0
4394,0.02964700179087685,0
4395,0.013010475726290448,0
4396,-0.05907670031261442,0
4397,-0.032370498533705806,0
4398,0.03585912108726666,0
4399,-0.003645361809091724,0
4400,0.5747546510960265,0
4401,5.699702558077518,0
4402,3.1113294794103408,0
4403,-2.662783063206991,0
4404,1.4836525024266463,0
4405,-0.7760236822246878,0
4406,0.3083123786406766,0
4407,-0.1078440457934125,0
4408,0.019258035815042433,0
4409,-0.0009700385103606681,0
4410,-0.008860755596996077,0
4411,-0.010038995919324029,0
4412,0.0011970346382595089,0
4413,-0.010724880458435074,0
4414,0.061396173503542206,0
4415,-0.0007071135906198947,0
4416,0.059029127571806915,0
4417,1.6941062566697793,0
4418,6.932165393110559,0
4419,-0.5117414295601822,0
4420,-0.673892931674601,0
4421,0.6472668654362488,0
4422,-0.3348430988967495,0
4423,0.13962832197212793,0
4424,-0.09764060299082145,0
4425,-0.03694188140537487,0
4426,-0.033791630883957285,0
4427,-0.023610825639792506,0
4428,-0.11964121263856356,0
4429,-0.01105570020435473,0
4430,0.07705331779355828,0
4431,0.04376555538708048,0
4432,-0.06747927330787445,0
4433,0.207210456407484,0
4434,3.6767619399366964,0
4435,6.032238649222484,0
4436,-2.9305846597884937,0
4437,1.176414770617346,0
4438,-0.40305592523985523,0
4439,0.2255770643645443,0
4440,-0.08276424600166893,0
4441,-0.0009094869579614924,0
4442,0.029830496306211533,0
4443,0.0016237092372205428,0
4444,0.0377177122723575,0
4445,0.014920609464543821,0
4446,-0.04646981480701031,0
4447,-0.006187147094583911,0
4448,0.02014926377418376,0
4449,-0.025425010293182726,0
4450,0.5466371128398267,0
4451,5.683013933556829,0
4452,3.054681575994762,0
4453,-2.7041702894839825,0
4454,1.4142437157556476,0
