timestamp,value-0,is_anomaly
0,-1.7696317205812306,0.0
1,-1.5769457576099821,0.0
2,-1.0126516292938517,0.0
3,-0.27874706577258324,0.0
4,0.5921414532550322,0.0
5,1.5594953555707443,0.0
6,2.6679321977211305,0.0
7,3.6506348851891235,0.0
8,4.564291798205142,0.0
9,5.025466111700674,0.0
10,5.055896559237311,0.0
11,4.338455560366139,0.0
12,3.164849525144742,0.0
13,1.6447914379761925,0.0
14,-0.23362103988765903,0.0
15,-1.9431494704501302,0.0
16,-3.6571294479676895,0.0
17,-4.7730149014502725,0.0
18,-4.7933752266007135,0.0
19,-4.591481283659352,0.0
20,-3.897816591089853,0.0
21,-2.6896113236075236,0.0
22,-1.717149947865185,0.0
23,-0.844892037174586,0.0
24,-0.2908852312846293,0.0
25,-0.35540000739878397,0.0
26,-0.8779294127183452,0.0
27,-1.1207063561032278,0.0
28,-1.711235079293236,0.0
29,-2.2172736551354686,0.0
30,-2.426829902968491,0.0
31,-2.6492208644282993,0.0
32,-2.3803466463909606,0.0
33,-2.1551190997771306,0.0
34,-2.0240232609312914,0.0
35,-1.634403791044625,0.0
36,-1.5429884998634633,0.0
37,-1.450658267028974,0.0
38,-1.5757653162467484,0.0
39,-1.6115336367764177,0.0
40,-1.6585723671239314,0.0
41,-1.8072092583458097,0.0
42,-1.671437005699283,0.0
43,-1.763330354702099,0.0
44,-1.8663330636224826,0.0
45,-1.8277898947570843,0.0
46,-1.7100491169318748,0.0
47,-1.6482476467172869,0.0
48,-1.9091206047033675,0.0
49,-1.8365583970469221,0.0
50,-1.4838163772272537,0.0
51,-1.6820355418286124,0.0
52,-1.7721371793501903,0.0
53,-2.0144066782416874,0.0
54,-1.6222202116528146,0.0
55,-1.716885039381628,0.0
56,-1.6245175241505854,0.0
57,-1.8938813609244054,0.0
58,-1.5849122651301257,0.0
59,-1.6698685748999578,0.0
60,-1.6301248218858546,0.0
61,-1.797509904803519,0.0
62,-1.7088739073245764,0.0
63,-1.5675175232511005,0.0
64,-1.7283348741512838,0.0
65,-1.8989041916387712,0.0
66,-1.7289932076152814,0.0
67,-1.8552296867482607,0.0
68,-1.588010128093279,0.0
69,-1.7903825637559736,0.0
70,-1.6728264056967115,0.0
71,-1.587607837405131,0.0
72,-1.587713744952964,0.0
73,-1.6899158447419678,0.0
74,-1.9095273047540096,0.0
75,-1.5788356491976259,0.0
76,-1.5366985023608084,0.0
77,-1.5008695973755157,0.0
78,-1.3618923327786894,0.0
79,-1.3816399801633588,0.0
80,-1.5108564032348406,0.0
81,-1.501824740015009,0.0
82,-1.6000202262591572,0.0
83,-1.677516094197839,0.0
84,-1.5688946917899185,0.0
85,-1.4541653176470062,0.0
86,-1.5178372772590263,0.0
87,-1.5039697081812762,0.0
88,-1.6051616046327688,0.0
89,-1.4180273954643254,0.0
90,-1.6490567852236944,0.0
91,-1.5464513210680046,0.0
92,-1.4970759553332627,0.0
93,-1.5821640752121375,0.0
94,-1.5372420343761388,0.0
95,-1.4217412212061666,0.0
96,-1.5980610090699512,0.0
97,-1.5589679864094121,0.0
98,-1.3160772093616682,0.0
99,-1.4925523618336396,0.0
100,-1.3186073930766529,0.0
101,-1.0269752953163396,0.0
102,-0.6322954064176409,0.0
103,0.056236873487075734,0.0
104,1.0323231822896344,0.0
105,2.0416838183768533,0.0
106,2.866385070682253,0.0
107,3.9787265976272446,0.0
108,4.909220723318131,0.0
109,5.408651822888822,0.0
110,5.340590972188706,0.0
111,4.709418364850545,0.0
112,3.5007201834383412,0.0
113,1.8242306954583751,0.0
114,0.2644027790902541,0.0
115,-1.7470586801526933,0.0
116,-3.289769498436062,0.0
117,-4.176121421084981,0.0
118,-4.58130147332229,0.0
119,-4.1781695372892145,0.0
120,-3.297997019126274,0.0
121,-2.3703579885478363,0.0
122,-1.182046744531374,0.0
123,-0.31359338892941313,0.0
124,0.17016774437523297,0.0
125,0.16657147590605992,0.0
126,-0.2271851480274245,0.0
127,-0.5706721662021901,0.0
128,-1.1840006006040513,0.0
129,-1.9918244701470311,0.0
130,-2.049136058495888,0.0
131,-2.1669299556195343,0.0
132,-2.0798407105950547,0.0
133,-1.83588074662446,0.0
134,-1.4495031582089402,0.0
135,-1.1318871453463983,0.0
136,-1.2591696004795359,0.0
137,-0.8942989787616362,0.0
138,-1.041183753218858,0.0
139,-1.0444557890284072,0.0
140,-1.197676126077383,0.0
141,-1.3912961310587366,0.0
142,-1.4844471295203805,0.0
143,-1.4639267466238235,0.0
144,-1.4080589591269628,0.0
145,-1.261555353327536,0.0
146,-1.383517679626853,0.0
147,-1.2441552532885174,0.0
148,-1.4185031190444273,0.0
149,-1.387764850159745,0.0
150,-1.334617594025007,0.0
151,-1.1508214837649042,0.0
152,-1.2917889980505741,0.0
153,-1.2373849210857248,0.0
154,-1.3770570011663956,0.0
155,-1.3592779551687184,0.0
156,-1.1702776802286952,0.0
157,-1.4403426169431437,0.0
158,-1.374502941085564,0.0
159,-1.3647340311329086,0.0
160,-1.2212783975980497,0.0
161,-1.2134524880922315,0.0
162,-1.2639856940756746,0.0
163,-1.4680324207644817,0.0
164,-1.418157542379743,0.0
165,-1.200330139382794,0.0
166,-1.268052623364065,0.0
167,-1.4031714764309633,0.0
168,-1.1188500328564903,0.0
169,-1.3102058797807952,0.0
170,-1.3251388691816428,0.0
171,-1.2526738728939273,0.0
172,-1.2698304133531402,0.0
173,-1.3293790923708957,0.0
174,-1.1284891508426478,0.0
175,-1.030308257686287,0.0
176,-1.3026402115336466,0.0
177,-1.1910929104126058,0.0
178,-1.3566822824535305,0.0
179,-1.4069597130633893,0.0
180,-1.1696361087081213,0.0
181,-1.377061681515673,0.0
182,-1.2242607627078967,0.0
183,-0.9175004111714683,0.0
184,-1.1862924310380751,0.0
185,-1.2185497405847734,0.0
186,-1.3006024704217982,0.0
187,-1.1372013205241365,0.0
188,-1.1748291327467562,0.0
189,-1.0872749634474836,0.0
190,-1.1542377115341276,0.0
191,-1.2315228616993372,0.0
192,-1.1121480554611798,0.0
193,-1.1893710566843163,0.0
194,-1.1432320743587783,0.0
195,-1.0647992854358221,0.0
196,-1.1895829640006,0.0
197,-1.1841774861447363,0.0
198,-1.0998325871543448,0.0
199,-0.8407116218509336,0.0
200,-0.9449300282668196,0.0
201,-0.658636003119984,0.0
202,-0.25253222587833657,0.0
203,0.5400903246562998,0.0
204,1.295351894203131,0.0
205,2.3660748503877818,0.0
206,3.4190617228310085,0.0
207,4.561268520186347,0.0
208,5.34214186939873,0.0
209,5.831987943730064,0.0
210,5.802299471060393,0.0
211,5.354912723332628,0.0
212,4.056905947107239,0.0
213,2.3689064308005214,0.0
214,0.5355366720498331,0.0
215,-1.1463039748992305,0.0
216,-2.6963286004682727,0.0
217,-3.7970639879222405,0.0
218,-3.9653710168738723,0.0
219,-3.710489326882072,0.0
220,-3.079453929195779,0.0
221,-2.0850984681248406,0.0
222,-0.8258936250685981,0.0
223,-0.08840635311986877,0.0
224,0.4042266148103839,0.0
225,0.593756437653326,0.0
226,0.33505207614506183,0.0
227,-0.17901700682869603,0.0
228,-0.9116497855694917,0.0
229,-1.2074800114797712,0.0
230,-1.5970689180699726,0.0
231,-1.809501848110847,0.0
232,-1.6245445435849737,0.0
233,-1.524660856686085,0.0
234,-1.231619902276461,0.0
235,-0.7543402661110293,0.0
236,-0.6303100683031793,0.0
237,-0.7164459224529157,0.0
238,-0.8214802385521205,0.0
239,-0.6884961225395638,0.0
240,-0.99231963861993,0.0
241,-1.1055803242839894,0.0
242,-0.9913947837072439,0.0
243,-1.1539036134824947,0.0
244,-1.06511191189973,0.0
245,-1.103729605476394,0.0
246,-0.9788444081189698,0.0
247,-0.8070761149342758,0.0
248,-0.8160816989328918,0.0
249,-0.9542403981764803,0.0
250,-0.8873189318468627,0.0
251,-0.6628755003679326,0.0
252,-0.7741091721939042,0.0
253,-0.9895767665244565,0.0
254,-0.8402229482704141,0.0
255,-1.0263301415258563,0.0
256,-0.7295783344186924,0.0
257,-0.8701527067586394,0.0
258,-0.8764767762697052,0.0
259,-0.8215117785084303,0.0
260,-0.8194596763241531,0.0
261,-0.715345523553937,0.0
262,-0.8876713926868633,0.0
263,-0.9223312977751781,0.0
264,-0.842314820258392,0.0
265,-0.688760326760655,0.0
266,-0.6353408069568742,0.0
267,-0.8693524040642538,0.0
268,-0.8908174176407129,0.0
269,-0.8412040694007552,0.0
270,-0.5922077944741211,0.0
271,-0.8609395073246079,0.0
272,-0.7091638258315938,0.0
273,-0.7517448670467124,0.0
274,-0.7163167797011307,0.0
275,-0.7807126269697706,0.0
276,-0.700476968890772,0.0
277,-0.6898793167671191,0.0
278,-0.7641011294767898,0.0
279,-0.7547856818529968,0.0
280,-0.6475335710151824,0.0
281,-0.634089440800057,0.0
282,-0.6470196233880162,0.0
283,-0.8212386968332214,0.0
284,-0.9980544768956614,0.0
285,-0.6843481884464202,0.0
286,-0.8273552968766186,0.0
287,-0.5979721527563475,0.0
288,-0.7212584851389298,0.0
289,-0.630849278716767,0.0
290,-0.6813718615158612,0.0
291,-0.6352738595469338,0.0
292,-0.6254414655075123,0.0
293,-0.5729039503368576,0.0
294,-0.8299812770845003,0.0
295,-0.5759087222550434,0.0
296,-0.9327369058986376,0.0
297,-0.6510751444684946,0.0
298,-0.6229635688897971,0.0
299,-0.6012834106309195,0.0
300,-0.5020947768797235,0.0
301,-0.35299588280057215,0.0
302,0.32107668799779254,0.0
303,0.8730244900830888,0.0
304,1.8937192420851017,0.0
305,2.8573056890346793,0.0
306,3.8896991341348586,0.0
307,4.901159676179543,0.0
308,5.652225885368117,0.0
309,6.2332843172226635,0.0
310,6.185125161470655,0.0
311,5.767598340864621,0.0
312,4.546864020502588,0.0
313,2.994469762753423,0.0
314,1.351354259069045,0.0
315,-0.5978767417480587,0.0
316,-2.4709150986308206,0.0
317,-3.2492757542674964,0.0
318,-3.5388216095561384,0.0
319,-3.317476188471149,0.0
320,-2.6499309469347727,0.0
321,-1.5140818652003105,0.0
322,-0.4216153996665567,0.0
323,0.48430288677311717,0.0
324,1.069373315080479,0.0
325,0.8715750272868583,0.0
326,0.8013523923473914,0.0
327,0.17556228935506712,0.0
328,-0.40771985740047423,0.0
329,-0.8049973467903356,0.0
330,-1.2252904986357065,0.0
331,-1.3173669125323964,0.0
332,-1.175828901815405,0.0
333,-0.9163965182134746,0.0
334,-0.7093707000661891,0.0
335,-0.46921195631960017,0.0
336,-0.2510565735068384,0.0
337,-0.039703738788179954,0.0
338,-0.20624899692878873,0.0
339,-0.4638339610395008,0.0
340,-0.4631905683168503,0.0
341,-0.6583594029946407,0.0
342,-0.553817929348652,0.0
343,-0.7258546941354993,0.0
344,-0.4131750097994811,0.0
345,-0.4783381960419575,0.0
346,-0.4139570628140069,0.0
347,-0.4599256262760892,0.0
348,-0.3263059629392244,0.0
349,-0.39610963768250185,0.0
350,-0.29093765109945063,0.0
351,-0.2928190173313957,0.0
352,-0.42306069105845007,0.0
353,-0.4431698837040923,0.0
354,-0.5851232206717559,0.0
355,-0.39249358458301903,0.0
356,-0.5032724453481784,0.0
357,-0.37081329059449103,0.0
358,-0.5383012470196742,0.0
359,-0.4370886684852922,0.0
360,-0.5890263269755797,0.0
361,-0.5805300178890831,0.0
362,-0.38935455774649397,0.0
363,-0.3058610469559275,0.0
364,-0.4580048880819123,0.0
365,-0.3391844278779312,0.0
366,-0.4758748973833158,0.0
367,-0.3910374958541908,0.0
368,-0.4697156236830341,0.0
369,-0.2785948128552717,0.0
370,-0.6079259427488427,0.0
371,-0.44242171381056306,0.0
372,-0.45367235004058337,0.0
373,-0.4107467428972996,0.0
374,-0.3405648614412239,0.0
375,-0.36913895480967535,0.0
376,-0.2491968377235068,0.0
377,-0.39643214495641355,0.0
378,-0.22902834555786356,0.0
379,-0.245019121125153,0.0
380,-0.3117422611957544,0.0
381,-0.3629566444113469,0.0
382,-0.2335930579345702,0.0
383,-0.33368394872610546,0.0
384,-0.157794467117603,0.0
385,-0.13573035122990185,0.0
386,-0.39337221864300165,0.0
387,-0.2127503644079867,0.0
388,-0.31517893590619095,0.0
389,-0.3185195455276495,0.0
390,-0.22142125239345858,0.0
391,-0.24217323463838092,0.0
392,-0.2405252276382528,0.0
393,-0.19329703894130484,0.0
394,-0.07092168573848473,0.0
395,-0.147063304799312,0.0
396,-0.0537717399165476,0.0
397,-0.48157092561051157,0.0
398,-0.2479146556398661,0.0
399,-0.03440012639412239,0.0
400,0.048745836065825277,0.0
401,0.3450737854454856,0.0
402,0.66827241279349,0.0
403,1.4218149714335744,0.0
404,2.2683204976452602,0.0
405,3.285844481375222,0.0
406,4.140540532890936,0.0
407,5.33511668595069,0.0
408,6.059879529205263,0.0
409,6.694139093666877,0.0
410,6.709836795168356,0.0
411,5.953057066953374,0.0
412,5.0087535439750175,0.0
413,3.2942749959147304,0.0
414,1.682589409153569,0.0
415,-0.2993455053019736,0.0
416,-1.9622822321664735,0.0
417,-2.7706309346936786,0.0
418,-3.127184348997808,0.0
419,-2.834150354583421,0.0
420,-2.1619059342313327,0.0
421,-1.1310509037582288,0.0
422,-0.041354534706087076,0.0
423,0.7603527520904975,0.0
424,1.4290134345112495,0.0
425,1.341608766221923,0.0
426,1.2488631055897177,0.0
427,0.6244708461471451,0.0
428,0.05909414319305023,0.0
429,-0.3162326284497864,0.0
430,-0.8953116153847743,0.0
431,-0.6142728903411157,0.0
432,-0.7545360958863752,0.0
433,-0.5914198501613552,0.0
434,-0.2738466278565374,0.0
435,-0.012937102830591365,0.0
436,0.3092074199047772,0.0
437,0.2578863356889875,0.0
438,0.21245551829404055,0.0
439,0.25928871440497986,0.0
440,0.0023202698372352497,0.0
441,-0.09869593157900505,0.0
442,-0.1850722517066732,0.0
443,-0.23261619859568378,0.0
444,-0.30371480012619845,0.0
445,-0.1985595841608711,0.0
446,0.07581213198719272,0.0
447,0.08212381280952501,0.0
448,-0.15613256086211125,0.0
449,0.11220684720192602,0.0
450,0.03547498657292615,0.0
451,-0.07547603054574106,0.0
452,-0.046015016370920106,0.0
453,-0.002366065641754303,0.0
454,-0.09211976095836112,0.0
455,-0.030063245991669357,0.0
456,0.06828405459543016,0.0
457,-0.02250964534402296,0.0
458,0.07026489081114629,0.0
459,0.04906659113035873,0.0
460,0.05085954600032032,0.0
461,-0.011806350568693166,0.0
462,-0.03514318286711832,0.0
463,0.03909521196690746,0.0
464,0.053812737717773104,0.0
465,0.12270726050857636,0.0
466,0.16115756274673262,0.0
467,0.04833758537254748,0.0
468,0.06786523218505622,0.0
469,-0.013939597813816488,0.0
470,0.0895207090921438,0.0
471,0.16670868094803934,0.0
472,0.06288270028093497,0.0
473,0.0116074740337146,0.0
474,0.11656385894976663,0.0
475,0.1527954691874863,0.0
476,0.2477231580270878,0.0
477,0.31239866677340455,0.0
478,0.013730865796655556,0.0
479,0.2777125776978968,0.0
480,0.1511298904825127,0.0
481,0.31418266655385163,0.0
482,0.10336169754799127,0.0
483,0.1457167482510846,0.0
484,0.13570776135455964,0.0
485,0.1860926688554108,0.0
486,0.05401593721202899,0.0
487,0.1833664775875843,0.0
488,0.1908588977813612,0.0
489,0.1328885698438613,0.0
490,0.03669854116460168,0.0
491,-0.07116324082266123,0.0
492,-0.057560199885937406,0.0
493,0.24680845210707858,0.0
494,0.20345945953437028,0.0
495,0.07041640565532353,0.0
496,0.0951056273354278,0.0
497,0.23387160045821823,0.0
498,0.23684410099875705,0.0
499,0.12806338441254014,0.0
500,0.3895652116273042,0.0
501,0.5920335149046427,0.0
502,1.2754779280576076,0.0
503,1.6556536142125324,0.0
504,2.6541248846111904,0.0
505,3.617149140219851,0.0
506,4.611649593820974,0.0
507,5.749301810744194,0.0
508,6.5787901375894435,0.0
509,7.085615670479145,0.0
510,7.155522910992438,0.0
511,6.644760635702839,0.0
512,5.493364118307529,0.0
513,3.766206780234792,0.0
514,2.1135219454060508,0.0
515,0.24991273653403406,0.0
516,-1.4274894477968414,0.0
517,-2.3841243367776803,0.0
518,-2.7900903172106504,0.0
519,-2.441476325370033,0.0
520,-1.9422681557627992,0.0
521,-0.6220034381093087,0.0
522,0.3564307635546,0.0
523,1.1508979465256188,0.0
524,1.6076051324371592,0.0
525,1.985072983375827,0.0
526,1.5198052404874993,0.0
527,1.112186960642127,0.0
528,0.4889811516271357,0.0
529,-0.06510808614960928,0.0
530,-0.5218370354980114,0.0
531,-0.37165999886465667,0.0
532,-0.2905605407061726,0.0
533,0.023653962381714633,0.0
534,0.10072231896736977,0.0
535,0.3445426602140109,0.0
536,0.6863163912325196,0.0
537,0.6829527063542087,0.0
538,0.5182042830751543,0.0
539,0.5323413500089467,0.0
540,0.41723436887965704,0.0
541,0.5223082074834635,0.0
542,0.2947920667300876,0.0
543,0.2282141062041364,0.0
544,0.2885713394844713,0.0
545,0.2512607037263927,0.0
546,0.22437721492010643,0.0
547,0.3045401829584779,0.0
548,0.5353625574997353,0.0
549,0.2559297125280832,0.0
550,0.4400492820328485,0.0
551,0.40016292812517007,0.0
552,0.4380529325107863,0.0
553,0.5767536646097364,0.0
554,0.24884615074760205,0.0
555,0.17501340887410766,0.0
556,0.38119340939141283,0.0
557,0.3530793015110882,0.0
558,0.4866211616491455,0.0
559,0.39856747387557706,0.0
560,0.6576083012819899,0.0
561,0.42986800044363754,0.0
562,0.47329660092126735,0.0
563,0.4518193711939735,0.0
564,0.4565273826830147,0.0
565,0.5225698889981866,0.0
566,0.4759387172325394,0.0
567,0.4191095320852113,0.0
568,0.5575243263668164,0.0
569,0.3351562569602257,0.0
570,0.5875669356114605,0.0
571,0.4400668356275184,0.0
572,0.41340636711752343,0.0
573,0.5180912031579826,0.0
574,0.32158416469128726,0.0
575,0.4122570881373333,0.0
576,0.44206835514371884,0.0
577,0.4719544427646422,0.0
578,0.4458712238891021,0.0
579,0.6538425408475296,0.0
580,0.5188323760001683,0.0
581,0.5662171029405606,0.0
582,0.6448337402853201,0.0
583,0.5742877412300764,0.0
584,0.3994240351909634,0.0
585,0.4923344416842719,0.0
586,0.577050351800004,0.0
587,0.6479969116623846,0.0
588,0.6616097178753786,0.0
589,0.4673420004895418,0.0
590,0.55429572710929,0.0
591,0.5790295781599164,0.0
592,0.5402883134474634,0.0
593,0.6866918427913862,0.0
594,0.46644014244363885,0.0
595,0.4222442189746603,0.0
596,0.5132431011209961,0.0
597,0.7307759163324603,0.0
598,0.6824756996565504,0.0
599,0.7219081505835568,0.0
600,0.866095687739614,0.0
601,1.0731737473364054,0.0
602,1.516980247648672,0.0
603,1.9275738820750783,0.0
604,2.9761233444211257,0.0
605,4.004602081839878,0.0
606,4.971254742247617,0.0
607,6.127993168469317,0.0
608,7.046781909955735,0.0
609,7.513376755223506,0.0
610,7.5065652543574775,0.0
611,7.002583172937589,0.0
612,5.709566424376837,0.0
613,4.375292981547224,0.0
614,2.495237429411511,0.0
615,0.6701236176986105,0.0
616,-1.1044991735122731,0.0
617,-1.9164255247926638,0.0
618,-2.4900865659606035,0.0
619,-2.0259808122896255,0.0
620,-1.4714961501156516,0.0
621,-0.40193232452470284,0.0
622,0.8499401471777835,0.0
623,1.7694313938333068,0.0
624,2.1837547912603816,0.0
625,2.4113394057611455,0.0
626,1.979076470468113,0.0
627,1.605350571919073,0.0
628,0.8843373882632812,0.0
629,0.3169222825047243,0.0
630,0.08570585475970671,0.0
631,-0.09462209018344159,0.0
632,0.05139323307341426,0.0
633,0.2446508258453634,0.0
634,0.3840200116423166,0.0
635,0.6858407343716706,0.0
636,0.8209175323055972,0.0
637,1.0346004229726142,0.0
638,0.9377692303280648,0.0
639,1.0592082104266172,0.0
640,0.8780126367091295,0.0
641,0.974510446494516,0.0
642,0.6017301780425278,0.0
643,0.720002681767002,0.0
644,0.4602707954365818,0.0
645,0.5734258166208566,0.0
646,0.8226077614787668,0.0
647,0.7928417550764919,0.0
648,0.6349157165850919,0.0
649,0.6325337446331127,0.0
650,0.8686495369097122,0.0
651,0.6985009842494196,0.0
652,0.6397289320738444,0.0
653,0.8826595528902547,0.0
654,0.8005323097100752,0.0
655,0.8427572221124123,0.0
656,0.7381065095587143,0.0
657,0.6132415478914915,0.0
658,0.7735268987017692,0.0
659,0.6660347501154888,0.0
660,0.8039853261737344,0.0
661,0.8404494890067292,0.0
662,0.7537956419973784,0.0
663,0.6500771936274907,0.0
664,0.890052781061388,0.0
665,0.8120204777794549,0.0
666,0.6576393116556755,0.0
667,0.8076093018437757,0.0
668,0.8525119504439901,0.0
669,0.8160771627015037,0.0
670,0.9767501523809972,0.0
671,0.938513859744245,0.0
672,0.9998216185223152,0.0
673,0.7700496885763626,0.0
674,0.8854677873648951,0.0
675,0.9762215043404973,0.0
676,0.8305555626330624,0.0
677,0.7849376774135537,0.0
678,0.8353882051077441,0.0
679,0.7766240802752142,0.0
680,1.065099659748249,0.0
681,0.7275482735304469,0.0
682,0.7911953174369278,0.0
683,0.9906750079738512,0.0
684,0.9796424646036069,0.0
685,0.9877255665446525,0.0
686,0.8375829227968362,0.0
687,0.9067728122492672,0.0
688,0.8687021115835982,0.0
689,0.9812505745040007,0.0
690,0.9535540089120653,0.0
691,0.8969607877234397,0.0
692,1.0235837394023195,0.0
693,1.010193511769596,0.0
694,0.9618672477754637,0.0
695,0.7970487944170451,0.0
696,0.85866840870309,0.0
697,1.1015335144748117,0.0
698,0.9206908508361328,0.0
699,0.9597981393644325,0.0
700,1.155987220785005,0.0
701,1.4041254558925464,0.0
702,1.784726932285368,0.0
703,2.4201307401551313,0.0
704,3.2266668947514607,0.0
705,4.360819591524267,0.0
706,5.333943630359992,0.0
707,6.373375001767876,0.0
708,7.195013061238597,0.0
709,7.844753929028757,0.0
710,8.148907486271437,0.0
711,7.21945290331667,0.0
712,6.421322131488642,0.0
713,4.696810274972262,0.0
714,2.894329973558647,0.0
715,1.0235120590831583,0.0
716,-0.5832535820872269,0.0
717,-1.5162158973743358,0.0
718,-1.892523356336174,0.0
719,-1.5582458570126747,0.0
720,-0.9028855177906625,0.0
721,0.025145325195041313,0.0
722,0.9981003468592461,0.0
723,2.058841820226272,0.0
724,2.480931448285534,0.0
725,2.735917207105845,0.0
726,2.4849740500823634,0.0
727,1.6933624760818502,0.0
728,1.4251425793002124,0.0
729,0.8807990222485778,0.0
730,0.574680704492196,0.0
731,0.27140483708462515,0.0
732,0.4943217007352192,0.0
733,0.7416195121990895,0.0
734,0.9326611309021317,0.0
735,1.2892354832135418,0.0
736,1.3734477699454752,0.0
737,1.4711396732012827,0.0
738,1.1833381455219425,0.0
739,1.5208857786013614,0.0
740,1.2231862259563435,0.0
741,1.1789489362154297,0.0
742,1.130015914033017,0.0
743,0.972665513729543,0.0
744,1.0999522984309318,0.0
745,1.050158908180934,0.0
746,1.0719807266833288,0.0
747,1.143898334826762,0.0
748,1.126105735279277,0.0
749,1.2061879579784835,0.0
750,1.2376894858134144,0.0
751,1.0908805769989545,0.0
752,1.156925023047243,0.0
753,1.0398167395598905,0.0
754,1.2343282962307607,0.0
755,1.091536343071464,0.0
756,1.1415280963539312,0.0
757,1.2365997008820604,0.0
758,1.0313362605935983,0.0
759,1.207554014681961,0.0
760,1.0875179167646831,0.0
761,1.415104221814777,0.0
762,1.1468158478577126,0.0
763,1.192411069422296,0.0
764,1.0666422263881323,0.0
765,1.1270414309482784,0.0
766,1.3764289821122209,0.0
767,1.2452092314021423,0.0
768,1.3406440490750267,0.0
769,1.2772576989165552,0.0
770,1.4861123621961716,0.0
771,1.4122070277206458,0.0
772,1.4184282063763818,0.0
773,1.2769565650601826,0.0
774,1.2849895711640436,0.0
775,1.1786677479555405,0.0
776,1.1177930420819315,0.0
777,1.1432113112219255,0.0
778,1.1718790169296784,0.0
779,1.1596512173516336,0.0
780,1.3576129080973967,0.0
781,1.4093459983254948,0.0
782,1.2082202802302011,0.0
783,1.4079794299591284,0.0
784,1.231272367297229,0.0
785,1.3449883067955775,0.0
786,1.1167578557497535,0.0
787,1.2587184867002006,0.0
788,1.2602639170778909,0.0
789,1.2854945713798513,0.0
790,1.2166389988909223,0.0
791,1.1959635516819078,0.0
792,1.3319694716414598,0.0
793,1.2892406893975297,0.0
794,1.3470227043404481,0.0
795,1.33129076825105,0.0
796,1.3205719235796907,0.0
797,1.5633640574663452,0.0
798,1.5458780118785584,0.0
799,1.3864789590255961,0.0
800,1.6490265128629602,0.0
801,1.933912389341509,0.0
802,2.549363159487675,0.0
803,2.909226898797584,0.0
804,3.727218268235148,0.0
805,4.804461731976205,0.0
806,5.561288699734735,0.0
807,6.810107289307789,0.0
808,7.556252946169615,0.0
809,8.066757964216048,0.0
810,8.322731733016992,0.0
811,7.6828495672217025,0.0
812,6.4844660641022145,0.0
813,5.046907855603363,0.0
814,3.417584867433332,0.0
815,1.3770036417954845,0.0
816,-0.003187576167431816,0.0
817,-1.048384429350223,0.0
818,-1.5145205892833926,0.0
819,-1.1901240285448234,0.0
820,-0.6380862003317174,0.0
821,0.3914142476451823,0.0
822,1.5278286649715547,0.0
823,2.278247988914404,0.0
824,2.904708316993002,0.0
825,3.118323339507482,0.0
826,2.6278544808802096,0.0
827,2.0888160695728457,0.0
828,1.853450033573492,0.0
829,1.1676448200249698,0.0
830,0.6661095760785398,0.0
831,0.7041104045304291,0.0
832,0.5877623209479376,0.0
833,1.019559277873804,0.0
834,1.3384624757145154,0.0
835,1.5428245727213037,0.0
836,1.7724028188520202,0.0
837,1.8911921928310442,0.0
838,1.7064269112690145,0.0
839,1.4493811902947087,0.0
840,1.3922537560262265,0.0
841,1.5144959184882318,0.0
842,1.4860470987993728,0.0
843,1.269108749894157,0.0
844,1.3228191780696472,0.0
845,1.3263807157118708,0.0
846,1.383560713080463,0.0
847,1.2408572578220787,0.0
848,1.646655123917128,0.0
849,1.4770977556418887,0.0
850,1.3037736684980301,0.0
851,1.6092066905245417,0.0
852,1.6157028555745558,0.0
853,1.4670304295836945,0.0
854,1.432371006331554,0.0
855,1.609938456069458,0.0
856,1.4061281297226695,0.0
857,1.4817823315619896,0.0
858,1.4820633921273885,0.0
859,1.4358707244821558,0.0
860,1.5148552155657948,0.0
861,1.4783548386974137,0.0
862,1.5301746374803387,0.0
863,1.5375997981993719,0.0
864,1.4577028838939907,0.0
865,1.6236583391893116,0.0
866,1.6460567310185414,0.0
867,1.4111819246103359,0.0
868,1.4268829110351968,0.0
869,1.5606816751114732,0.0
870,1.4036083920914753,0.0
871,1.4691370432401538,0.0
872,1.5925509732417962,0.0
873,1.5012330686648427,0.0
874,1.6056833875645586,0.0
875,1.5039198390723028,0.0
876,1.4626727540572144,0.0
877,1.3761309904089818,0.0
878,1.5380638070272956,0.0
879,1.621111694526454,0.0
880,1.5946438570078585,0.0
881,1.6938780804418796,0.0
882,1.5354346041259745,0.0
883,1.4700145158833375,0.0
884,1.8546939915794205,0.0
885,1.6897125879866493,0.0
886,1.571952213481272,0.0
887,1.5763602622520991,0.0
888,1.6562254324562447,0.0
889,1.6295237372848057,0.0
890,1.6461004480549215,0.0
891,1.6407566353513117,0.0
892,1.497396874215629,0.0
893,1.604575923049903,0.0
894,1.5427483087270506,0.0
895,1.5688887619807512,0.0
896,1.6304563779147425,0.0
897,1.709964888261715,0.0
898,1.5934099935367976,0.0
899,1.8059333331886345,0.0
900,1.8788765965998264,0.0
901,2.325924941025357,0.0
902,2.542236403370426,0.0
903,3.38988734754326,0.0
904,3.8170963207751027,0.0
905,4.932812727675701,0.0
906,6.1683698505405715,0.0
907,7.0985598026882135,0.0
908,8.028438045663329,0.0
909,8.565317083595623,0.0
910,8.629668369997267,0.0
911,7.98951834127941,0.0
912,6.850677649643506,0.0
913,5.321276541461524,0.0
914,3.8210051135834595,0.0
915,1.7299548712750488,0.0
916,0.15997398175752475,0.0
917,-0.9204775582592173,0.0
918,-1.34647204203243,0.0
919,-1.186772895691324,0.0
920,-0.661930144336957,0.0
921,0.3934703485382838,0.0
922,1.6441677151910947,0.0
923,2.531548675657009,0.0
924,3.320777044805106,0.0
925,3.246808181030522,0.0
926,2.931007732488064,0.0
927,2.691881016303294,0.0
928,2.064227673984429,0.0
929,1.5945055459296922,0.0
930,1.1154635990309312,0.0
931,1.0739353423255493,0.0
932,0.9414638286320027,0.0
933,1.2704574499169903,0.0
934,1.431763341627723,0.0
935,1.9223217546441027,0.0
936,2.1415376145876466,0.0
937,2.061663876410058,0.0
938,2.1106215802755726,0.0
939,1.981743169012886,0.0
940,1.9045876485803452,0.0
941,1.874865618603515,0.0
942,1.5377170085870402,0.0
943,1.600258236135823,0.0
944,1.5743898726227834,0.0
945,1.6563762302792568,0.0
946,1.8498594061124412,0.0
947,1.8397037367700477,0.0
948,1.8116508779987262,0.0
949,1.79047959317549,0.0
950,1.8672332612780467,0.0
951,1.6901631874026477,0.0
952,1.6798579520031658,0.0
953,1.7576751313581862,0.0
954,1.8156019033822683,0.0
955,1.8990653704247087,0.0
956,1.7101005658896833,0.0
957,2.076377514190261,0.0
958,1.75380621729519,0.0
959,1.7161334751139754,0.0
960,1.8790884518146547,0.0
961,1.7331727038964388,0.0
962,1.7732988590478567,0.0
963,1.794706581185828,0.0
964,1.8043363737301197,0.0
965,1.749937898707931,0.0
966,1.703411678669452,0.0
967,1.7788615959046512,0.0
968,1.9912010988690263,0.0
969,1.9878490537156048,0.0
970,1.840997101618207,0.0
971,1.8186070723465961,0.0
972,1.697487123365022,0.0
973,1.887127978141514,0.0
974,1.7821583519215238,0.0
975,1.9454278250065447,0.0
976,1.9942716798532945,0.0
977,2.0284645167389406,0.0
978,2.1092827794965117,0.0
979,1.869944302107149,0.0
980,1.9392910760921573,0.0
981,1.892245882647022,0.0
982,1.8235822747141186,0.0
983,1.996056086633404,0.0
984,1.9001030610582095,0.0
985,2.0329189935013003,0.0
986,1.9572124724730526,0.0
987,2.0724793006882494,0.0
988,2.00274655489105,0.0
989,1.8068172134723834,0.0
990,1.842969246543874,0.0
991,1.9595511167625492,0.0
992,1.9571164519922746,0.0
993,2.058736952572979,0.0
994,1.9925632737738035,0.0
995,2.1361576247276566,0.0
996,2.095819603980319,0.0
997,1.9602668427924526,0.0
998,2.065932456961942,0.0
999,1.9767855036122497,0.0
1000,2.086325439345653,0.0
1001,2.5319658514749985,0.0
1002,2.8165208886196753,0.0
1003,3.431087154397262,0.0
1004,4.186423667034348,0.0
1005,4.965603945694319,0.0
1006,6.276068541630742,0.0
1007,7.535785132336043,0.0
1008,8.3180770733971,0.0
1009,8.752124163977415,0.0
1010,9.168403106958964,0.0
1011,8.518988455697867,0.0
1012,7.491051930317386,0.0
1013,5.904228096563852,0.0
1014,4.239480294228837,0.0
1015,2.265837676660679,0.0
1016,0.5743347716229463,0.0
1017,-0.5206821170028304,0.0
1018,-0.9165615071516262,0.0
1019,-0.7680895752585211,0.0
1020,-0.006789559163226322,0.0
1021,0.9477143651115463,0.0
1022,2.063089956958934,0.0
1023,2.9975872514757156,0.0
1024,3.4728111004031885,0.0
1025,3.635052187441963,0.0
1026,3.3389236955853514,0.0
1027,2.860244814489386,0.0
1028,2.3589122856132327,0.0
1029,1.6957518758830652,0.0
1030,1.524772255997139,0.0
1031,1.1710537312011935,0.0
1032,1.4052023805577099,0.0
1033,1.6027924304778671,0.0
1034,1.840346303407961,0.0
1035,2.0505816404914254,0.0
1036,2.5193142733005147,0.0
1037,2.468371959960254,0.0
1038,2.459839450605064,0.0
1039,2.3076755941279465,0.0
1040,2.229385912330595,0.0
1041,1.983709255071869,0.0
1042,2.0370624291522916,0.0
1043,1.9763832962713677,0.0
1044,2.0530572272158665,0.0
1045,2.0603266652201913,0.0
1046,2.319817772853368,0.0
1047,2.159274110197525,0.0
1048,2.355126826432852,0.0
1049,2.07953026807251,0.0
1050,2.1692710827493698,0.0
1051,1.9758485208548604,0.0
1052,2.1389970676759846,0.0
1053,2.2445984095302602,0.0
1054,2.236159235492967,0.0
1055,2.1754833554101807,0.0
1056,2.017937458787607,0.0
1057,2.0947429818384666,0.0
1058,2.3628428382170976,0.0
1059,2.2752943108128854,0.0
1060,2.282490480960444,0.0
1061,2.3211145760349163,0.0
1062,2.1684290555755927,0.0
1063,2.055800102698174,0.0
1064,2.103646313259511,0.0
1065,2.1533238641062957,0.0
1066,2.1404331960646115,0.0
1067,2.3376750705422706,0.0
1068,2.3368610848530897,0.0
1069,2.1935147362467924,0.0
1070,1.9383440380159132,0.0
1071,2.249843675043377,0.0
1072,2.3402522227670604,0.0
1073,2.3390844159609876,0.0
1074,2.4924910962124853,0.0
1075,2.132865775239439,0.0
1076,2.213998027907988,0.0
1077,2.239691582116949,0.0
1078,2.3116856835743484,0.0
1079,2.315476202746142,0.0
1080,2.0722441416655992,0.0
1081,2.398826449867309,0.0
1082,2.310916990404087,0.0
1083,2.456821554901038,0.0
1084,2.2890095109205784,0.0
1085,2.022842499485287,0.0
1086,2.3425875815626314,0.0
1087,2.319669374306977,0.0
1088,2.3483084286071856,0.0
1089,2.2568266386441023,0.0
1090,2.3508924266848172,0.0
1091,2.410021247838852,0.0
1092,2.1270297061077836,0.0
1093,2.3617079758241206,0.0
1094,2.463482753791691,0.0
1095,2.310839040437276,0.0
1096,2.2338596173053933,0.0
1097,2.266991380551678,0.0
1098,2.397318882059287,0.0
1099,2.2731130691015613,0.0
1100,2.393873618238266,0.0
1101,2.80423058811932,0.0
1102,3.1505745932212523,0.0
1103,3.831033362741799,0.0
1104,4.502646343665676,0.0
1105,5.658281043944067,0.0
1106,6.654745740974258,0.0
1107,7.668344525815514,0.0
1108,8.772130352403405,0.0
1109,9.42748886510048,0.0
1110,9.196374762287537,0.0
1111,8.941385201269402,0.0
1112,7.833026594208194,0.0
1113,6.167336904980775,0.0
1114,4.470267817171417,0.0
1115,2.727927927898593,0.0
1116,0.8107703063158787,0.0
1117,-0.1700721596157,0.0
1118,-0.5116015895812311,0.0
1119,-0.36188412303471873,0.0
1120,0.1555265067268512,0.0
1121,1.2099073389594064,0.0
1122,2.2386479452294794,0.0
1123,3.1951583730015347,0.0
1124,3.7484969744078525,0.0
1125,4.056307112663493,0.0
1126,3.709368864032941,0.0
1127,3.1416142316222118,0.0
1128,2.7043495549760124,0.0
1129,1.9033414913748161,0.0
1130,1.6677505595399573,0.0
1131,1.5847551669513087,0.0
1132,1.5789396546131647,0.0
1133,2.018131544073794,0.0
1134,2.449744017158014,0.0
1135,2.602417434083043,0.0
1136,2.820809311562095,0.0
1137,2.870448828612877,0.0
1138,3.0188250278644526,0.0
1139,2.522274776522631,0.0
1140,2.5472065453297845,0.0
1141,2.517115927619832,0.0
1142,2.357971870972123,0.0
1143,2.397968455378366,0.0
1144,2.350285258862422,0.0
1145,2.3681158101671302,0.0
1146,2.5203322288050987,0.0
1147,2.3285791123755852,0.0
1148,2.403433282011038,0.0
1149,2.5031166468053434,0.0
1150,2.4761987599811466,0.0
1151,2.5261423926711624,0.0
1152,2.618114762035463,0.0
1153,2.433116069935262,0.0
1154,2.618532902084524,0.0
1155,2.4123800675591194,0.0
1156,2.6116029352625145,0.0
1157,2.5419867167468944,0.0
1158,2.4450493174447647,0.0
1159,2.5541296002552674,0.0
1160,2.4131909613430635,0.0
1161,2.555759241519688,0.0
1162,2.464949583830446,0.0
1163,2.4879658470027124,0.0
1164,2.4998196391823573,0.0
1165,2.6755865342565843,0.0
1166,2.529612768266502,0.0
1167,2.5273243830223993,0.0
1168,2.572175804713266,0.0
1169,2.428415843052866,0.0
1170,2.6238764243840538,0.0
1171,2.529951430373632,0.0
1172,2.569452822636108,0.0
1173,2.4256838388692556,0.0
1174,2.5881167232634166,0.0
1175,2.5031492047660326,0.0
1176,2.663156344132857,0.0
1177,2.4355675370337337,0.0
1178,2.4275875027517837,0.0
1179,2.616659747147271,0.0
1180,2.4451799639884633,0.0
1181,2.385392143587717,0.0
1182,2.5590242314150706,0.0
1183,2.5180032117762767,0.0
1184,2.538634264010128,0.0
1185,2.481911481516835,0.0
1186,2.7850673640198735,0.0
1187,2.8415167066992097,0.0
1188,2.6403103629632483,0.0
1189,2.5736373587716996,0.0
1190,2.465469260624358,0.0
1191,2.641128395558607,0.0
1192,2.657250979193289,0.0
1193,2.5672050980972245,0.0
1194,2.632894795086045,0.0
1195,2.5840168470985443,0.0
1196,2.4768677388767366,0.0
1197,2.597920388317094,0.0
1198,2.8400896463854464,0.0
1199,2.7925452983694594,0.0
1200,2.8095167244033274,0.0
1201,3.153646474917399,0.0
1202,3.426400844713495,0.0
1203,4.1995533587759795,0.0
1204,5.021266560761552,0.0
1205,5.870848322321118,0.0
1206,6.992375622760397,0.0
1207,7.953256057064731,0.0
1208,8.83475154208811,0.0
1209,9.545760107163623,0.0
1210,9.7123605768641,0.0
1211,9.012900005664855,0.0
1212,7.8536298242179505,0.0
1213,6.442746608113664,0.0
1214,4.740081661509402,0.0
1215,3.0114983558240396,0.0
1216,1.319102622393446,0.0
1217,0.10704656296715731,0.0
1218,-0.44808879717410033,0.0
1219,0.0782889741723456,0.0
1220,0.4053654735853005,0.0
1221,1.2256698664019257,0.0
1222,2.4166147842629817,0.0
1223,3.4310964978365215,0.0
1224,4.229338599496973,0.0
1225,4.280446039312107,0.0
1226,4.082797822956873,0.0
1227,3.721539516850298,0.0
1228,3.02176236786169,0.0
1229,2.6087206171094683,0.0
1230,2.1559776606544214,0.0
1231,1.9781714371171026,0.0
1232,1.9939299309844696,0.0
1233,2.1897054093810016,0.0
1234,2.4955146440191838,0.0
1235,2.8082405953598224,0.0
1236,2.966698599954057,0.0
1237,3.0866262941333353,0.0
1238,2.9381336153181095,0.0
1239,2.8958448639059258,0.0
1240,2.78629735406743,0.0
1241,2.6453359105046066,0.0
1242,2.7340064324308346,0.0
1243,2.6507129092775656,0.0
1244,2.642643381433364,0.0
1245,2.8588401171279165,0.0
1246,2.735532079412681,0.0
1247,2.8542456766957343,0.0
1248,2.6975960769099716,0.0
1249,2.844073833863908,0.0
1250,2.811258773185076,0.0
1251,2.7428267965747173,0.0
1252,2.5597940509538226,0.0
1253,2.6420035717344392,0.0
1254,2.689357871115485,0.0
1255,2.6333022798923307,0.0
1256,2.7372659524155383,0.0
1257,2.6829256072846417,0.0
1258,2.601761022131709,0.0
1259,2.6668474387001093,0.0
1260,2.641430393604776,0.0
1261,2.8489933385818156,0.0
1262,2.75938067014882,0.0
1263,2.82136676083313,0.0
1264,2.7139455047665733,0.0
1265,2.8366980367506596,0.0
1266,2.9143427291211164,0.0
1267,2.9069634509069466,0.0
1268,2.6800397869583574,0.0
1269,2.9900755762892697,0.0
1270,2.918423522307075,0.0
1271,2.90519407445486,0.0
1272,2.9376671599443243,0.0
1273,2.835889243448279,0.0
1274,2.9309400602420452,0.0
1275,2.902489443660529,0.0
1276,2.8208419593862444,0.0
1277,2.9269618521106526,0.0
1278,2.830925854898737,0.0
1279,2.930014017474297,0.0
1280,3.019761271648265,0.0
1281,2.8797159006988733,0.0
1282,2.990856060079211,0.0
1283,2.934461270036402,0.0
1284,2.855899722815652,0.0
1285,2.7586219145817013,0.0
1286,2.922534200234303,0.0
1287,3.058452216585307,0.0
1288,2.7448380813036164,0.0
1289,2.845917654997627,0.0
1290,2.772289582346179,0.0
1291,2.6974919445201335,0.0
1292,2.9174239124398356,0.0
1293,2.886468566814337,0.0
1294,3.062077769106538,0.0
1295,3.020703706950667,0.0
1296,2.5991493525904343,0.0
1297,2.859481314077651,0.0
1298,2.799429134396875,0.0
1299,3.035788598066426,0.0
1300,3.2394581693153603,0.0
1301,3.3514990858578355,0.0
1302,3.78791629806655,0.0
1303,4.504528869352032,0.0
1304,5.1365277180846345,0.0
1305,6.103433400646313,0.0
1306,7.09729521752029,0.0
1307,8.161238443248868,0.0
1308,9.244298893741002,0.0
1309,9.749608573894072,0.0
1310,9.852246118714586,0.0
1311,9.317812992090248,0.0
1312,8.314446845225907,0.0
1313,6.831286901101917,0.0
1314,5.315711965235742,0.0
1315,3.368535593265277,0.0
1316,1.5233367545403755,0.0
1317,0.47905681549302415,0.0
1318,-0.09153755264502239,0.0
1319,0.12950992482435764,0.0
1320,0.8086591912334073,0.0
1321,1.665602312225864,0.0
1322,2.7412731581090486,0.0
1323,3.7597399766409456,0.0
1324,4.399505382077471,0.0
1325,4.452547092017036,0.0
1326,4.45909332938167,0.0
1327,3.851081971455766,0.0
1328,3.4235092610164397,0.0
1329,2.8045982704483614,0.0
1330,2.4008860425377745,0.0
1331,2.211883360455535,0.0
1332,2.303559182683324,0.0
1333,2.4664231199091198,0.0
1334,2.8948336985319814,0.0
1335,2.9248422418714095,0.0
1336,3.229768532168074,0.0
1337,3.379285397977881,0.0
1338,3.4246811338604077,0.0
1339,3.346238870239627,0.0
1340,3.0801768127060014,0.0
1341,3.188016689971825,0.0
1342,2.8991524164327336,0.0
1343,2.939437067856012,0.0
1344,2.74423280719766,0.0
1345,2.953325136628666,0.0
1346,2.9535475112646754,0.0
1347,2.9537832408254876,0.0
1348,2.7934355203219976,0.0
1349,3.0413056466779573,0.0
1350,2.9511318265388975,0.0
1351,2.7881450483809487,0.0
1352,2.847686382055818,0.0
1353,3.165255132989295,0.0
1354,2.99151834832325,0.0
1355,2.9459348780869696,0.0
1356,3.0534514348640256,0.0
1357,3.0939810090332838,0.0
1358,3.003194820648167,0.0
1359,3.185891822596965,0.0
1360,3.0678485855432123,0.0
1361,3.131655149728033,0.0
1362,3.0597604281708333,0.0
1363,3.075097993979846,0.0
1364,3.10878526726794,0.0
1365,3.0714560513260256,0.0
1366,3.1003329014986902,0.0
1367,3.0310222377523792,0.0
1368,3.163915669821168,0.0
1369,3.140467648433896,0.0
1370,3.0191436305673265,0.0
1371,3.0867900145680576,0.0
1372,3.068627214610628,0.0
1373,2.929109880818021,0.0
1374,2.9559235537529047,0.0
1375,3.105403971256728,0.0
1376,3.0053216744165914,0.0
1377,3.199033271176451,0.0
1378,3.1888431634210876,0.0
1379,3.171173431825616,0.0
1380,3.1045031311508504,0.0
1381,3.217607616708817,0.0
1382,2.97705202826115,0.0
1383,3.3177968809062537,0.0
1384,3.127710830844599,0.0
1385,2.882559241028507,0.0
1386,3.213589065914039,0.0
1387,3.1707473112566915,0.0
1388,3.1114918534556644,0.0
1389,3.1396465246518965,0.0
1390,3.198139495042364,0.0
1391,3.0894470395978177,0.0
1392,3.081042787270253,0.0
1393,3.12957637457805,0.0
1394,3.4307561895341117,0.0
1395,2.987268396620054,0.0
1396,3.1390425625474414,0.0
1397,3.168198594087197,0.0
1398,3.0930536698552884,0.0
1399,3.346933488546063,0.0
1400,3.462779309608592,0.0
1401,3.6222194538744685,0.0
1402,4.003629592443778,0.0
1403,4.477520757291671,0.0
1404,5.459867072239652,0.0
1405,6.416041573719943,0.0
1406,7.427997628884097,0.0
1407,8.394048812292427,0.0
1408,9.344793727701564,0.0
1409,9.998516639315797,0.0
1410,10.12365427777377,0.0
1411,9.703350257481777,0.0
1412,8.713090402141631,0.0
1413,7.201851303584673,0.0
1414,5.328103274871259,0.0
1415,3.37024730534011,0.0
1416,2.0191498433027917,0.0
1417,0.6373628181110695,0.0
1418,0.2183207567795522,0.0
1419,0.21919701201313302,0.0
1420,1.0101151589121575,0.0
1421,1.8062646210593396,0.0
1422,3.0288866562801835,0.0
1423,4.080211590943574,0.0
1424,4.594456614257049,0.0
1425,4.829038628341301,0.0
1426,4.68406924997422,0.0
1427,4.068780954701786,0.0
1428,3.73212917223008,0.0
1429,2.857905504589406,0.0
1430,2.5430831728886596,0.0
1431,2.2973589303871114,0.0
1432,2.656049935817826,0.0
1433,2.8242775225411143,0.0
1434,3.1631087754026184,0.0
1435,3.245185333948789,0.0
1436,3.635692476694936,0.0
1437,3.620445564246926,0.0
1438,3.513576886857452,0.0
1439,3.5304525791337666,0.0
1440,3.337757269117407,0.0
1441,3.331797076755796,0.0
1442,3.129019693346581,0.0
1443,3.1925359676427547,0.0
1444,3.293630019567971,0.0
1445,3.233777239453523,0.0
1446,3.206494510940278,0.0
1447,3.4334324288235902,0.0
1448,3.2939243374402145,0.0
1449,3.257640984139244,0.0
1450,3.2890003153893814,0.0
1451,3.161551507209709,0.0
1452,3.5525733528651617,0.0
1453,3.468705626762497,0.0
1454,3.382932546872454,0.0
1455,3.2849343276031533,0.0
1456,3.2781172620904444,0.0
1457,3.424281796133974,0.0
1458,3.329171226653472,0.0
1459,3.2242903058543235,0.0
1460,3.4553626381051394,0.0
1461,3.296190174978822,0.0
1462,3.2801307348617734,0.0
1463,3.2620434228095725,0.0
1464,3.2240284624039126,0.0
1465,3.238296368959337,0.0
1466,3.5128269642219667,0.0
1467,3.3208232395561126,0.0
1468,3.3096538946275396,0.0
1469,3.4133647762840797,0.0
1470,3.407919364533047,0.0
1471,3.3267887119261115,0.0
1472,3.3039536867136263,0.0
1473,3.358312328124388,0.0
1474,3.23027702588927,0.0
1475,3.3985037782827288,0.0
1476,3.401183962467827,0.0
1477,3.473704050051254,0.0
1478,3.395997760608392,0.0
1479,3.387511382831194,0.0
1480,3.3891538713321867,0.0
1481,3.357314716025697,0.0
1482,3.389404397283467,0.0
1483,3.3561478384905583,0.0
1484,3.451668573162858,0.0
1485,3.3440231317367735,0.0
1486,3.376982429016877,0.0
1487,3.4869979146858827,0.0
1488,3.4017501593200272,0.0
1489,3.515097369989774,0.0
1490,3.3470522449374878,0.0
1491,3.4382487790158978,0.0
1492,3.4792116182161346,0.0
1493,3.5673711926103824,0.0
1494,3.2588028790997012,0.0
1495,3.526376088087142,0.0
1496,3.481472498727687,0.0
1497,3.397356479892323,0.0
1498,3.4440590103102027,0.0
1499,3.519317002429146,0.0
1500,3.66192951471999,0.0
1501,3.6314992252835223,0.0
1502,4.20441549742332,0.0
1503,4.7573890161281716,0.0
1504,5.446537704733722,0.0
1505,6.549913464125964,0.0
1506,7.59582820116501,0.0
1507,8.49157548513448,0.0
1508,9.588326486069775,0.0
1509,10.244775990535427,0.0
1510,10.30180373195008,0.0
1511,10.0878619766332,0.0
1512,8.97927115248023,0.0
1513,7.495040343059667,0.0
1514,5.569225067307528,0.0
1515,3.9836104889523214,0.0
1516,2.2630737376985577,0.0
1517,0.9975317314744685,0.0
1518,0.69701218775799,0.0
1519,0.5866218188214276,0.0
1520,1.16121136518279,0.0
1521,2.2501002884180443,0.0
1522,3.2700208395057544,0.0
1523,4.421609094077155,0.0
1524,4.826863033408934,0.0
1525,5.010999314388205,0.0
1526,4.668487822610096,0.0
1527,4.475458321121329,0.0
1528,3.9102807455444295,0.0
1529,3.4421084465987817,0.0
1530,3.0352102229074696,0.0
1531,2.6343020109827915,0.0
1532,2.873269244568556,0.0
1533,3.0434268510239733,0.0
1534,3.3891459707538085,0.0
1535,3.64681842912505,0.0
1536,3.6516204655234863,0.0
1537,3.7432206881895658,0.0
1538,3.69325805237476,0.0
1539,3.9689780945885604,0.0
1540,3.4939713652836923,0.0
1541,3.5390879600190623,0.0
1542,3.2802287408620128,0.0
1543,3.526717689553871,0.0
1544,3.4466030056014216,0.0
1545,3.4529908596625547,0.0
1546,3.3239017711209913,0.0
1547,3.5943887683767426,0.0
1548,3.570453944523559,0.0
1549,3.583417051207797,0.0
1550,3.5502791846283026,0.0
1551,3.6666473330741756,0.0
1552,3.7941518455908163,0.0
1553,3.6095719843716045,0.0
1554,3.5956501614708647,0.0
1555,3.56615559468345,0.0
1556,3.4572466988649015,0.0
1557,3.5590895913949687,0.0
1558,3.596832194216588,0.0
1559,3.582672198173021,0.0
1560,3.5857661923721014,0.0
1561,3.526476755785128,0.0
1562,3.6769603169406215,0.0
1563,3.5033735831526793,0.0
1564,3.384352062264159,0.0
1565,3.460861162231957,0.0
1566,3.6739935391937224,0.0
1567,3.4911935934566256,0.0
1568,3.7588245624049277,0.0
1569,3.5804320164687113,0.0
1570,3.5046346333763005,0.0
1571,3.5902383351745573,0.0
1572,3.6234604774327552,0.0
1573,3.7068919363722324,0.0
1574,3.4670968342956043,0.0
1575,3.4619620180452246,0.0
1576,3.508982386026061,0.0
1577,3.553629768536005,0.0
1578,3.400694416044511,0.0
1579,3.6622299848122406,0.0
1580,3.5246052561030323,0.0
1581,3.57586050382062,0.0
1582,3.6999277991269808,0.0
1583,3.5487239435203555,0.0
1584,3.656373471004521,0.0
1585,3.6176836018524487,0.0
1586,3.6745189777238543,0.0
1587,3.7182522863184846,0.0
1588,3.58109828549487,0.0
1589,3.581419085724882,0.0
1590,3.647040366866492,0.0
1591,3.60492648335516,0.0
1592,3.6277569166410726,0.0
1593,3.6071835244057353,0.0
1594,3.711284567186786,0.0
1595,3.729749769353238,0.0
1596,3.6183642280819517,0.0
1597,3.7974900101799713,0.0
1598,3.6701515407467937,0.0
1599,3.7262000446449255,0.0
1600,3.9575452688434236,0.0
1601,4.1301409120693116,0.0
1602,4.424698197771356,0.0
1603,5.006609394700337,0.0
1604,5.7410679659383845,0.0
1605,6.714018073794108,0.0
1606,7.771974130522781,0.0
1607,8.930299108560652,0.0
1608,9.831963705723908,0.0
1609,10.230010412381347,0.0
1610,10.65612469948555,0.0
1611,10.14097623560372,0.0
1612,9.185922756073097,0.0
1613,7.724327701566689,0.0
1614,5.940543512960449,0.0
1615,4.0395058313299215,0.0
1616,2.309290434407534,0.0
1617,1.1869885482264557,0.0
1618,0.7217396473787905,0.0
1619,0.8849245229637788,0.0
1620,1.2992152754858468,0.0
1621,2.3166291917263293,0.0
1622,3.4823859651936218,0.0
1623,4.497168645268654,0.0
1624,5.205438158870451,0.0
1625,5.259111295477142,0.0
1626,5.121885340660023,0.0
1627,4.775258795598055,0.0
1628,4.058542791235026,0.0
1629,3.48653940163386,0.0
1630,3.126823581421557,0.0
1631,2.968782946238113,0.0
1632,2.9244377927274687,0.0
1633,3.232957981502062,0.0
1634,3.5590524611895806,0.0
1635,3.7391609936364607,0.0
1636,4.143446872034527,0.0
1637,4.068673181279302,0.0
1638,3.984898706435486,0.0
1639,3.9901045037775478,0.0
1640,3.7623081724490413,0.0
1641,3.7468194829652743,0.0
1642,3.7417057106959724,0.0
1643,3.717197334141784,0.0
1644,3.6868003208870537,0.0
1645,3.5835534259265236,0.0
1646,3.8677898474777237,0.0
1647,3.8973709523584597,0.0
1648,3.9018345974128565,0.0
1649,3.8548399417095878,0.0
1650,3.728246252144625,0.0
1651,3.827451462532472,0.0
1652,3.736851582662736,0.0
1653,3.741042886667957,0.0
1654,3.812889346226778,0.0
1655,3.6850383029030094,0.0
1656,3.822444557594866,0.0
1657,3.6706130936592523,0.0
1658,3.728976966554065,0.0
1659,3.858067564474488,0.0
1660,3.5784298175106,0.0
1661,3.9209707363445863,0.0
1662,3.859012018458461,0.0
1663,3.941920287551401,0.0
1664,3.9917813856833866,0.0
1665,3.705186362771529,0.0
1666,3.908977399476669,0.0
1667,3.8317210664821713,0.0
1668,3.852169192234741,0.0
1669,3.9006609199342157,0.0
1670,3.702747413633104,0.0
1671,3.8994005086187533,0.0
1672,3.8567908956788353,0.0
1673,3.899385317635605,0.0
1674,3.960836733377335,0.0
1675,3.781659279627249,0.0
1676,3.9232730520047503,0.0
1677,3.8444250615281716,0.0
1678,3.8826160769023264,0.0
1679,3.7774403581729707,0.0
1680,3.8110161789657986,0.0
1681,3.8228513311082217,0.0
1682,3.9520648256145208,0.0
1683,3.799042250206429,0.0
1684,3.8522748443704034,0.0
1685,3.876077973067122,0.0
1686,3.928425329122977,0.0
1687,3.7022267666668762,0.0
1688,3.956013891766392,0.0
1689,3.885936287609693,0.0
1690,4.01488353126072,0.0
1691,3.9277066185125813,0.0
1692,3.853892128957646,0.0
1693,3.855637542693499,0.0
1694,3.937549055550304,0.0
1695,3.7601211260457763,0.0
1696,3.8471258921721474,0.0
1697,4.021207089875053,0.0
1698,3.9428273379218566,0.0
1699,4.047754496760038,0.0
1700,4.181438499592543,0.0
1701,4.411425833915108,0.0
1702,4.774365273785248,0.0
1703,5.374332793417034,0.0
1704,6.124047487863754,0.0
1705,7.051875428499558,0.0
1706,8.286963022202997,0.0
1707,9.135668573542215,0.0
1708,10.03244047387928,0.0
1709,10.790543946872877,0.0
1710,10.86337580841085,0.0
1711,10.51695368160183,0.0
1712,9.479533814780009,0.0
1713,8.110709367892722,0.0
1714,6.204292757920751,0.0
1715,4.492599128123305,0.0
1716,2.7460908385038243,0.0
1717,1.4758659526291766,0.0
1718,1.1150733461925184,0.0
1719,0.9594817902146757,0.0
1720,1.6628727813444422,0.0
1721,2.7119095892644722,0.0
1722,3.598905251082983,0.0
1723,4.731224594509332,0.0
1724,5.44156499515094,0.0
1725,5.732681743762309,0.0
1726,5.516255704301351,0.0
1727,4.774016936261566,0.0
1728,4.407968485889592,0.0
1729,3.7613935403513907,0.0
1730,3.27290168430973,0.0
1731,3.049801815821405,0.0
1732,3.392298211496848,0.0
1733,3.583508540881414,0.0
1734,3.7985041251359424,0.0
1735,4.023237439103815,0.0
1736,4.252003608944604,0.0
1737,4.445404479321744,0.0
1738,4.398799740180159,0.0
1739,4.215747988468113,0.0
1740,3.9556048090502114,0.0
1741,3.9138180646758305,0.0
1742,3.908153381119527,0.0
1743,3.9816416890489137,0.0
1744,3.8793802004497366,0.0
1745,3.8326592550409204,0.0
1746,3.9917661552735377,0.0
1747,4.125329407598222,0.0
1748,4.005289562646795,0.0
1749,3.8301332766933993,0.0
1750,4.142113532667114,0.0
1751,3.7611445922439337,0.0
1752,4.07281702765411,0.0
1753,4.061262458119131,0.0
1754,4.000610181302301,0.0
1755,4.111911925100892,0.0
1756,4.029786027786769,0.0
1757,4.003678153047097,0.0
1758,4.071855866645184,0.0
1759,4.3991873659804765,0.0
1760,4.137675568832433,0.0
1761,3.919947351200186,0.0
1762,4.197826326284009,0.0
1763,3.881399146077401,0.0
1764,4.225209752744814,0.0
1765,4.059202179003963,0.0
1766,3.946988480360727,0.0
1767,4.0184861956101985,0.0
1768,4.18722919387073,0.0
1769,4.196616387835868,0.0
1770,4.033428875304963,0.0
1771,4.223393422702,0.0
1772,4.07366683665235,0.0
1773,4.197170824178845,0.0
1774,4.079096671219675,0.0
1775,4.242964342308073,0.0
1776,4.157304583400788,0.0
1777,4.094706114274591,0.0
1778,4.261953217943703,0.0
1779,4.224162263469217,0.0
1780,4.304706136631127,0.0
1781,4.1497201492724365,0.0
1782,4.16893770632522,0.0
1783,4.241871579737428,0.0
1784,4.0564464286150805,0.0
1785,4.0114881304501555,0.0
1786,4.026637657806349,0.0
1787,4.1791362088803465,0.0
1788,4.192823229214977,0.0
1789,4.1854012150573086,0.0
1790,4.0800115297562085,0.0
1791,4.050350179139887,0.0
1792,4.050572538019021,0.0
1793,4.093846638730054,0.0
1794,4.183779107977252,0.0
1795,4.191471774125915,0.0
1796,4.161405589747176,0.0
1797,4.226520317038129,0.0
1798,4.241921248358003,0.0
1799,4.303670685321001,0.0
1800,4.309758288743218,0.0
1801,4.692292815328242,0.0
1802,5.049358018510367,0.0
1803,5.672556636416642,0.0
1804,5.992786667395431,0.0
1805,7.221977343754833,0.0
1806,8.434076076941396,0.0
1807,9.302018698597164,0.0
1808,10.455985941824956,0.0
1809,10.973768678999914,0.0
1810,11.160477699586444,0.0
1811,10.732540553268517,0.0
1812,9.862537354286278,0.0
1813,8.527988356320762,0.0
1814,6.708777608275483,0.0
1815,4.80740422900693,0.0
1816,3.130479168342669,0.0
1817,1.7464370208716438,0.0
1818,1.1300425610240974,0.0
1819,1.1703948364483279,0.0
1820,1.8675858684546922,0.0
1821,2.852914453769827,0.0
1822,3.8817800547825247,0.0
1823,5.061728237515105,0.0
1824,5.595417289598872,0.0
1825,5.590035913821919,0.0
1826,5.540526985456303,0.0
1827,5.2783397988219685,0.0
1828,4.818941977230792,0.0
1829,4.254877709383741,0.0
1830,3.664315574800984,0.0
1831,3.428198549447374,0.0
1832,3.5963969004164236,0.0
1833,3.6021038932673792,0.0
1834,3.981020520666529,0.0
1835,4.141178729000356,0.0
1836,4.55749075058532,0.0
1837,4.630471270445316,0.0
1838,4.543005924234752,0.0
1839,4.496101708692952,0.0
1840,4.577633091468845,0.0
1841,4.132337181001419,0.0
1842,4.184242760880536,0.0
1843,4.181720414008984,0.0
1844,4.212482905125865,0.0
1845,4.161355798449856,0.0
1846,4.427165090637628,0.0
1847,4.323424729326237,0.0
1848,4.327913659222948,0.0
1849,4.357276468624247,0.0
1850,4.282842929621146,0.0
1851,4.192699608585631,0.0
1852,4.049401135072941,0.0
1853,4.1080321937257365,0.0
1854,4.205782802914348,0.0
1855,4.28266479322937,0.0
1856,4.304464113084704,0.0
1857,4.285581583843546,0.0
1858,4.313942485586236,0.0
1859,4.468026133756987,0.0
1860,4.409411700289076,0.0
1861,4.3001617499924505,0.0
1862,4.30742024139764,0.0
1863,4.063778211052855,0.0
1864,4.397903861607872,0.0
1865,4.3518726033748285,0.0
1866,4.280180375252127,0.0
1867,4.233039384856351,0.0
1868,4.396812494788669,0.0
1869,4.547031010946525,0.0
1870,4.423889928085466,0.0
1871,4.341077951753331,0.0
1872,4.450840690785906,0.0
1873,4.285979653453163,0.0
1874,4.2934825545697874,0.0
1875,4.4268183991457555,0.0
1876,4.1160807850520715,0.0
1877,4.331610286451609,0.0
1878,4.318518555996849,0.0
1879,4.380931581614063,0.0
1880,4.4258887314115745,0.0
1881,4.391317396924336,0.0
1882,4.320334262493623,0.0
1883,4.262107942612864,0.0
1884,4.33032235954577,0.0
1885,4.267872399591257,0.0
1886,4.5361021463660105,0.0
1887,4.300099802613428,0.0
1888,4.357642925101509,0.0
1889,4.30813163178811,0.0
1890,4.401154851680373,0.0
1891,4.318583283526129,0.0
1892,4.2406309087475,0.0
1893,4.261040226293553,0.0
1894,4.433156483227251,0.0
1895,4.400700985931531,0.0
1896,4.479264743405191,0.0
1897,4.322681132297567,0.0
1898,4.456440437399535,0.0
1899,4.545052084630273,0.0
1900,4.568690466702516,0.0
1901,4.731997587624255,0.0
1902,5.346789725716117,0.0
1903,5.92872479168701,0.0
1904,6.404429377375354,0.0
1905,7.466092879135426,0.0
1906,8.551559559070439,0.0
1907,9.497403096073985,0.0
1908,10.493523032657475,0.0
1909,11.109505596147049,0.0
1910,11.550463161395882,0.0
1911,10.922742816584543,0.0
1912,9.938559360563831,0.0
1913,8.56136553402769,0.0
1914,6.812067303851649,0.0
1915,5.186690360439376,0.0
1916,3.2692490691018667,0.0
1917,2.103286973292612,0.0
1918,1.4044042578439573,0.0
1919,1.535042368806355,0.0
1920,2.09637710526187,0.0
1921,3.1233899428791094,0.0
1922,4.168542748868499,0.0
1923,5.139842112415342,0.0
1924,5.7386801068901425,0.0
1925,6.193509321245804,0.0
1926,5.736415913743252,0.0
1927,5.4950082703398895,0.0
1928,4.9297971442931745,0.0
1929,4.361335804206981,0.0
1930,3.8740639784889517,0.0
1931,3.6706586134820145,0.0
1932,3.876845249041351,0.0
1933,4.03037373568859,0.0
1934,4.271208018548561,0.0
1935,4.701089282306688,0.0
1936,4.818549316655709,0.0
1937,4.916782598758017,0.0
1938,4.840457073001369,0.0
1939,4.683042607676501,0.0
1940,4.56808660135787,0.0
1941,4.51315999067991,0.0
1942,4.332944262842326,0.0
1943,4.350761514901883,0.0
1944,4.509440798892963,0.0
1945,4.404466003587514,0.0
1946,4.523647525204134,0.0
1947,4.553347091544425,0.0
1948,4.509692128306706,0.0
1949,4.570274017155963,0.0
1950,4.670044536702482,0.0
1951,4.5410792870593495,0.0
1952,4.651040958935736,0.0
1953,4.566989372356909,0.0
1954,4.705350707919969,0.0
1955,4.539192572373961,0.0
1956,4.537044398604577,0.0
1957,4.591883815021577,0.0
1958,4.518914889772468,0.0
1959,4.507516872019232,0.0
1960,4.442584987634996,0.0
1961,4.406986588331136,0.0
1962,4.4680458908035705,0.0
1963,4.442164790627753,0.0
1964,4.323126672922031,0.0
1965,4.508347410111398,0.0
1966,4.420451239882096,0.0
1967,4.567189115966647,0.0
1968,4.6601230544685155,0.0
1969,4.626537743462793,0.0
1970,4.472908279898291,0.0
1971,4.524030895241356,0.0
1972,4.46343693231548,0.0
1973,4.5328224464927125,0.0
1974,4.411871802593425,0.0
1975,4.670818490416308,0.0
1976,4.385791933651784,0.0
1977,4.54711757144276,0.0
1978,4.424176101851314,0.0
1979,4.485371961653792,0.0
1980,4.672348849683946,0.0
1981,4.5810979565142285,0.0
1982,4.451201667989534,0.0
1983,4.549683290785482,0.0
1984,4.49883901074158,0.0
1985,4.683452672504048,0.0
1986,4.589989067513701,0.0
1987,4.495012027087546,0.0
1988,4.600227865639354,0.0
1989,4.516669198849273,0.0
1990,4.561859597542587,0.0
1991,4.62635952715527,0.0
1992,4.661730018151988,0.0
1993,4.668396096921018,0.0
1994,4.619861225770734,0.0
1995,4.513508326820928,0.0
1996,4.5417032482135475,0.0
1997,4.554069521629285,0.0
1998,4.766769602817439,0.0
1999,4.4946719031441,0.0
2000,4.900761221253607,0.0
2001,4.842237167814022,0.0
2002,5.498688082991543,0.0
2003,5.862402151502287,0.0
2004,6.761629107820397,0.0
2005,7.794326647465508,0.0
2006,8.745471213889509,0.0
2007,9.78745267354276,0.0
2008,10.709112413202723,0.0
2009,11.401725233590106,0.0
2010,11.586493007103007,0.0
2011,11.439760436749838,0.0
2012,10.128827622515225,0.0
2013,8.803387015270937,0.0
2014,7.12597001248767,0.0
2015,5.186534899297419,0.0
2016,3.4050865653158002,0.0
2017,2.1420963519918033,0.0
2018,1.782944679696274,0.0
2019,1.7334121443772523,0.0
2020,2.180446469712815,0.0
2021,3.2116198498037534,0.0
2022,4.440394990300435,0.0
2023,5.214248416131229,0.0
2024,6.080096868298522,0.0
2025,6.30064798737526,0.0
2026,6.115831697422298,0.0
2027,5.815471999457369,0.0
2028,5.040483648060726,0.0
2029,4.622369089353084,0.0
2030,4.244349622476775,0.0
2031,3.7007848705003603,0.0
2032,3.852309204964903,0.0
2033,4.205847708304942,0.0
2034,4.439593744074732,0.0
2035,4.777114971459831,0.0
2036,4.974942742948699,0.0
2037,5.0751179684880885,0.0
2038,4.998342494132529,0.0
2039,4.8914229113369805,0.0
2040,4.661876734618953,0.0
2041,4.647123523610021,0.0
2042,4.666857453834067,0.0
2043,4.680890717606935,0.0
2044,4.6918232894443435,0.0
2045,4.534746392902873,0.0
2046,4.6767467140315295,0.0
2047,4.525244141640598,0.0
2048,4.650658690707765,0.0
2049,4.645119838789538,0.0
2050,4.8387246500318115,0.0
2051,4.903496448914435,0.0
2052,4.770827876099375,0.0
2053,4.714496683353469,0.0
2054,4.781561190381946,0.0
2055,4.728556494530786,0.0
2056,4.680644776889302,0.0
2057,4.679082507489973,0.0
2058,4.620380992229339,0.0
2059,4.754135561378947,0.0
2060,4.783968060434459,0.0
2061,4.725260043408115,0.0
2062,4.866980060091382,0.0
2063,4.916794286716056,0.0
2064,4.680959941511778,0.0
2065,4.892005020771373,0.0
2066,4.7104094905941,0.0
2067,4.77951549557149,0.0
2068,4.7420496044816005,0.0
2069,4.579771735803651,0.0
2070,4.8180827078088475,0.0
2071,4.725521152096662,0.0
2072,4.596564894319417,0.0
2073,4.7734679440873276,0.0
2074,4.583439203392902,0.0
2075,4.888808605092521,0.0
2076,4.787274871893293,0.0
2077,4.7010387694061855,0.0
2078,4.727315605409837,0.0
2079,4.913207667197704,0.0
2080,4.878349879036865,0.0
2081,4.902534603272764,0.0
2082,4.839571516687869,0.0
2083,4.807860069026489,0.0
2084,4.996398486180472,0.0
2085,5.011855265602409,0.0
2086,4.906122225988144,0.0
2087,4.889609914647781,0.0
2088,4.814731577472886,0.0
2089,4.764683254076296,0.0
2090,5.0047871771138865,0.0
2091,4.796182340733052,0.0
2092,4.634224375106152,0.0
2093,4.758996289873295,0.0
2094,4.71559967707608,0.0
2095,4.902255863951207,0.0
2096,4.993697836101324,0.0
2097,4.841697942856493,0.0
2098,5.0252933981549806,0.0
2099,5.046386941132491,0.0
2100,5.040005334646837,0.0
2101,5.281096771543354,0.0
2102,5.608869900704637,0.0
2103,6.195795703097793,0.0
2104,6.725236909264439,0.0
2105,7.890549064355077,0.0
2106,8.973939456404008,0.0
2107,9.998756922028356,0.0
2108,10.919466954850211,0.0
2109,11.798126504058777,0.0
2110,12.051918362541638,0.0
2111,11.515802040411891,0.0
2112,10.372295779540579,0.0
2113,9.231475050774463,0.0
2114,7.516135651542941,0.0
2115,5.401125585592418,0.0
2116,3.894040219176693,0.0
2117,2.7171610849862873,0.0
2118,1.880311180237912,0.0
2119,2.0695667796866473,0.0
2120,2.510790361780534,0.0
2121,3.4904615201605873,0.0
2122,4.361385120668924,0.0
2123,5.461674197440201,0.0
2124,6.30340272077445,0.0
2125,6.511792441369483,0.0
2126,6.294028383372317,0.0
2127,5.843552877593256,0.0
2128,5.364459518009775,0.0
2129,4.8875749505217545,0.0
2130,4.260306267206129,0.0
2131,3.987564701923116,0.0
2132,4.2415319324420535,0.0
2133,4.2446564628771295,0.0
2134,4.904769660379019,0.0
2135,5.184076912398105,0.0
2136,4.984078389209194,0.0
2137,5.35802991844953,0.0
2138,5.050647962807351,0.0
2139,4.932144903767948,0.0
2140,4.88690619354826,0.0
2141,5.123678208982413,0.0
2142,4.861362772348823,0.0
2143,4.954015034185796,0.0
2144,4.588726860940405,0.0
2145,4.813449116583388,0.0
2146,5.0141695857641215,0.0
2147,4.92588253996059,0.0
2148,4.978808336362508,0.0
2149,4.808815644347263,0.0
2150,5.014382574631058,0.0
2151,4.907471936069016,0.0
2152,4.873527215011611,0.0
2153,4.878948070629423,0.0
2154,4.808753396778907,0.0
2155,4.882974494503075,0.0
2156,4.906568625158627,0.0
2157,4.9843648120675095,0.0
2158,5.06137256479731,0.0
2159,5.128039614343208,0.0
2160,5.0969579493259545,0.0
2161,5.058244427307628,0.0
2162,5.107523831155493,0.0
2163,5.058040753126778,0.0
2164,4.758637412806039,0.0
2165,4.8208902528158335,0.0
2166,4.9627478301041394,0.0
2167,5.116437203176351,0.0
2168,5.012425028777489,0.0
2169,4.933716389751309,0.0
2170,5.0405605119948635,0.0
2171,4.9386441445369265,0.0
2172,5.097213438766872,0.0
2173,4.93572140381064,0.0
2174,4.895378947008407,0.0
2175,4.924201018423611,0.0
2176,4.9524017324158365,0.0
2177,4.947059745175548,0.0
2178,4.967375818507749,0.0
2179,5.080673675268173,0.0
2180,5.119445182085406,0.0
2181,4.905210718417262,0.0
2182,4.946903843361444,0.0
2183,4.875112705444278,0.0
2184,4.9410198117225494,0.0
2185,4.976946630549996,0.0
2186,5.097108153338495,0.0
2187,5.112192449746939,0.0
2188,5.20251785528792,0.0
2189,4.938745006635186,0.0
2190,5.064211676272561,0.0
2191,5.066261781940761,0.0
2192,5.07717284012515,0.0
2193,5.091051425004601,0.0
2194,4.973268727310739,0.0
2195,5.291721596829743,0.0
2196,5.191325797071198,0.0
2197,4.998062001170019,0.0
2198,5.156784069842964,0.0
2199,5.08024399066429,0.0
2200,5.190499110726757,0.0
2201,5.337044915196094,0.0
2202,5.691992334972774,0.0
2203,6.351248866150624,0.0
2204,7.07528526748939,0.0
2205,7.9030235517865535,0.0
2206,9.111123194356857,0.0
2207,10.203971128174196,0.0
2208,11.02039008985681,0.0
2209,12.00183146509559,0.0
2210,12.02760066852704,0.0
2211,11.695189858164657,0.0
2212,10.660374315777517,0.0
2213,9.18628309276994,0.0
2214,7.713958716778189,0.0
2215,5.686993514975798,0.0
2216,3.9849445919942803,0.0
2217,2.636507455069827,0.0
2218,2.044151239918753,0.0
2219,2.32424758942985,0.0
2220,2.5472832736888535,0.0
2221,3.7592867477781358,0.0
2222,4.457768538327717,0.0
2223,5.50562793103385,0.0
2224,6.334106169286587,0.0
2225,6.494288095313371,0.0
2226,6.426839553012817,0.0
2227,6.209615515363234,0.0
2228,5.435257843515026,0.0
2229,5.048202315699991,0.0
2230,4.387885536718188,0.0
2231,4.188807471205925,0.0
2232,4.4495008594668795,0.0
2233,4.534414230537501,0.0
2234,4.991277400136955,0.0
2235,4.9641913887063085,0.0
2236,5.299355302373013,0.0
2237,5.537732940001543,0.0
2238,5.327430161678136,0.0
2239,5.321762652961633,0.0
2240,5.213067321073343,0.0
2241,4.974674574332499,0.0
2242,5.116691154383032,0.0
2243,5.05577590257863,0.0
2244,4.930497214701198,0.0
2245,5.097584178744146,0.0
2246,5.0954566871277125,0.0
2247,5.135207254944324,0.0
2248,5.208837147993801,0.0
2249,5.288388389954474,0.0
2250,5.067746492096012,0.0
2251,5.107117936392043,0.0
2252,5.319945454464527,0.0
2253,5.30486915343669,0.0
2254,5.1869313063720055,0.0
2255,5.307350927285449,0.0
2256,5.169522050901258,0.0
2257,5.199847075939254,0.0
2258,5.066713657676804,0.0
2259,5.218768866428809,0.0
2260,5.201703286553328,0.0
2261,5.0303650807344145,0.0
2262,5.1735146733012,0.0
2263,5.278037115309635,0.0
2264,5.14004502813281,0.0
2265,4.91159802436028,0.0
2266,5.0102508006131385,0.0
2267,5.179131574571758,0.0
2268,5.0438988622650855,0.0
2269,5.08741858949176,0.0
2270,5.213248407464628,0.0
2271,5.183473616481012,0.0
2272,5.193181840078475,0.0
2273,5.214589752582952,0.0
2274,5.175570426980436,0.0
2275,5.097514884632226,0.0
2276,5.139303333628863,0.0
2277,5.266597561403387,0.0
2278,5.307514391945089,0.0
2279,5.137250060140401,0.0
2280,5.105511734126001,0.0
2281,5.1744028324535165,0.0
2282,5.402691724179602,0.0
2283,5.099989993618082,0.0
2284,5.184939772938407,0.0
2285,5.1954592614090345,0.0
2286,5.1522000886970405,0.0
2287,5.222869797616451,0.0
2288,5.136368384417528,0.0
2289,5.230855395918567,0.0
2290,5.220219464178557,0.0
2291,5.297238496951201,0.0
2292,5.29750023140436,0.0
2293,5.127369310687176,0.0
2294,5.307155989358006,0.0
2295,5.320054206848981,0.0
2296,5.244161845448629,0.0
2297,5.2007026265274146,0.0
2298,5.328706843753956,0.0
2299,5.227034070702521,0.0
2300,5.4896384963158,0.0
2301,5.683646016185775,0.0
2302,5.940761570635365,0.0
2303,6.567412903259824,0.0
2304,7.233989398159344,0.0
2305,8.013372757065763,0.0
2306,9.107215151327473,0.0
2307,10.307477313554712,0.0
2308,11.349347186316079,0.0
2309,11.970173960646338,0.0
2310,12.058829002957468,0.0
2311,11.933132873487358,0.0
2312,10.98189582257936,0.0
2313,9.656381300661575,0.0
2314,7.959432464460761,0.0
2315,6.190409496589774,0.0
2316,4.2087326469704704,0.0
2317,2.9641175963812776,0.0
2318,2.500871710397981,0.0
2319,2.125004217170779,0.0
2320,2.8913176403687757,0.0
2321,3.7094774615657036,0.0
2322,4.827228038820033,0.0
2323,5.87963476822464,0.0
2324,6.56826428232208,0.0
2325,6.816908785028076,0.0
2326,6.798440268102597,0.0
2327,6.334368300983936,0.0
2328,5.709003547966739,0.0
2329,5.11189332539519,0.0
2330,4.750187112834068,0.0
2331,4.56923254979011,0.0
2332,4.599616087497402,0.0
2333,4.919727412697664,0.0
2334,4.838260201568395,0.0
2335,5.333685794763092,0.0
2336,5.470839214288461,0.0
2337,5.498784808419702,0.0
2338,5.555393183768123,0.0
2339,5.4463934440606,0.0
2340,5.382684699546729,0.0
2341,5.257141891692236,0.0
2342,5.166386289823534,0.0
2343,5.053869498173587,0.0
2344,5.101114816367597,0.0
2345,5.206892270405979,0.0
2346,5.364842670300356,0.0
2347,5.1945160732981135,0.0
2348,5.2260075224713365,0.0
2349,5.142942291220375,0.0
2350,5.392968818258855,0.0
2351,5.266025245622305,0.0
2352,5.234602240991983,0.0
2353,5.236437122675671,0.0
2354,5.320596949734403,0.0
2355,5.2946725383855915,0.0
2356,5.190784867811095,0.0
2357,5.39316132721959,0.0
2358,5.215079606799546,0.0
2359,5.356027849354823,0.0
2360,5.164915022669746,0.0
2361,5.392876515391845,0.0
2362,5.399602860989048,0.0
2363,5.351930815637704,0.0
2364,5.2960695619783635,0.0
2365,5.3737453131938615,0.0
2366,5.362343147279415,0.0
2367,5.299151195883621,0.0
2368,5.305483646612883,0.0
2369,5.295457558829952,0.0
2370,5.448245539094188,0.0
2371,5.385223604888806,0.0
2372,5.417142855909263,0.0
2373,5.641663415125075,0.0
2374,5.376981855374374,0.0
2375,5.2981208162139835,0.0
2376,5.2157892026037755,0.0
2377,5.335901410752982,0.0
2378,5.447582816592194,0.0
2379,5.359604247940522,0.0
2380,5.248245972457798,0.0
2381,5.388331628652193,0.0
2382,5.2493974460151485,0.0
2383,5.422266030332465,0.0
2384,5.306884608737889,0.0
2385,5.183737829584908,0.0
2386,5.2706197360027085,0.0
2387,5.297501662881452,0.0
2388,5.336924470241608,0.0
2389,5.258455011480138,0.0
2390,5.540311975519515,0.0
2391,5.355917208095265,0.0
2392,5.360976207693185,0.0
2393,5.471763120218082,0.0
2394,5.2381636607396995,0.0
2395,5.356393666176536,0.0
2396,5.304865447263634,0.0
2397,5.483660620913684,0.0
2398,5.423482295299109,0.0
2399,5.448792496978199,0.0
2400,5.617083945560848,0.0
2401,5.797249235366054,0.0
2402,6.017478188488489,0.0
2403,6.663793868879514,0.0
2404,7.29720457507935,0.0
2405,8.27096917300816,0.0
2406,9.377717499291046,0.0
2407,10.315798683389785,0.0
2408,11.468609360130564,0.0
2409,12.011690057591085,0.0
2410,12.40552430309181,0.0
2411,11.953210966769298,0.0
2412,11.133586446243687,0.0
2413,9.587957904527325,0.0
2414,7.977516858251847,0.0
2415,5.852995428345542,0.0
2416,4.366471451157675,0.0
2417,3.081646874251859,0.0
2418,2.4005570943244736,0.0
2419,2.5897944397435393,0.0
2420,2.813111911912001,0.0
2421,3.736148696430135,0.0
2422,5.0458017847967875,0.0
2423,5.901935280448033,0.0
2424,6.714707428068366,0.0
2425,6.950018027941021,0.0
2426,6.9490510016367075,0.0
2427,6.47519484840011,0.0
2428,5.850408974071107,0.0
2429,5.376246869982512,0.0
2430,5.041082320722361,0.0
2431,4.7176562032595335,0.0
2432,4.746924048134608,0.0
2433,4.985843190741601,0.0
2434,5.168512815827081,0.0
2435,5.38524478974717,0.0
2436,5.548137988404983,0.0
2437,5.813077737570768,0.0
2438,5.683642390295544,0.0
2439,5.722345868801058,0.0
2440,5.581061351064675,0.0
2441,5.550517896955886,0.0
2442,5.521391837683032,0.0
2443,5.489747381130411,0.0
2444,5.34462309988543,0.0
2445,5.419594559343153,0.0
2446,5.167264869753836,0.0
2447,5.441469145289627,0.0
2448,5.500019113695436,0.0
2449,5.493501132599894,0.0
2450,5.382010482773824,0.0
2451,5.545641051026779,0.0
2452,5.437190033383716,0.0
2453,5.5742190638903315,0.0
2454,5.299165004828946,0.0
2455,5.455878081956268,0.0
2456,5.517019927929283,0.0
2457,5.383696535284837,0.0
2458,5.3112531709734805,0.0
2459,5.591876327858878,0.0
2460,5.445144513256277,0.0
2461,5.438514270343734,0.0
2462,5.544615347132439,0.0
2463,5.5010694114382455,0.0
2464,5.445647888779345,0.0
2465,5.456266597153258,0.0
2466,5.35367691744468,0.0
2467,5.463415336087611,0.0
2468,5.372050951000871,0.0
2469,5.554555815446972,0.0
2470,5.5055124798609345,0.0
2471,5.671171231338144,0.0
2472,5.338478093232138,0.0
2473,5.4799452024704545,0.0
2474,5.535564039868303,0.0
2475,5.510886343504747,0.0
2476,5.3855698820447255,0.0
2477,5.545663229184283,0.0
2478,5.5415957062340295,0.0
2479,5.634696514409606,0.0
2480,5.450755783626251,0.0
2481,5.4718872323583545,0.0
2482,5.639655355141866,0.0
2483,5.369301513562559,0.0
2484,5.404840603168676,0.0
2485,5.4983337176835985,0.0
2486,5.464434005787756,0.0
2487,5.4986178088672935,0.0
2488,5.357983716667325,0.0
2489,5.761727324454478,0.0
2490,5.529756138280999,0.0
2491,5.693806536476571,0.0
2492,5.655839547303157,0.0
2493,5.774398829527552,0.0
2494,5.475570703118214,0.0
2495,5.461473894642342,0.0
2496,5.437635820092052,0.0
2497,5.601575363485399,0.0
2498,5.567173253055547,0.0
2499,5.459260159165739,0.0
2500,5.828423246812333,0.0
2501,5.868140253873047,0.0
2502,6.1778215423618565,0.0
2503,6.663233383958336,0.0
2504,7.6246752606918715,0.0
2505,8.457596324078994,0.0
2506,9.432355180108802,0.0
2507,10.51443295124663,0.0
2508,11.55096007736379,0.0
2509,12.318517271080314,0.0
2510,12.521798085060233,0.0
2511,12.384325974730247,0.0
2512,11.298287384252971,0.0
2513,10.02903159782813,0.0
2514,8.192616450271549,0.0
2515,6.59414893784822,0.0
2516,4.598641855609457,0.0
2517,3.266390841810935,0.0
2518,2.4856906326228922,0.0
2519,2.616981613826821,0.0
2520,3.0429509531434347,0.0
2521,4.034699299868096,0.0
2522,5.086589726905535,0.0
2523,6.270215130007025,0.0
2524,6.842428335377253,0.0
2525,7.034953561130979,0.0
2526,7.153029077882531,0.0
2527,6.8039666998910615,0.0
2528,6.107610371196662,0.0
2529,5.474078778265766,0.0
2530,5.065241141748588,0.0
2531,4.831353842120904,0.0
2532,4.946465297977081,0.0
2533,4.8656026422631,0.0
2534,5.435908236236283,0.0
2535,5.743541640386233,0.0
2536,5.783579290008515,0.0
2537,5.973388418361909,0.0
2538,5.981947575996501,0.0
2539,5.761276612479796,0.0
2540,5.678501131560058,0.0
2541,5.48999075700953,0.0
2542,5.509872004086136,0.0
2543,5.569313399242357,0.0
2544,5.498024392084164,0.0
2545,5.6592677603260055,0.0
2546,5.716884571091656,0.0
2547,5.5976447425135145,0.0
2548,5.73625012448736,0.0
2549,5.703787056961561,0.0
2550,5.774437156701637,0.0
2551,5.818263157486093,0.0
2552,5.749646677264438,0.0
2553,5.606697631105351,0.0
2554,5.690497136964232,0.0
2555,5.756925522797729,0.0
2556,5.578514889961264,0.0
2557,5.770730772386366,0.0
2558,5.76569620954107,0.0
2559,5.510055937119863,0.0
2560,5.594439194723319,0.0
2561,5.58469964959551,0.0
2562,5.583959463836239,0.0
2563,5.650971434977208,0.0
2564,5.746726281949306,0.0
2565,5.69309373724437,0.0
2566,5.727434391451992,0.0
2567,5.817731028862742,0.0
2568,5.602633313979162,0.0
2569,5.71830590069069,0.0
2570,5.782794055094293,0.0
2571,5.442969422859211,0.0
2572,5.918759442028786,0.0
2573,5.564390864687033,0.0
2574,5.739771561678686,0.0
2575,5.646034866473591,0.0
2576,5.695216722763656,0.0
2577,5.634481024176492,0.0
2578,5.741368674412311,0.0
2579,5.87004204744282,0.0
2580,5.8306684425487205,0.0
2581,5.750349163219906,0.0
2582,5.665570679613048,0.0
2583,5.4925090442836835,0.0
2584,5.654447719465524,0.0
2585,5.691732758633747,0.0
2586,5.630750887345649,0.0
2587,5.758331337424073,0.0
2588,5.573099250901528,0.0
2589,5.774566276869545,0.0
2590,5.557631612158553,0.0
2591,5.771268463124898,0.0
2592,5.675130336212407,0.0
2593,5.685868236625429,0.0
2594,5.734169779098417,0.0
2595,5.513086212606785,0.0
2596,5.665318212459228,0.0
2597,5.7824810704539535,0.0
2598,5.769404944855373,0.0
2599,5.840176492143367,0.0
2600,5.741110398662138,0.0
2601,6.090442382400344,0.0
2602,6.479788989213677,0.0
2603,7.116641968645248,0.0
2604,7.690176648157752,0.0
2605,8.678675615536571,0.0
2606,9.445041333739788,0.0
2607,10.692531656008757,0.0
2608,11.483604813423813,0.0
2609,12.60883203448891,0.0
2610,12.837139361074604,0.0
2611,12.47381920525749,0.0
2612,11.581713761570104,0.0
2613,9.972847894579456,0.0
2614,8.353249628639745,0.0
2615,6.5188006743290305,0.0
2616,4.893194295313315,0.0
2617,3.5049710816055724,0.0
2618,2.788542812565833,0.0
2619,2.8203942569952547,0.0
2620,3.130541296518895,0.0
2621,4.152241854879226,0.0
2622,5.283142307196973,0.0
2623,6.229298306902156,0.0
2624,7.137591023265686,0.0
2625,7.251508643586324,0.0
2626,7.13329369025543,0.0
2627,6.682802744986807,0.0
2628,6.156822191048358,0.0
2629,5.67682695304093,0.0
2630,5.18127467192793,0.0
2631,5.074264298135849,0.0
2632,4.913254483102685,0.0
2633,5.1486865003004,0.0
2634,5.487611801946074,0.0
2635,5.7169968643877285,0.0
2636,5.792392520163184,0.0
2637,6.054483466166135,0.0
2638,5.819307991883728,0.0
2639,6.023242109012047,0.0
2640,5.836589189305922,0.0
2641,5.717130980218271,0.0
2642,5.805263285558764,0.0
2643,5.45448111471199,0.0
2644,5.576518860961677,0.0
2645,5.653188628757093,0.0
2646,5.621703090983439,0.0
2647,5.720794076131062,0.0
2648,5.6520321983795485,0.0
2649,5.641397062586484,0.0
2650,5.787775449651162,0.0
2651,5.677747444155299,0.0
2652,5.629131290255476,0.0
2653,5.879736956239924,0.0
2654,5.758852335200456,0.0
2655,5.824102201206422,0.0
2656,5.863103968709527,0.0
2657,5.93502324110832,0.0
2658,5.588386452656646,0.0
2659,5.606344647625567,0.0
2660,5.837547501254618,0.0
2661,5.886953292097437,0.0
2662,5.479810980036408,0.0
2663,5.80590288731562,0.0
2664,5.822716512329843,0.0
2665,5.694530533578093,0.0
2666,5.799707772181382,0.0
2667,5.802579043658919,0.0
2668,5.626002280006791,0.0
2669,5.835298967108305,0.0
2670,5.930192056433959,0.0
2671,5.6951924814761385,0.0
2672,5.71516881672729,0.0
2673,5.624835472182777,0.0
2674,5.796240263921771,0.0
2675,5.925973300669317,0.0
2676,5.7687585630445675,0.0
2677,5.670121180664528,0.0
2678,5.665232420215104,0.0
2679,5.622242895268779,0.0
2680,5.805397717390684,0.0
2681,5.841219392580661,0.0
2682,5.765772152824444,0.0
2683,5.788046801401988,0.0
2684,5.891859084345921,0.0
2685,5.762555334380527,0.0
2686,5.7919791222433155,0.0
2687,5.745612793420849,0.0
2688,5.964074422242326,0.0
2689,5.7811868483954525,0.0
2690,5.76542346883335,0.0
2691,6.086848562566417,0.0
2692,5.754630677415921,0.0
2693,6.004649613791852,0.0
2694,5.738058645484232,0.0
2695,5.894718649930867,0.0
2696,5.976651410692816,0.0
2697,5.670735889004468,0.0
2698,5.860077029891812,0.0
2699,5.967720100119653,0.0
2700,6.042322230081456,0.0
2701,6.017478319980446,0.0
2702,6.315033333245722,0.0
2703,7.171358287967693,0.0
2704,7.657016647738495,0.0
2705,8.664251442426966,0.0
2706,9.710355600760986,0.0
2707,10.818768532424322,0.0
2708,11.823783551457211,0.0
2709,12.541354489533614,0.0
2710,12.745376622933891,0.0
2711,12.357661323947326,0.0
2712,11.77115812015321,0.0
2713,10.131901929287281,0.0
2714,8.39176892809784,0.0
2715,6.6510736113848665,0.0
2716,4.8205914917077015,0.0
2717,3.701472132662386,0.0
2718,2.925635364180263,0.0
2719,2.974454593212753,0.0
2720,3.3256945360557975,0.0
2721,4.257286090355297,0.0
2722,5.200017590437977,0.0
2723,6.264224981738118,0.0
2724,7.009410846448552,0.0
2725,7.3316771554888405,0.0
2726,7.4209159124688435,0.0
2727,6.843727833582893,0.0
2728,6.3662979098683925,0.0
2729,5.823208864777965,0.0
2730,5.433594272700774,0.0
2731,5.06144059738531,0.0
2732,5.025966666598277,0.0
2733,5.391296650499815,0.0
2734,5.4878973775280695,0.0
2735,5.756111695335543,0.0
2736,6.166887015059235,0.0
2737,6.224528946158342,0.0
2738,6.243304522370691,0.0
2739,6.11859608092157,0.0
2740,5.918020565739012,0.0
2741,5.9140697901052866,0.0
2742,6.019493795775532,0.0
2743,5.827247719455624,0.0
2744,5.738976122973381,0.0
2745,5.765864781643957,0.0
2746,5.749312069327981,0.0
2747,5.820174203997798,0.0
2748,5.955702749081311,0.0
2749,5.842907882157626,0.0
2750,5.9547479662527625,0.0
2751,6.004099479722851,0.0
2752,5.83757736242336,0.0
2753,5.927368039695014,0.0
2754,5.737807084492942,0.0
2755,5.875311619495347,0.0
2756,5.799177409649744,0.0
2757,5.863257528171477,0.0
2758,5.768803336319905,0.0
2759,5.936829225056849,0.0
2760,5.852558608174627,0.0
2761,5.971818588021951,0.0
2762,5.788584443631838,0.0
2763,5.969479160276358,0.0
2764,5.688950885282723,0.0
2765,5.974861155256099,0.0
2766,5.72694345735272,0.0
2767,5.815459873937135,0.0
2768,5.877341486910984,0.0
2769,5.654087237018205,0.0
2770,5.813701061435281,0.0
2771,5.988873112081965,0.0
2772,5.882108121776071,0.0
2773,5.945338319905855,0.0
2774,5.844222656346577,0.0
2775,6.048598510730898,0.0
2776,5.8478978670121915,0.0
2777,5.769452955764406,0.0
2778,5.815537275000864,0.0
2779,5.877758679179434,0.0
2780,5.9486517084032435,0.0
2781,5.945954390328998,0.0
2782,5.86041965037635,0.0
2783,6.085493525804981,0.0
2784,5.823688532042197,0.0
2785,5.906541335485236,0.0
2786,5.874567661219944,0.0
2787,5.867140668720107,0.0
2788,5.871477002140355,0.0
2789,5.968899498446217,0.0
2790,5.978594563039137,0.0
2791,5.994286252205299,0.0
2792,5.885008407845389,0.0
2793,5.977955801798241,0.0
2794,6.0476458188747735,0.0
2795,6.1319161213004865,0.0
2796,6.066685885502932,0.0
2797,5.832082547576564,0.0
2798,6.091126168679663,0.0
2799,6.059142063298022,0.0
2800,6.141456639478217,0.0
2801,6.434597824760583,0.0
2802,6.657712470054026,0.0
2803,7.14248265536186,0.0
2804,7.9554776470059885,0.0
2805,8.826236683903733,0.0
2806,9.736708670143361,0.0
2807,10.999706133436625,0.0
2808,11.957470062580827,0.0
2809,12.583470777121395,0.0
2810,12.932527063752014,0.0
2811,12.675363981511026,0.0
2812,11.797118872644225,0.0
2813,10.37354553363825,0.0
2814,8.810701133547976,0.0
2815,6.743098710109947,0.0
2816,5.165269842373323,0.0
2817,3.8458002596416585,0.0
2818,3.020947117724832,0.0
2819,2.98783751669935,0.0
2820,3.7103450469093437,0.0
2821,4.490415040397021,0.0
2822,5.359601747707745,0.0
2823,6.4351933802829535,0.0
2824,7.223325037192405,0.0
2825,7.609527122820177,0.0
2826,7.459857062860849,0.0
2827,6.928773508077519,0.0
2828,6.436966715047927,0.0
2829,5.866078463113693,0.0
2830,5.413250892082334,0.0
2831,5.252657604694978,0.0
2832,5.080501024134222,0.0
2833,5.295921357768962,0.0
2834,5.7717064326046925,0.0
2835,5.889292310011409,0.0
2836,6.060929238552788,0.0
2837,6.17530887893407,0.0
2838,6.323249986965696,0.0
2839,6.2326544170043086,0.0
2840,6.231505149948427,0.0
2841,6.006825619293445,0.0
2842,5.893691456241142,0.0
2843,5.897512473763815,0.0
2844,5.841503459188255,0.0
2845,6.114241126518381,0.0
2846,6.091532892620983,0.0
2847,6.091525549790361,0.0
2848,5.955015193006685,0.0
2849,6.001595623952707,0.0
2850,6.006309912225226,0.0
2851,6.104832599282225,0.0
2852,6.157710640261485,0.0
2853,6.23064834553214,0.0
2854,5.887312644190313,0.0
2855,5.946833012211629,0.0
2856,6.065497806684582,0.0
2857,5.902493769586706,0.0
2858,5.981969426167477,0.0
2859,6.134528023705346,0.0
2860,5.870789427766278,0.0
2861,6.170270873551011,0.0
2862,6.119428884805007,0.0
2863,6.1049354004139795,0.0
2864,6.118337504978938,0.0
2865,6.14881336665036,0.0
2866,5.925044751466685,0.0
2867,5.956561861114409,0.0
2868,6.140882278512627,0.0
2869,5.871571541510432,0.0
2870,6.088959731282234,0.0
2871,6.1197026393432585,0.0
2872,6.021725270053282,0.0
2873,5.884171763675185,0.0
2874,6.051101735032969,0.0
2875,6.133453240103016,0.0
2876,6.052869405500017,0.0
2877,5.952841721682719,0.0
2878,5.848350274038814,0.0
2879,5.997774035748376,0.0
2880,6.216060518400963,0.0
2881,6.069723739785886,0.0
2882,6.094836212782458,0.0
2883,6.161395062641977,0.0
2884,5.928887082411772,0.0
2885,6.1195633224897605,0.0
2886,6.018818455921741,0.0
2887,6.062072726600906,0.0
2888,6.028182024809646,0.0
2889,6.284865468460784,0.0
2890,6.1204160772010985,0.0
2891,5.929588069885604,0.0
2892,6.0392483898156835,0.0
2893,5.880103749986289,0.0
2894,6.088361167357486,0.0
2895,6.039688737552457,0.0
2896,6.007526208164986,0.0
2897,6.1404607680076095,0.0
2898,6.242830509518581,0.0
2899,6.15995869531225,0.0
2900,6.120122797046495,0.0
2901,6.4795655285899585,0.0
2902,6.646090865338248,0.0
2903,7.254586457378595,0.0
2904,7.946477666205552,0.0
2905,8.855622341176666,0.0
2906,9.84909632873891,0.0
2907,11.136043745572087,0.0
2908,11.951533435816224,0.0
2909,12.57230027582721,0.0
2910,13.130440931930185,0.0
2911,12.859391781884518,0.0
2912,11.887230687246701,0.0
2913,10.632921926644041,0.0
2914,9.030510012394371,0.0
2915,7.089808318171521,0.0
2916,5.067678749869283,0.0
2917,4.048889423847159,0.0
2918,3.205373459707262,0.0
2919,3.1089205183921655,0.0
2920,3.692701162607362,0.0
2921,4.4652546500428905,0.0
2922,5.5563898166555585,0.0
2923,6.4161330760840585,0.0
2924,7.330125843974961,0.0
2925,7.655061972136123,0.0
2926,7.644471156813181,0.0
2927,7.265101952853717,0.0
2928,6.682184847358646,0.0
2929,6.076420771872898,0.0
2930,5.595014060906718,0.0
2931,5.282131259209753,0.0
2932,5.474085177289332,0.0
2933,5.5245975340592075,0.0
2934,5.7661534496823,0.0
2935,6.091341882440385,0.0
2936,6.291018313668844,0.0
2937,6.3520592943137455,0.0
2938,6.539865349602733,0.0
2939,6.341284261356134,0.0
2940,6.509013837592413,0.0
2941,6.262632001818734,0.0
2942,6.113736985936731,0.0
2943,5.843030318015102,0.0
2944,6.164138403435651,0.0
2945,6.147718811514249,0.0
2946,6.062536107281973,0.0
2947,6.081921062738279,0.0
2948,6.137940482804508,0.0
2949,6.243326724427937,0.0
2950,5.99152910401775,0.0
2951,6.080475696293959,0.0
2952,6.172069428505586,0.0
2953,6.26965746141708,0.0
2954,6.087153892819781,0.0
2955,5.91697821009686,0.0
2956,6.1307797258231975,0.0
2957,5.998419749728456,0.0
2958,6.0675774412512755,0.0
2959,6.213864587530268,0.0
2960,6.1502819300359555,0.0
2961,6.015680947394091,0.0
2962,6.082457821936395,0.0
2963,6.118836180031118,0.0
2964,6.16282035072356,0.0
2965,6.05342281684038,0.0
2966,6.007892889156161,0.0
2967,6.217387153842768,0.0
2968,6.287081893534676,0.0
2969,6.064336092248339,0.0
2970,6.008874337958734,0.0
2971,6.360747488814313,0.0
2972,6.151789946261021,0.0
2973,6.181997119701552,0.0
2974,6.175663923560984,0.0
2975,6.193726338287329,0.0
2976,6.176916247076116,0.0
2977,6.044120180401025,0.0
2978,6.20813442014614,0.0
2979,6.07114369000687,0.0
2980,6.279043361883618,0.0
2981,6.306757337461445,0.0
2982,6.01522844963774,0.0
2983,6.193353509195944,0.0
2984,6.104813251287629,0.0
2985,6.1722828349828704,0.0
2986,6.250552868477165,0.0
2987,6.313602445841315,0.0
2988,6.113458587480903,0.0
2989,6.150030494965046,0.0
2990,6.1146871149353155,0.0
2991,6.197114358226778,0.0
2992,6.156637888997496,0.0
2993,6.0666824523593785,0.0
2994,6.286751595167317,0.0
2995,6.273846266961989,0.0
2996,6.232451545466914,0.0
2997,6.149778062482737,0.0
2998,5.864986827731121,0.0
2999,6.355160701142751,0.0
3000,6.342959575014382,0.0
3001,6.433284884865663,0.0
3002,6.838333180916489,0.0
3003,7.392940466913319,0.0
3004,8.208979636499667,0.0
3005,9.053958644359149,0.0
3006,10.220316136848425,0.0
3007,10.979099478884827,0.0
3008,11.982128532465666,0.0
3009,12.79540699914459,0.0
3010,13.184568977926354,0.0
3011,12.866516253601938,0.0
3012,12.293707780107034,0.0
3013,10.746619564817298,0.0
3014,8.982925681935427,0.0
3015,7.226216440133013,0.0
3016,5.312735632790731,0.0
3017,4.203044743429697,0.0
3018,3.331110244156664,0.0
3019,3.2357692043773163,0.0
3020,3.543945698600475,0.0
3021,4.652075742106524,0.0
3022,5.613741965023256,0.0
3023,6.805049431403447,0.0
3024,7.428265524838468,0.0
3025,7.878613578795228,0.0
3026,7.832591984304989,0.0
3027,7.257475356926569,0.0
3028,6.75742299495975,0.0
3029,6.123764382869291,0.0
3030,5.904280681459635,0.0
3031,5.646844370788586,0.0
3032,5.3720811404444,0.0
3033,5.808341974174258,0.0
3034,5.642690640271295,0.0
3035,5.959343741196444,0.0
3036,6.427527262661273,0.0
3037,6.5571926621007055,0.0
3038,6.568404369364771,0.0
3039,6.76272593783583,0.0
3040,6.37514178888201,0.0
3041,6.285624109110174,0.0
3042,6.364749355798196,0.0
3043,6.5370685260177535,0.0
3044,6.3398999211200655,0.0
3045,6.12350233971779,0.0
3046,6.338212038879682,0.0
3047,6.203313343814329,0.0
3048,6.345179728496484,0.0
3049,6.403328006075818,0.0
3050,6.38483172831049,0.0
3051,6.324306875940586,0.0
3052,6.151726962273634,0.0
3053,6.173411140981895,0.0
3054,6.173160874020503,0.0
3055,6.224587803221434,0.0
3056,6.319882245249945,0.0
3057,6.381199381440377,0.0
3058,6.2913520672404895,0.0
3059,6.149737230289861,0.0
3060,6.161989692392846,0.0
3061,6.3083408421389455,0.0
3062,6.338202343959129,0.0
3063,6.230153724351778,0.0
3064,6.343914738937186,0.0
3065,6.304902461006117,0.0
3066,6.349098797526894,0.0
3067,6.158678426024237,0.0
3068,6.172683723674278,0.0
3069,6.1738743454493425,0.0
3070,6.254311089462869,0.0
3071,6.255580208401661,0.0
3072,6.321870486239269,0.0
3073,6.342013579762667,0.0
3074,6.295708948344003,0.0
3075,6.208035100442118,0.0
3076,6.272029862864072,0.0
3077,6.368849934227978,0.0
3078,6.1953951058636125,0.0
3079,6.381613463881939,0.0
3080,6.452617340845556,0.0
3081,6.243010777038208,0.0
3082,6.296633226003084,0.0
3083,6.380187796187773,0.0
3084,6.375160600391536,0.0
3085,6.345979489410121,0.0
3086,6.318889899017006,0.0
3087,6.347610722230911,0.0
3088,6.400305525356191,0.0
3089,6.35027995849148,0.0
3090,6.439997446143534,0.0
3091,6.366820773586605,0.0
3092,6.170372708559793,0.0
3093,6.407422045949041,0.0
3094,6.493699319627714,0.0
3095,6.259743908140532,0.0
3096,6.515277274810422,0.0
3097,6.092567043885055,0.0
3098,6.359879559831367,0.0
3099,6.251824909201674,0.0
3100,6.536574637294636,0.0
3101,6.773122991639151,0.0
3102,6.962160902870684,0.0
3103,7.35367493085597,0.0
3104,8.253569049802179,0.0
3105,9.017861800197203,0.0
3106,10.277311677871598,0.0
3107,11.048329087169012,0.0
3108,12.180474167965047,0.0
3109,12.946584042951194,0.0
3110,13.508440947761258,0.0
3111,13.075701397918015,0.0
3112,12.214998522427742,0.0
3113,10.893238408741055,0.0
3114,9.325260467884622,0.0
3115,7.459418741913578,0.0
3116,5.533309384205149,0.0
3117,4.078454486620467,0.0
3118,3.6029502242581297,0.0
3119,3.5069753775994665,0.0
3120,3.8867359456092196,0.0
3121,4.711894956385009,0.0
3122,5.537816785898781,0.0
3123,6.9056233646192755,0.0
3124,7.563251616284663,0.0
3125,7.979709069373285,0.0
3126,7.95707779783432,0.0
3127,7.524959796447899,0.0
3128,6.901888326282088,0.0
3129,6.48431121337907,0.0
3130,5.915992167806803,0.0
3131,5.614525956298159,0.0
3132,5.714465710128235,0.0
3133,5.793820852323405,0.0
3134,6.005674054814359,0.0
3135,6.205420502556667,0.0
3136,6.559259473895281,0.0
3137,6.766210252135232,0.0
3138,6.688136744124266,0.0
3139,6.680990191445803,0.0
3140,6.4306975346475745,0.0
3141,6.480120576625724,0.0
3142,6.362686287193167,0.0
3143,6.412299130313099,0.0
3144,6.356899068901399,0.0
3145,6.273838510972688,0.0
3146,6.440194345941926,0.0
3147,6.464501179790915,0.0
3148,6.516849938694486,0.0
3149,6.305642724613174,0.0
3150,6.57125344578024,0.0
3151,6.360997307181258,0.0
3152,6.439451551695593,0.0
3153,6.2863711272256415,0.0
3154,6.390705901639902,0.0
3155,6.3675687977613915,0.0
3156,6.218678289041876,0.0
3157,6.304035921988048,0.0
3158,6.251849239856665,0.0
3159,6.438184652037326,0.0
3160,6.344659578387899,0.0
3161,6.10260876261546,0.0
3162,6.354739506999838,0.0
3163,6.443640590470509,0.0
3164,6.397551544953133,0.0
3165,6.392423728716872,0.0
3166,6.403171586502414,0.0
3167,6.355233590942587,0.0
3168,6.272644045835691,0.0
3169,6.439857945254566,0.0
3170,6.419729365964986,0.0
3171,6.419103003015169,0.0
3172,6.473491584180878,0.0
3173,6.4786648219406455,0.0
3174,6.49948550657715,0.0
3175,6.432203066187278,0.0
3176,6.477994905503313,0.0
3177,6.439962459266288,0.0
3178,6.3768352172553255,0.0
3179,6.570625232276872,0.0
3180,6.503089700611928,0.0
3181,6.4518913376993865,0.0
3182,6.627758619612264,0.0
3183,6.622025310532191,0.0
3184,6.496090565721392,0.0
3185,6.548044143961684,0.0
3186,6.514413330380698,0.0
3187,6.435901586141823,0.0
3188,6.4945658021889745,0.0
3189,6.355257218194226,0.0
3190,6.609601809126499,0.0
3191,6.443850653156869,0.0
3192,6.459133911420711,0.0
3193,6.581421561589606,0.0
3194,6.553247405664229,0.0
3195,6.420802882648251,0.0
3196,6.300816783469633,0.0
3197,6.637539363947126,0.0
3198,6.610713471347016,0.0
3199,6.354497557832981,0.0
3200,6.635708749375521,0.0
3201,6.722523218139754,0.0
3202,7.023705645287672,0.0
3203,7.755201826546729,0.0
3204,8.41624759756274,0.0
3205,9.184884709126983,0.0
3206,10.301388057156172,0.0
3207,11.508249122137299,0.0
3208,12.180653988222561,0.0
3209,12.978704958099568,0.0
3210,13.546982931870604,0.0
3211,13.284815321938563,0.0
3212,12.54925494855226,0.0
3213,11.179375800702005,0.0
3214,9.58776971739532,0.0
3215,7.530457807693103,0.0
3216,5.734171108144617,0.0
3217,4.505933354638854,0.0
3218,3.5439213795910023,0.0
3219,3.628038854664386,0.0
3220,3.990290095835763,0.0
3221,4.737532324812123,0.0
3222,5.783981591317095,0.0
3223,6.903704673422156,0.0
3224,7.531726943880596,0.0
3225,7.916857611168123,0.0
3226,8.08202958928193,0.0
3227,7.684751603150097,0.0
3228,7.012664932761201,0.0
3229,6.455453480267792,0.0
3230,6.046845608388946,0.0
3231,5.709613179722908,0.0
3232,5.761036926932589,0.0
3233,5.965458276048691,0.0
3234,6.276630056533912,0.0
3235,6.517019929943464,0.0
3236,6.49437372267322,0.0
3237,6.806537520530101,0.0
3238,6.909736599581879,0.0
3239,6.550866154589857,0.0
3240,6.8268292453829815,0.0
3241,6.407093986191435,0.0
3242,6.292777160589415,0.0
3243,6.271574835444196,0.0
3244,6.454085002598243,0.0
3245,6.193858667883414,0.0
3246,6.379580968393887,0.0
3247,6.539531922919067,0.0
3248,6.454159232689094,0.0
3249,6.424140079713139,0.0
3250,6.47059044367648,0.0
3251,6.545901520136948,0.0
3252,6.586335175972167,0.0
3253,6.418739441526899,0.0
3254,6.414494944297259,0.0
3255,6.5086491101336446,0.0
3256,6.3856266658427705,0.0
3257,6.753616173951998,0.0
3258,6.531022498774524,0.0
3259,6.41855397598035,0.0
3260,6.562992482906306,0.0
3261,6.548706590346151,0.0
3262,6.476254938200726,0.0
3263,6.580797649796988,0.0
3264,6.449176273132908,0.0
3265,6.533647600222085,0.0
3266,6.39803361645731,0.0
3267,6.742458076663493,0.0
3268,6.589751008646764,0.0
3269,6.576475218363795,0.0
3270,6.5219051723199115,0.0
3271,6.587094951978924,0.0
3272,6.558696238511763,0.0
3273,6.506681462669458,0.0
3274,6.5684970298832495,0.0
3275,6.622123766409538,0.0
3276,6.771465717029593,0.0
3277,6.432342028873465,0.0
3278,6.772513011331192,0.0
3279,6.657830719058878,0.0
3280,6.585003552059873,0.0
3281,6.684466577925434,0.0
3282,6.457459502280874,0.0
3283,6.522802554113878,0.0
3284,6.507354454306058,0.0
3285,6.588473982432908,0.0
3286,6.688803171709872,0.0
3287,6.454768465421429,0.0
3288,6.44973429006275,0.0
3289,6.60309826793033,0.0
3290,6.503464706870223,0.0
3291,6.628769240698099,0.0
3292,6.512026217751344,0.0
3293,6.413113785767798,0.0
3294,6.683945710767188,0.0
3295,6.404675530832407,0.0
3296,6.411217862229063,0.0
3297,6.554459042601931,0.0
3298,6.385027740117913,0.0
3299,6.7069601511421535,0.0
3300,6.853218483239501,0.0
3301,6.838858961168356,0.0
3302,7.191158857437229,0.0
3303,7.555657477475308,0.0
3304,8.478920300667795,0.0
3305,9.047042308371852,0.0
3306,10.333834295780976,0.0
3307,11.468237092995231,0.0
3308,12.469062551029618,0.0
3309,13.170930562410177,0.0
3310,13.48682011577933,0.0
3311,13.334002045914405,0.0
3312,12.792484981053283,0.0
3313,11.161049469080764,0.0
3314,9.656810452646305,0.0
3315,7.802417202608323,0.0
3316,5.901572810489809,0.0
3317,4.545430129602654,0.0
3318,3.891359681941709,0.0
3319,3.53470134722145,0.0
3320,3.9949522137895586,0.0
3321,4.751224108633419,0.0
3322,5.910686384639911,0.0
3323,7.076763121037267,0.0
3324,7.924294802439614,0.0
3325,8.25098085848663,0.0
3326,7.996586998351862,0.0
3327,7.88098835015496,0.0
3328,7.391440118563442,0.0
3329,6.729681423433363,0.0
3330,6.0281020817295445,0.0
3331,5.805576791389768,0.0
3332,5.946255468518422,0.0
3333,6.076938150309904,0.0
3334,6.392173118621167,0.0
3335,6.673036399207594,0.0
3336,6.607703114768203,0.0
3337,6.968003153162,0.0
3338,7.026616287023258,0.0
3339,6.968108536655677,0.0
3340,6.700746846355122,0.0
3341,6.68089148235272,0.0
3342,6.695817527319532,0.0
3343,6.491930877506095,0.0
3344,6.355189485193864,0.0
3345,6.625744495291866,0.0
3346,6.707048947288972,0.0
3347,6.691893827631619,0.0
3348,6.639536482722923,0.0
3349,6.7672565856241285,0.0
3350,6.7092622807847935,0.0
3351,6.722684628877824,0.0
3352,6.761542492680266,0.0
3353,6.6347720357366375,0.0
3354,6.646287181588824,0.0
3355,6.729067946515292,0.0
3356,6.427980379345897,0.0
3357,6.514554964349822,0.0
3358,6.699192194481503,0.0
3359,6.652405499370739,0.0
3360,6.651503507297127,0.0
3361,6.551644846946096,0.0
3362,6.643125580010443,0.0
3363,6.706899132642788,0.0
3364,6.507691621636218,0.0
3365,6.727949229652211,0.0
3366,6.495312610224143,0.0
3367,6.5950391761176155,0.0
3368,6.5821788672945765,0.0
3369,6.610765404012794,0.0
3370,6.750807950688264,0.0
3371,6.604801683776489,0.0
3372,6.577499653379162,0.0
3373,6.61318646144318,0.0
3374,6.662998760333425,0.0
3375,6.6666573922405155,0.0
3376,6.608637338778082,0.0
3377,6.672020897851003,0.0
3378,6.778157836058621,0.0
3379,6.608431860703159,0.0
3380,6.856282727905055,0.0
3381,6.870863919527971,0.0
3382,6.872033734344007,0.0
3383,6.667875790900638,0.0
3384,6.611832929247245,0.0
3385,6.445824987557602,0.0
3386,6.595732196350332,0.0
3387,6.678838073213981,0.0
3388,6.686078037041733,0.0
3389,6.536118586436741,0.0
3390,6.692268285752434,0.0
3391,6.55384597010668,0.0
3392,6.648012282511405,0.0
3393,6.570806707443303,0.0
3394,6.674206602155637,0.0
3395,6.462883621230764,0.0
3396,6.591172618835486,0.0
3397,6.56680038282677,0.0
3398,6.6522047363902495,0.0
3399,6.855088439993571,0.0
3400,6.6329596444835355,0.0
3401,6.920565915658188,0.0
3402,7.40070474069804,0.0
3403,7.6940501744831415,0.0
3404,8.431502270884689,0.0
3405,9.29615120746556,0.0
3406,10.585976736274779,0.0
3407,11.550047599067568,0.0
3408,12.48906275835175,0.0
3409,13.29029618035709,0.0
3410,13.802365210479838,0.0
3411,13.528439840091876,0.0
3412,12.753538877284061,0.0
3413,11.454531940126753,0.0
3414,9.82996118318009,0.0
3415,7.895440760933726,0.0
3416,6.254939242879633,0.0
3417,4.810603713343591,0.0
3418,3.8245589189158324,0.0
3419,3.726197031314021,0.0
3420,3.9453827587572574,0.0
3421,4.868622011355848,0.0
3422,6.1137736488818994,0.0
3423,7.040457847137092,0.0
3424,7.699252668783894,0.0
3425,8.260963581318407,0.0
3426,8.356400792971964,0.0
3427,7.7925684958606265,0.0
3428,7.35281625514814,0.0
3429,6.709138801744996,0.0
3430,6.241781544161626,0.0
3431,5.942651222911233,0.0
3432,5.847945014693554,0.0
3433,5.871597733537484,0.0
3434,6.341273638824335,0.0
3435,6.61131516350366,0.0
3436,6.892024350600669,0.0
3437,6.936724800243338,0.0
3438,7.0584545083863635,0.0
3439,6.920017250296242,0.0
3440,6.765908669340786,0.0
3441,6.729812291456655,0.0
3442,6.609785499902179,0.0
3443,6.563252026425732,0.0
3444,6.621985164481148,0.0
3445,6.462303325965234,0.0
3446,6.512675243608072,0.0
3447,6.801040367376827,0.0
3448,6.849285943110486,0.0
3449,6.6147002754540605,0.0
3450,6.81703052901022,0.0
3451,6.725156391574153,0.0
3452,6.74137977402447,0.0
3453,6.781718605454273,0.0
3454,6.836631458853157,0.0
3455,6.560949202825654,0.0
3456,6.883641305604975,0.0
3457,6.7545909178506625,0.0
3458,6.691394602422742,0.0
3459,6.66210750102193,0.0
3460,6.675647950582811,0.0
3461,6.658416291704526,0.0
3462,6.649504495406106,0.0
3463,6.855369572612981,0.0
3464,6.701318115914798,0.0
3465,6.682110017017649,0.0
3466,6.746985242674049,0.0
3467,6.750070594449819,0.0
3468,6.620397675372149,0.0
3469,6.63321013782637,0.0
3470,6.748620154374903,0.0
3471,6.700281757369938,0.0
3472,6.572998145723879,0.0
3473,6.818850039666134,0.0
3474,6.791733387111021,0.0
3475,6.664053930242495,0.0
3476,6.7900147586431,0.0
3477,6.783556809600269,0.0
3478,6.8124778209635535,0.0
3479,6.805930845380593,0.0
3480,6.799228479090464,0.0
3481,6.691294113752605,0.0
3482,6.720384439387044,0.0
3483,6.6779220748788415,0.0
3484,6.855842802772072,0.0
3485,6.792697275466859,0.0
3486,6.723488520327265,0.0
3487,6.519953858175404,0.0
3488,6.831107931327585,0.0
3489,6.751141057207913,0.0
3490,6.803385139599141,0.0
3491,6.664944529251177,0.0
3492,6.8321548414723825,0.0
3493,6.80175844335108,0.0
3494,6.881667858717366,0.0
3495,6.688610637496597,0.0
3496,6.799668005857118,0.0
3497,6.840392474706144,0.0
3498,6.8576047890349585,0.0
3499,6.8831674823623334,0.0
3500,6.902222775538317,0.0
3501,7.102495256687724,0.0
3502,7.362951140502173,0.0
3503,7.760119612384395,0.0
3504,8.389786461757941,0.0
3505,9.63298602577272,0.0
3506,10.508794931219796,0.0
3507,11.37796510026261,0.0
3508,12.594932306014337,0.0
3509,13.331979705093374,0.0
3510,13.46076608466687,0.0
3511,13.515170978508348,0.0
3512,12.701282982216856,0.0
3513,11.502638526747223,0.0
3514,9.710284291110764,0.0
3515,7.937056699005606,0.0
3516,6.3718036916070355,0.0
3517,4.844438136786646,0.0
3518,3.9381297119863063,0.0
3519,3.732322047307159,0.0
3520,4.196143148062072,0.0
3521,5.106602685362111,0.0
3522,5.931917003693257,0.0
3523,7.162754061502475,0.0
3524,7.875963034137533,0.0
3525,8.468531860946754,0.0
3526,8.498252748992662,0.0
3527,7.9501019184374675,0.0
3528,7.58287753831573,0.0
3529,7.078747376279603,0.0
3530,6.102978772356931,0.0
3531,6.0337822041434,0.0
3532,5.86458046293081,0.0
3533,6.198681004463748,0.0
3534,6.468732486566351,0.0
3535,6.766356806669297,0.0
3536,7.10190425066101,0.0
3537,6.846861747585427,0.0
3538,7.1495294426040585,0.0
3539,6.9370407258418485,0.0
3540,7.02717256453423,0.0
3541,6.78002433068683,0.0
3542,6.782863934441114,0.0
3543,6.803508471197083,0.0
3544,6.705630482889074,0.0
3545,6.7860356005921405,0.0
3546,6.54204186952271,0.0
3547,6.999938153417375,0.0
3548,6.91460325998139,0.0
3549,6.856420558301444,0.0
3550,6.684901726439164,0.0
3551,6.795302147967646,0.0
3552,6.806632612230367,0.0
3553,6.843360725885987,0.0
3554,6.758684333839084,0.0
3555,6.842981199718638,0.0
3556,6.836885312533808,0.0
3557,6.975225574649277,0.0
3558,6.857745997916888,0.0
3559,7.009649915797436,0.0
3560,6.6916903786135045,0.0
3561,6.826667366988218,0.0
3562,6.829643794240543,0.0
3563,6.759182729311663,0.0
3564,6.8315025894604,0.0
3565,6.77077822745811,0.0
3566,6.827541785744964,0.0
3567,6.716009005310925,0.0
3568,6.767767688981729,0.0
3569,6.786834854859004,0.0
3570,6.738909778911239,0.0
3571,6.751559943394215,0.0
3572,6.950305175576623,0.0
3573,6.822996772426108,0.0
3574,6.813472394319509,0.0
3575,6.93996923336721,0.0
3576,6.778949246666235,0.0
3577,6.929942972878656,0.0
3578,6.918759551235758,0.0
3579,6.867443584271637,0.0
3580,6.523722600119292,0.0
3581,6.745117400720984,0.0
3582,6.703897877315354,0.0
3583,6.698555444032057,0.0
3584,6.924172634965469,0.0
3585,7.159431444175532,0.0
3586,6.75255272827123,0.0
3587,6.809398735050477,0.0
3588,6.779892417765011,0.0
3589,6.748664025453013,0.0
3590,6.856865683147217,0.0
3591,6.664205702584431,0.0
3592,7.057361457355188,0.0
3593,6.786343043682666,0.0
3594,6.878847577412289,0.0
3595,6.905439659410076,0.0
3596,6.910701286464226,0.0
3597,6.96552146844628,0.0
3598,6.951625687411738,0.0
3599,7.178047742826146,0.0
3600,6.88223454270258,0.0
3601,7.100381626383621,0.0
3602,7.685007884075985,0.0
3603,8.037202902022797,0.0
3604,8.752682532304457,0.0
3605,9.536829715790883,0.0
3606,10.793058440909828,0.0
3607,11.417278620841715,0.0
3608,12.63444620734972,0.0
3609,13.565832429732925,0.0
3610,13.93103330464782,0.0
3611,13.832705856214021,0.0
3612,12.934455266324957,0.0
3613,11.781555745091769,0.0
3614,10.097398367753302,0.0
3615,8.077512908487677,0.0
3616,6.360908426206224,0.0
3617,4.806939878364841,0.0
3618,3.954726023584504,0.0
3619,4.00997349675813,0.0
3620,4.168365207528467,0.0
3621,5.246044136084568,0.0
3622,6.2347095707050055,0.0
3623,7.158350887490741,0.0
3624,7.9657640712839495,0.0
3625,8.472187228750872,0.0
3626,8.54831099944239,0.0
3627,8.118046629409772,0.0
3628,7.543260521558402,0.0
3629,7.006609443706282,0.0
3630,6.468074733050734,0.0
3631,6.054926420047606,0.0
3632,6.229514703186631,0.0
3633,6.371286023862961,0.0
3634,6.545999705799817,0.0
3635,6.761262054565867,0.0
3636,7.024641592890596,0.0
3637,7.120318115416221,0.0
3638,7.339828143571214,0.0
3639,7.071369926466768,0.0
3640,7.2971787417181755,0.0
3641,6.909326052978592,0.0
3642,6.87456143683701,0.0
3643,6.716014686727808,0.0
3644,6.850832543498846,0.0
3645,7.1080062439811815,0.0
3646,6.641748879147019,0.0
3647,6.848224122353281,0.0
3648,6.997694877876914,0.0
3649,7.115448246039665,0.0
3650,6.830190859938053,0.0
3651,7.105694058516391,0.0
3652,6.692183731867737,0.0
3653,6.961433848289794,0.0
3654,6.998801920729191,0.0
3655,6.887578228288626,0.0
3656,7.032465620590629,0.0
3657,6.996234783660617,0.0
3658,7.002872890100603,0.0
3659,6.797166052995628,0.0
3660,6.950699762980162,0.0
3661,6.888780919190216,0.0
3662,6.846437240533792,0.0
3663,6.948793195663614,0.0
3664,6.933710590971328,0.0
3665,6.979958256865107,0.0
3666,6.852432535565372,0.0
3667,6.9822689295208376,0.0
3668,7.090190481890102,0.0
3669,6.981517465614626,0.0
3670,6.911703344609075,0.0
3671,7.0105181806298695,0.0
3672,6.946831508752817,0.0
3673,6.890264834077102,0.0
3674,6.849344583573338,0.0
3675,6.991613223179067,0.0
3676,7.130857578772859,0.0
3677,7.010118675269824,0.0
3678,6.877625187855638,0.0
3679,6.975441028943265,0.0
3680,6.986812884163021,0.0
3681,6.919837607336244,0.0
3682,6.995453426946263,0.0
3683,6.84760962112462,0.0
3684,7.059673598340755,0.0
3685,6.858052609818798,0.0
3686,7.106519190730002,0.0
3687,6.960855127062814,0.0
3688,7.092019106381024,0.0
3689,6.818810309596799,0.0
3690,7.116200122795856,0.0
3691,7.063830791899833,0.0
3692,7.116436459666871,0.0
3693,7.087461166989886,0.0
3694,6.969381397523268,0.0
3695,6.875390901490508,0.0
3696,7.149874058801892,0.0
3697,7.040328125589869,0.0
3698,6.986505628886449,0.0
3699,7.224916328906538,0.0
3700,7.03677855037153,0.0
3701,7.2674908330417365,0.0
3702,7.343372957099733,0.0
3703,8.120867896022343,0.0
3704,8.68082485310874,0.0
3705,9.689901100769209,0.0
3706,10.668947160304123,0.0
3707,11.742414224006794,0.0
3708,12.631307425971952,0.0
3709,13.61054334991588,0.0
3710,14.015385121257708,0.0
3711,13.766221533945878,0.0
3712,13.099416931926658,0.0
3713,11.768646118075917,0.0
3714,10.125964669282423,0.0
3715,8.376082370547973,0.0
3716,6.503790293416144,0.0
3717,5.1470092335756235,0.0
3718,4.287671945577165,0.0
3719,3.9890973314786238,0.0
3720,4.416189356969895,0.0
3721,5.268560240013689,0.0
3722,6.244895202903385,0.0
3723,7.328001671481721,0.0
3724,8.187014728676049,0.0
3725,8.456734234743534,0.0
3726,8.460546907728062,0.0
3727,7.991688588597986,0.0
3728,7.594692519779951,0.0
3729,7.000630525681885,0.0
3730,6.625043623538065,0.0
3731,6.373040178852862,0.0
3732,6.2112001726121315,0.0
3733,6.362215502191538,0.0
3734,6.469284954575457,0.0
3735,7.105604884407903,0.0
3736,7.151701745545563,0.0
3737,7.22659178831344,0.0
3738,7.068834908243099,0.0
3739,7.314431231559802,0.0
3740,7.26731246764385,0.0
3741,7.019801542537957,0.0
3742,6.884077075613636,0.0
3743,6.903026651535857,0.0
3744,6.860356182028048,0.0
3745,6.945293458240688,0.0
3746,6.969193198679053,0.0
3747,7.030347667704134,0.0
3748,7.150369093245489,0.0
3749,7.170889146109036,0.0
3750,7.257124777549636,0.0
3751,7.193968342088946,0.0
3752,6.948848692548977,0.0
3753,7.247813201232186,0.0
3754,7.225284578493892,0.0
3755,7.0730155046809084,0.0
3756,7.151463887334483,0.0
3757,7.026434440560384,0.0
3758,6.966715798725735,0.0
3759,7.035753586175687,0.0
3760,7.049597075963115,0.0
3761,6.934052729338241,0.0
3762,7.132186254525799,0.0
3763,6.935688074373702,0.0
3764,6.84532961675308,0.0
3765,7.029786225251616,0.0
3766,6.949910987654755,0.0
3767,6.942715890759463,0.0
3768,6.905542042767557,0.0
3769,6.915494659409839,0.0
3770,6.902625518471757,0.0
3771,6.942198409009382,0.0
3772,6.810256809074468,0.0
3773,6.980771756939252,0.0
3774,6.961918051463041,0.0
3775,6.975490389790006,0.0
3776,7.1281959982334415,0.0
3777,7.138697513529662,0.0
3778,7.113397487595755,0.0
3779,7.105834196494243,0.0
3780,6.947378151563334,0.0
3781,6.838313336969418,0.0
3782,6.920195100396167,0.0
3783,6.996990929070245,0.0
3784,6.955633672949199,0.0
3785,7.025825280281395,0.0
3786,6.970081883667913,0.0
3787,6.947578480519018,0.0
3788,7.106803902630485,0.0
3789,7.030193153214328,0.0
3790,6.850291711820987,0.0
3791,7.2805392021358095,0.0
3792,7.185605037173102,0.0
3793,7.059129364221248,0.0
3794,7.002741311952635,0.0
3795,7.271546392371862,0.0
3796,6.994460656689045,0.0
3797,7.248282500263327,0.0
3798,7.102736380862572,0.0
3799,6.922810667947143,0.0
3800,7.264382068993258,0.0
3801,7.251417519998231,0.0
3802,7.692814667950043,0.0
3803,8.305034475941163,0.0
3804,8.687091633344139,0.0
3805,9.651948191215654,0.0
3806,10.672544521183504,0.0
3807,11.631057032285646,0.0
3808,12.646942174350707,0.0
3809,13.559347930664302,0.0
3810,13.912011516197794,0.0
3811,13.826152269225545,0.0
3812,13.198636499537962,0.0
3813,11.783351788177683,0.0
3814,10.151280765820099,0.0
3815,8.365857255046095,0.0
3816,6.633579509027426,0.0
3817,5.0851896227367215,0.0
3818,4.264617789472886,0.0
3819,4.023729001481785,0.0
3820,4.455088449470939,0.0
3821,5.212328656263302,0.0
3822,6.205847640161982,0.0
3823,7.406737502138777,0.0
3824,8.119409213569206,0.0
3825,8.611225179442908,0.0
3826,8.356945962815773,0.0
3827,8.06192877390902,0.0
3828,7.842120043555998,0.0
3829,7.074381786843525,0.0
3830,6.556715139115419,0.0
3831,6.374338181668012,0.0
3832,6.133697601253259,0.0
3833,6.424338454550277,0.0
3834,6.636939584478686,0.0
3835,6.881401432648204,0.0
3836,7.1150814238689986,0.0
3837,7.234064213057797,0.0
3838,7.477728160831435,0.0
3839,7.552335538325001,0.0
3840,7.029705300120895,0.0
3841,7.061745119423894,0.0
3842,7.042629559341191,0.0
3843,6.95160271725324,0.0
3844,6.956157062029256,0.0
3845,7.158114194434363,0.0
3846,7.219171062144192,0.0
3847,7.328731924670427,0.0
3848,7.2583736629017,0.0
3849,7.151275149830351,0.0
3850,7.125203028214063,0.0
3851,7.052248817592197,0.0
3852,7.033450447657171,0.0
3853,6.97259494730429,0.0
3854,6.889768385425746,0.0
3855,7.0569872708429955,0.0
3856,7.305435296448457,0.0
3857,7.022600403095295,0.0
3858,7.062468890054554,0.0
3859,7.1316471128404695,0.0
3860,7.011759367708982,0.0
3861,7.178194611447138,0.0
3862,7.059517361995692,0.0
3863,7.236037299733768,0.0
3864,7.071765515665602,0.0
3865,7.169139322921343,0.0
3866,6.994836026181245,0.0
3867,6.91043852019245,0.0
3868,7.031339981059017,0.0
3869,7.1968646695111715,0.0
3870,6.969860573601002,0.0
3871,7.189167338328001,0.0
3872,6.9606562782007435,0.0
3873,6.997890318586567,0.0
3874,7.05140079629548,0.0
3875,7.136111281918234,0.0
3876,7.262051589548951,0.0
3877,7.155528785139181,0.0
3878,7.190009147894868,0.0
3879,7.190970357354901,0.0
3880,7.099320161220487,0.0
3881,7.223174813994275,0.0
3882,7.231626635079297,0.0
3883,7.117731948320057,0.0
3884,7.218169653698658,0.0
3885,7.122117582849983,0.0
3886,7.055973479780146,0.0
3887,7.207333874803578,0.0
3888,7.301530134575268,0.0
3889,7.215732234893357,0.0
3890,7.212664680535592,0.0
3891,7.101388394346743,0.0
3892,7.208005464206476,0.0
3893,7.2125165602126815,0.0
3894,7.110087383918808,0.0
3895,6.962590116148369,0.0
3896,7.077051158892561,0.0
3897,7.007174684401178,0.0
3898,6.934566294609875,0.0
3899,7.097775196279056,0.0
3900,7.267050440124063,0.0
3901,7.322906429204062,0.0
3902,7.804926037223546,0.0
3903,8.06677470932864,0.0
3904,8.835124337245672,0.0
3905,9.546074924357754,0.0
3906,10.696308465862131,0.0
3907,11.742304297331682,0.0
3908,12.725425756880867,0.0
3909,13.65315470810042,0.0
3910,13.905796845130684,0.0
3911,14.011005890402343,0.0
3912,13.430745272369919,0.0
3913,11.932571599926947,0.0
3914,10.274692210957642,0.0
3915,8.652275989674552,0.0
3916,6.805900941746644,0.0
3917,5.236963793779483,0.0
3918,4.330180153177555,0.0
3919,4.290936239446314,0.0
3920,4.401930934103859,0.0
3921,5.120311861576526,0.0
3922,6.237349917790031,0.0
3923,7.430611517270453,0.0
3924,8.37212867641256,0.0
3925,8.62206104320774,0.0
3926,8.698236350363203,0.0
3927,8.282469951395925,0.0
3928,7.785613656008234,0.0
3929,7.271563062987371,0.0
3930,6.641634219537247,0.0
3931,6.434931305725012,0.0
3932,6.434463845737982,0.0
3933,6.406680693593503,0.0
3934,6.70236433830176,0.0
3935,7.060610011085966,0.0
3936,7.2002661620089174,0.0
3937,7.5135057330021,0.0
3938,7.384897314085276,0.0
3939,7.309609073312272,0.0
3940,7.243239624522844,0.0
3941,6.988382670612024,0.0
3942,7.092682153840554,0.0
3943,7.142032070466641,0.0
3944,7.119417828469402,0.0
3945,6.907911830415401,0.0
3946,7.279521213593862,0.0
3947,7.157441886956316,0.0
3948,7.173018803864856,0.0
3949,7.089374166598419,0.0
3950,7.079077912027678,0.0
3951,7.112535605233162,0.0
3952,7.257297201921661,0.0
3953,7.213098708599299,0.0
3954,7.157814689330648,0.0
3955,7.084413790020741,0.0
3956,7.246662176883131,0.0
3957,7.046748555515479,0.0
3958,7.235576892610424,0.0
3959,7.216695777779902,0.0
3960,6.870878446540839,0.0
3961,7.058486750495341,0.0
3962,7.044251140854714,0.0
3963,7.060140656100095,0.0
3964,7.320355232533946,0.0
3965,7.11696601585022,0.0
3966,7.0098899533594325,0.0
3967,7.1034578594386835,0.0
3968,7.215366624894297,0.0
3969,6.994440065212569,0.0
3970,7.157203163605612,0.0
3971,7.070221645398307,0.0
3972,7.251232026295785,0.0
3973,7.193383655116991,0.0
3974,7.227834592083147,0.0
3975,7.167856175480726,0.0
3976,7.094777616894347,0.0
3977,7.228180685024672,0.0
3978,7.342768959286672,0.0
3979,7.19103785234108,0.0
3980,7.3299744764319685,0.0
3981,7.136562060694865,0.0
3982,6.970762307127444,0.0
3983,7.300966750714477,0.0
3984,7.212686560770815,0.0
3985,7.018314063107476,0.0
3986,7.07740896713081,0.0
3987,7.271448155623016,0.0
3988,7.0934889111425985,0.0
3989,7.055743583375111,0.0
3990,7.082974841593705,0.0
3991,7.299069809192245,0.0
3992,7.181516651645178,0.0
3993,7.1210632912136935,0.0
3994,7.217396963717833,0.0
3995,7.13948574796958,0.0
3996,7.13826541460886,0.0
3997,7.275481986850459,0.0
3998,7.07313926469273,0.0
3999,7.308817012556978,0.0
4000,7.415912818196986,0.0
4001,7.595294829386281,0.0
4002,7.859959627816704,0.0
4003,8.235982580467267,0.0
4004,8.703146348182068,0.0
4005,9.77951987131327,0.0
4006,10.79931448620997,0.0
4007,11.832155481789542,0.0
4008,12.858991431293994,0.0
4009,13.749506532714424,0.0
4010,14.426578673465935,0.0
4011,14.084058825072166,0.0
4012,13.403522636295609,0.0
4013,12.057683551935249,0.0
4014,10.431913409954214,0.0
4015,8.643131303582589,0.0
4016,6.824051528399871,0.0
4017,5.2108238712084605,0.0
4018,4.421753800241532,0.0
4019,4.143454021767262,0.0
4020,4.465802339469988,0.0
4021,5.330172290651562,0.0
4022,6.391577280254709,0.0
4023,7.35665828083275,0.0
4024,8.397362228304582,0.0
4025,8.795975563786856,0.0
4026,8.632100798132978,0.0
4027,8.302749350563925,0.0
4028,8.202266469776452,0.0
4029,7.40973553706382,0.0
4030,6.8583295129465345,0.0
4031,6.52490542844935,0.0
4032,6.378964109702438,0.0
4033,6.481479169057754,0.0
4034,6.810911890078016,0.0
4035,7.060396932079717,0.0
4036,7.441716784115959,0.0
4037,7.564997448829663,0.0
4038,7.529844157636036,0.0
4039,7.594319077573186,0.0
4040,7.530497731625691,0.0
4041,7.291986406213876,0.0
4042,7.115754251217932,0.0
4043,7.013049096911211,0.0
4044,7.202754901773621,0.0
4045,7.183875890931606,0.0
4046,7.325222670499882,0.0
4047,7.2327978419576615,0.0
4048,7.381276426799078,0.0
4049,7.218191235960773,0.0
4050,7.305301722377729,0.0
4051,7.43679808565664,0.0
4052,7.282996972606142,0.0
4053,7.198001081675912,0.0
4054,7.295333597145515,0.0
4055,7.205809109160589,0.0
4056,7.347178629692977,0.0
4057,7.052955493003553,0.0
4058,7.2274078885247395,0.0
4059,7.090079070839044,0.0
4060,7.383080380645184,0.0
4061,7.2003157657541035,0.0
4062,7.373426073444048,0.0
4063,7.384357662454976,0.0
4064,7.207153432974619,0.0
4065,7.305354178904319,0.0
4066,7.128564688944843,0.0
4067,7.253161136020797,0.0
4068,7.16704045564293,0.0
4069,7.289990316678816,0.0
4070,6.993899594642194,0.0
4071,6.957476541764332,0.0
4072,7.224293382759603,0.0
4073,7.316921734078449,0.0
4074,7.184861306888544,0.0
4075,7.127384569244845,0.0
4076,7.288126676091296,0.0
4077,7.22087646601402,0.0
4078,7.378642928960033,0.0
4079,7.188103645204291,0.0
4080,7.151079660308666,0.0
4081,7.223752273518478,0.0
4082,7.204030415363753,0.0
4083,7.210037282983145,0.0
4084,7.280687210804016,0.0
4085,7.223667777221377,0.0
4086,7.328106899163088,0.0
4087,7.146722144506948,0.0
4088,7.208726409773597,0.0
4089,7.367953759833281,0.0
4090,7.364330853039096,0.0
4091,7.300068970265936,0.0
4092,7.188433924214233,0.0
4093,7.274274881520518,0.0
4094,7.346962356045464,0.0
4095,7.381265140244268,0.0
4096,7.2242057255753975,0.0
4097,7.2607783086846,0.0
4098,7.160632127603332,0.0
4099,7.393749596666817,0.0
4100,7.333573777238769,0.0
4101,7.553059666996044,0.0
4102,7.884121851098829,0.0
4103,8.40806630030362,0.0
4104,8.94986564858379,0.0
4105,9.904259462766209,0.0
4106,10.803622361089197,0.0
4107,11.804594126496468,0.0
4108,12.877408702818421,0.0
4109,13.780016573634263,0.0
4110,14.216407403510761,0.0
4111,14.10853568170516,0.0
4112,13.569387370418788,0.0
4113,12.229037568661553,0.0
4114,10.654237460891117,0.0
4115,8.700059368186595,0.0
4116,6.8111843687711735,0.0
4117,5.28478710874622,0.0
4118,4.530752154601047,0.0
4119,4.383909817246679,0.0
4120,4.563345239216227,0.0
4121,5.225780832505265,0.0
4122,6.3619952767490355,0.0
4123,7.440080487489671,0.0
4124,8.348528625945502,0.0
4125,8.604628916411585,0.0
4126,8.701532566219578,0.0
4127,8.371979843642443,0.0
4128,7.9945472785873095,0.0
4129,7.3886193309440165,0.0
4130,6.820290388682984,0.0
4131,6.5858850205783765,0.0
4132,6.361772192703491,0.0
4133,6.683898704585329,0.0
4134,6.812694364232303,0.0
4135,7.234136613045281,0.0
4136,7.435288352160285,0.0
4137,7.6736697666441565,0.0
4138,7.604083273862465,0.0
4139,7.527424525274245,0.0
4140,7.635568319928428,0.0
4141,7.2062615670184575,0.0
4142,7.295950698069514,0.0
4143,7.141789319982499,0.0
4144,7.141438775678894,0.0
4145,7.111864256214458,0.0
4146,7.284280466747571,0.0
4147,7.341735093596074,0.0
4148,7.196694566760126,0.0
4149,7.255937960531039,0.0
4150,7.349854117906209,0.0
4151,7.367313425722734,0.0
4152,7.316791928030352,0.0
4153,7.440615873123967,0.0
4154,7.227429272993838,0.0
4155,7.216335643531215,0.0
4156,7.191437820051373,0.0
4157,7.235729681689948,0.0
4158,7.212113472846955,0.0
4159,7.11404939204467,0.0
4160,7.398392775233239,0.0
4161,7.473434560888739,0.0
4162,7.391220516282013,0.0
4163,7.155505547262909,0.0
4164,7.292230861941963,0.0
4165,7.384317114673252,0.0
4166,7.1542686349490685,0.0
4167,7.409954822507105,0.0
4168,7.258123909853823,0.0
4169,7.177926953856471,0.0
4170,7.166459036790568,0.0
4171,7.452098915104665,0.0
4172,7.109912015519798,0.0
4173,7.321484685664986,0.0
4174,7.248325766813209,0.0
4175,7.42913071948003,0.0
4176,7.311452326457125,0.0
4177,7.171491336545774,0.0
4178,7.456047952691582,0.0
4179,7.237508077729521,0.0
4180,7.289727150055835,0.0
4181,7.369639959731687,0.0
4182,7.373007638800665,0.0
4183,7.266236337239871,0.0
4184,7.332080178903998,0.0
4185,7.491547062256985,0.0
4186,7.17050508080186,0.0
4187,7.395973841720036,0.0
4188,7.3278982061829385,0.0
4189,7.510354573776787,0.0
4190,7.406440858584123,0.0
4191,7.533579634192063,0.0
4192,7.131565650067799,0.0
4193,7.1257042400194575,0.0
4194,7.360601022068986,0.0
4195,7.157507835074682,0.0
4196,7.1819616293854995,0.0
4197,7.191880305068488,0.0
4198,7.47745391870475,0.0
4199,7.219572509374871,0.0
4200,7.407179631266701,0.0
4201,7.79884306534388,0.0
4202,7.888629071836468,0.0
4203,8.433413629788804,0.0
4204,9.05111403988097,0.0
4205,9.841539331258875,0.0
4206,10.688356460181316,0.0
4207,11.968810751093796,0.0
4208,12.949952252268059,0.0
4209,13.991597311397804,0.0
4210,14.132134719408599,0.0
4211,14.259791617426718,0.0
4212,13.539588178492687,0.0
4213,12.256927788680613,0.0
4214,10.677503472968642,0.0
4215,8.701496157928174,0.0
4216,7.086149755672591,0.0
4217,5.651437969459629,0.0
4218,4.682927903237665,0.0
4219,4.427506884913386,0.0
4220,4.664022678854911,0.0
4221,5.406638163763283,0.0
4222,6.334473786092355,0.0
4223,7.39679161495437,0.0
4224,8.27653773438659,0.0
4225,8.921064702220697,0.0
4226,9.057175066472409,0.0
4227,8.775420808597277,0.0
4228,8.246600080948777,0.0
4229,7.487322868970316,0.0
4230,6.966347076438524,0.0
4231,6.676725499065923,0.0
4232,6.592059509086396,0.0
4233,6.846168267600978,0.0
4234,6.838975320927211,0.0
4235,7.298918663276578,0.0
4236,7.570996334511012,0.0
4237,7.543975934173394,0.0
4238,7.741343031710037,0.0
4239,7.525667481070796,0.0
4240,7.392894397997148,0.0
4241,7.415452182712945,0.0
4242,7.400909328927524,0.0
4243,7.388206840755165,0.0
4244,7.285242219213554,0.0
4245,7.231766861294405,0.0
4246,7.116713941360523,0.0
4247,7.137094344693408,0.0
4248,7.4732468178685325,0.0
4249,7.248215677396104,0.0
4250,7.439643298154506,0.0
4251,7.199767892610416,0.0
4252,7.322397089959372,0.0
4253,7.492073798573606,0.0
4254,7.312045634980358,0.0
4255,7.076486239363582,0.0
4256,7.349910312414864,0.0
4257,7.3741168521495,0.0
4258,7.2822935710416585,0.0
4259,7.311027030217029,0.0
4260,7.40301105443481,0.0
4261,7.467109371341046,0.0
4262,7.313187141794786,0.0
4263,7.375790459660752,0.0
4264,7.244914583696397,0.0
4265,7.289658342589136,0.0
4266,7.473957970936542,0.0
4267,7.280199857334037,0.0
4268,7.308557591394195,0.0
4269,7.410895449787853,0.0
4270,7.350361540338508,0.0
4271,7.338095364695362,0.0
4272,7.367376078534796,0.0
4273,7.628936983950774,0.0
4274,7.25219825283846,0.0
4275,7.340714611437199,0.0
4276,7.422680578222195,0.0
4277,7.239344892408723,0.0
4278,7.397992692415874,0.0
4279,7.489531152536478,0.0
4280,7.435181522186248,0.0
4281,7.325779542229543,0.0
4282,7.420753549340538,0.0
4283,7.4628175790179245,0.0
4284,7.437689270041633,0.0
4285,7.385589459172765,0.0
4286,7.396926027105965,0.0
4287,7.241896312310648,0.0
4288,7.362583757213453,0.0
4289,7.543464368886401,0.0
4290,7.315206583217945,0.0
4291,7.339641207448892,0.0
4292,7.292145154167633,0.0
4293,7.385360613119267,0.0
4294,7.572631698582797,0.0
4295,7.198123195120072,0.0
4296,7.3902578148022515,0.0
4297,7.45985693695165,0.0
4298,7.488006578416151,0.0
4299,7.442987647748125,0.0
4300,7.58711099692051,0.0
4301,7.677144265411501,0.0
4302,8.186288693584904,0.0
4303,8.372742677548796,0.0
4304,9.034916792180361,0.0
4305,9.92788987646373,0.0
4306,10.7593263264941,0.0
4307,12.049782425042723,0.0
4308,13.143521025599272,0.0
4309,13.72338605007173,0.0
4310,14.328034745620913,0.0
4311,14.266894810095616,0.0
4312,13.6696316279717,0.0
4313,12.540325593982239,0.0
4314,10.87168578314197,0.0
4315,8.968321392866299,0.0
4316,7.19186711630591,0.0
4317,5.657371693709487,0.0
4318,4.650046278042682,0.0
4319,4.304561590517718,0.0
4320,4.876782969054338,0.0
4321,5.495811858748247,0.0
4322,6.404089425372962,0.0
4323,7.716441352103937,0.0
4324,8.453525976857591,0.0
4325,9.064959824664452,0.0
4326,8.895233018899752,0.0
4327,8.801731822113574,0.0
4328,8.216669910481786,0.0
4329,7.6258903182712805,0.0
4330,7.466212858480854,0.0
4331,6.886874280341723,0.0
4332,6.872670172241711,0.0
4333,6.744701080325361,0.0
4334,7.182856207199762,0.0
4335,7.539370265426246,0.0
4336,7.728489292843253,0.0
4337,7.99491291503912,0.0
4338,7.886374129702455,0.0
4339,8.014349009392912,0.0
4340,7.72828614299485,0.0
4341,7.574579680383844,0.0
4342,7.551527604245569,0.0
4343,7.349674581528127,0.0
4344,7.407257128131464,0.0
4345,7.390687218369415,0.0
4346,7.634989936732135,0.0
4347,7.448888432008027,0.0
4348,7.350818021723264,0.0
4349,7.518424721180839,0.0
4350,7.832092378885246,0.0
4351,7.422161266477649,0.0
4352,7.426561804467408,0.0
4353,7.363113145554255,0.0
4354,7.476959807554391,0.0
4355,7.606000371639954,0.0
4356,7.508865728958346,0.0
4357,7.410450880240069,0.0
4358,7.324498236062166,0.0
4359,7.469780265649137,0.0
4360,7.697395266159119,0.0
4361,7.6100309832918045,0.0
4362,7.765118557474186,0.0
4363,7.556681792091287,0.0
4364,7.417549992533305,0.0
4365,7.496493251486194,0.0
4366,7.669560629597475,0.0
4367,7.460410905916312,0.0
4368,7.544844420782658,0.0
4369,7.58577066207909,0.0
4370,7.378824385997781,0.0
4371,7.384154210980387,0.0
4372,7.63906759916991,0.0
4373,7.737783482155171,0.0
4374,7.600214996176851,0.0
4375,7.317101160545414,0.0
4376,7.546333470552122,0.0
4377,7.532693729662782,0.0
4378,7.615414817429618,0.0
4379,7.55743912814108,0.0
4380,7.580750471712039,0.0
4381,7.59270787997174,0.0
4382,7.398071105744638,0.0
4383,7.62200381671493,0.0
4384,7.707658945643139,0.0
4385,7.51557464242502,0.0
4386,7.572860898462317,0.0
4387,7.560585960851479,0.0
4388,7.596334107652965,0.0
4389,7.561406624443773,0.0
4390,7.683537749575968,0.0
4391,7.721154293826054,0.0
4392,7.638107712325276,0.0
4393,7.588720777511873,0.0
4394,7.48038218388573,0.0
4395,7.654692842398324,0.0
4396,7.525970909310955,0.0
4397,7.53216689415768,0.0
4398,7.549800210647425,0.0
4399,7.4600404603654775,0.0
4400,7.455141864668838,0.0
4401,7.70738726745648,0.0
4402,8.062752429157735,0.0
4403,8.542753965591542,0.0
4404,9.104518195056016,0.0
4405,9.90129426092873,0.0
4406,10.945905636857887,0.0
4407,12.200896265123067,0.0
4408,13.073239832015759,0.0
4409,14.057695285092565,0.0
4410,14.590178630320533,0.0
4411,14.515913728684003,0.0
4412,13.902499382660327,0.0
4413,12.561599279359207,0.0
4414,11.05499287190411,0.0
4415,9.25990902564531,0.0
