timestamp,value-0,is_anomaly
0,-1.7993625190221803,0
1,-1.3467608738877814,0
2,-0.9372454756201912,0
3,-0.33016090419745736,0
4,0.47763749041918624,0
5,1.5850363305709303,0
6,2.6238668767535063,0
7,3.5154010148041714,0
8,4.4456429565808815,0
9,4.972507567283904,0
10,4.9731730576206585,0
11,4.493108623823405,0
12,3.108978899193498,0
13,1.825169021156865,0
14,-0.3226942508088544,0
15,-2.079474217596644,0
16,-3.655504752752189,0
17,-4.526280729019304,0
18,-5.041877080873104,0
19,-4.553889433055273,0
20,-3.6318239382265833,0
21,-3.0401595151578285,0
22,-1.7414328579707268,0
23,-0.9654750798179321,0
24,-0.38567051343341885,0
25,-0.14322233623218117,0
26,-0.7285869335343513,0
27,-1.041842847368303,0
28,-1.6133715065904943,0
29,-2.3627715109063843,0
30,-2.836238348968569,0
31,-2.5590849343299222,0
32,-2.5144426412293943,0
33,-2.216794833729251,0
34,-1.8171164578206078,0
35,-1.791662117603666,0
36,-1.5407832067637681,0
37,-1.5935193087031705,0
38,-1.6027230325534416,0
39,-1.697109501214767,0
40,-1.7945147900727627,0
41,-1.84537539454175,0
42,-1.8349956861906598,0
43,-1.8394617506791031,0
44,-1.8608828991652349,0
45,-1.7538337866829294,0
46,-1.7593448981617656,0
47,-1.604543269378362,0
48,-1.5690677127780321,0
49,-1.7931047324373572,0
50,-1.7050264785717155,0
51,-1.6676312655014156,0
52,-1.6739347266291358,0
53,-1.7644692431322162,0
54,-1.6275887299302485,0
55,-1.5964643278199946,0
56,-1.8824442479166166,0
57,-1.7433251768921876,0
58,-1.7444691565658146,0
59,-1.861366191322649,0
60,-1.6609216503366377,0
61,-1.8528068117219731,0
62,-1.6697672356273108,0
63,-1.6312881161006891,0
64,-1.7017119307710602,0
65,-1.799500546316849,0
66,-1.7864179277729033,0
67,-1.6869621839777025,0
68,-1.8763385792459006,0
69,-1.6302890575517615,0
70,-1.722523011053686,0
71,-1.8758337420554458,0
72,-1.6290878172363825,0
73,-1.8597637982201487,0
74,-1.7049474336655583,0
75,-1.513504438432102,0
76,-1.6565391856752314,0
77,-1.6269258589793945,0
78,-1.9511207277607434,0
79,-1.6413391916105555,0
80,-1.6496897921064895,0
81,-1.739126894497678,0
82,-1.5625012819089166,0
83,-1.7406416148498356,0
84,-1.5825145686559143,0
85,-1.5646501926616527,0
86,-1.6337624421376198,0
87,-1.6269819215137558,0
88,-1.619437578984076,0
89,-1.5115634946897503,0
90,-1.5507735796696642,0
91,-1.4757354758578067,0
92,-1.576894507032346,0
93,-1.5017743618315182,0
94,-1.5650947574854657,0
95,-1.711410975028777,0
96,-1.5596738872241964,0
97,-1.5992684487330224,0
98,-1.6390590013436261,0
99,-1.413872206800341,0
100,-1.1236788987641093,0
101,-0.8716453761476904,0
102,-0.48611868263381586,0
103,0.2274747783578519,0
104,1.0823323892088683,0
105,1.9540317375754477,0
106,2.961663593271876,0
107,4.277527128889603,0
108,4.969831862153276,0
109,5.539628920725353,0
110,5.367265704903876,0
111,4.898682950566669,0
112,3.4427299962221394,0
113,1.9683924013336687,0
114,0.1824420455210527,0
115,-1.706025944725379,0
116,-3.2371589021279537,0
117,-4.222346232538547,0
118,-4.679555823893056,0
119,-4.2246761490886175,0
120,-3.331431516467946,0
121,-2.4863449097654007,0
122,-1.5576923701232899,0
123,-0.2602522354173935,0
124,0.09035948089833057,0
125,0.15288990260612234,0
126,-0.23552310453830128,0
127,-0.7827629246472162,0
128,-1.2619747628043134,0
129,-1.6941752467048161,0
130,-2.1146574463058982,0
131,-1.9857577818518795,0
132,-2.136899659136575,0
133,-1.7866296056648454,0
134,-1.6314408912846214,0
135,-1.2473996824608293,0
136,-1.17143644324773,0
137,-1.0852991546107624,0
138,-1.121589152243894,0
139,-1.1167153570774262,0
140,-1.3180347631284561,0
141,-1.6326815962382564,0
142,-1.4226928889194215,0
143,-1.5227403663880457,0
144,-1.3019353570357879,0
145,-1.4655957351079538,0
146,-1.4478320587755793,0
147,-1.374413953558771,0
148,-1.3845238761083218,0
149,-1.1608170186595443,0
150,-1.3100182167090257,0
151,-1.3265021738869005,0
152,-1.0726942590961452,0
153,-1.2976240474416771,0
154,-1.3016998072785961,0
155,-1.2133592181292927,0
156,-1.2943896318006178,0
157,-1.2046040946679948,0
158,-1.2046084084890794,0
159,-1.278874540292163,0
160,-1.4118227502800353,0
161,-1.3502961986655106,0
162,-1.2040517227764262,0
163,-1.2688900028829138,0
164,-1.072672246252712,0
165,-1.1177143715148248,0
166,-1.0969083560362134,0
167,-1.245895309979383,0
168,-1.309515008177866,0
169,-1.2072661513349874,0
170,-1.272825622497566,0
171,-1.2972766845712556,0
172,-1.281976297195353,0
173,-1.1790935643168095,0
174,-1.2092972342966606,0
175,-1.2253093687753382,0
176,-1.2339800372830623,0
177,-1.0408708870965417,0
178,-1.093515730895575,0
179,-1.172006710100384,0
180,-1.1428117093689705,0
181,-1.316159207992835,0
182,-1.0041182818347762,0
183,-1.0084465746222708,0
184,-1.1682542463122527,0
185,-1.0917881937334941,0
186,-1.070515053321679,0
187,-1.1837724250123716,0
188,-1.2367691901368087,0
189,-1.0490844664913166,0
190,-0.9848288873783207,0
191,-1.0395370713681455,0
192,-1.0207621509065965,0
193,-1.1186298972550892,0
194,-1.2474318558698076,0
195,-1.231083230917174,0
196,-0.7773175206885585,0
197,-1.0249177681103427,0
198,-0.8094055174968346,0
199,-1.0935504620672702,0
200,-0.892434282107641,0
201,-0.4769190718672305,0
202,-0.01021042674466921,0
203,0.6406981138590915,0
204,1.463835575239184,0
205,2.432217022965651,0
206,3.375756722080287,0
207,4.434239381119244,0
208,5.649811619955168,0
209,5.768562896857889,0
210,5.815175241573907,0
211,5.287865966870728,0
212,4.064586486547048,0
213,2.5650891837593175,0
214,0.607059380489404,0
215,-1.1216312168347786,0
216,-2.850270446593079,0
217,-3.6529797534257984,0
218,-3.8069243363238625,0
219,-3.8081888167860765,0
220,-2.755093070854921,0
221,-1.7977830302473339,0
222,-0.8693783966633059,0
223,0.17032139503387933,0
224,0.44698193340938386,0
225,0.6754459712058053,0
226,0.27293731846172276,0
227,-0.20193330863723058,0
228,-0.6871097359518716,0
229,-1.3145854006253939,0
230,-1.6844773156895358,0
231,-1.779989753956464,0
232,-1.7038277935831907,0
233,-1.1557695270057247,0
234,-1.0025458207166629,0
235,-0.6253661543410388,0
236,-0.5360870051134089,0
237,-0.5685665426633723,0
238,-0.5618179562101786,0
239,-0.6230615615302784,0
240,-0.7713556511667305,0
241,-0.9188221561397261,0
242,-0.9420180376444208,0
243,-0.8725112846018526,0
244,-0.9296602689641059,0
245,-1.0592001394755832,0
246,-0.9266320513296303,0
247,-0.7186329436159544,0
248,-0.6614219614498633,0
249,-0.9705793138232518,0
250,-0.8031357614977478,0
251,-0.7071345533738881,0
252,-0.8552874466714007,0
253,-0.7788623861322953,0
254,-0.7474350672408182,0
255,-0.7880784554618105,0
256,-0.7143181912954084,0
257,-0.7740007821634918,0
258,-0.7515369131835975,0
259,-0.8316692354112631,0
260,-0.8472010625969026,0
261,-0.8795615024629577,0
262,-0.6476150665721735,0
263,-0.7723438717349181,0
264,-0.9252729735150166,0
265,-0.7137042646428742,0
266,-0.7765151296490201,0
267,-0.8873493245138029,0
268,-0.8240641536871094,0
269,-0.8962320143221431,0
270,-0.8315334932295733,0
271,-0.8985736008911964,0
272,-0.8207148045594842,0
273,-0.8794164732915137,0
274,-0.7239472120100783,0
275,-0.8243660051014573,0
276,-0.8606091311974412,0
277,-0.6582861303158752,0
278,-0.9328038010764204,0
279,-0.7772292775132974,0
280,-0.7251885588370942,0
281,-0.7016037570872153,0
282,-0.6905039411447252,0
283,-0.5727993228681031,0
284,-0.7785078023061128,0
285,-0.5077056640353195,0
286,-0.7872288547784615,0
287,-0.7531135918752008,0
288,-0.6951351258644418,0
289,-0.7345690142313059,0
290,-0.5995898702394055,0
291,-0.6072298940342866,0
292,-0.596322658906017,0
293,-0.7433336512863309,0
294,-0.7649254277648545,0
295,-0.6922820782715667,0
296,-0.5489198250308189,0
297,-0.820804836915175,0
298,-0.6023392705105767,0
299,-0.7008977770015024,0
300,-0.388974668137432,0
301,-0.11049010454324154,0
302,0.27078039695610023,0
303,0.8897551761314615,0
304,1.8096369245923296,0
305,3.0306520659036957,0
306,3.8932294102909597,0
307,4.854174110211412,0
308,5.733983544038429,0
309,6.303609579568396,0
310,6.401744945398709,0
311,5.528855456063674,0
312,4.476105828345485,0
313,3.1140991335068096,0
314,1.4114817199956013,0
315,-0.5951504586426879,0
316,-2.3531808084081582,0
317,-3.213366596600503,0
318,-3.723462548505282,0
319,-3.353251250274738,0
320,-2.6052540198945104,0
321,-1.5724248767271163,0
322,-0.32253506341895866,0
323,0.42544565216092933,0
324,1.054396107281335,0
325,0.9632108827086052,0
326,0.6981568292236175,0
327,0.2878392338910327,0
328,-0.2846458976760622,0
329,-0.6924256566909922,0
330,-1.0438846732763238,0
331,-1.2046124607457478,0
332,-1.1528740329783438,0
333,-0.9387506318165558,0
334,-0.5544461690075673,0
335,-0.4336732431635452,0
336,-0.18608191381915912,0
337,-0.09295434517193374,0
338,-0.17762857275957017,0
339,-0.11521677249027068,0
340,-0.47652143875363595,0
341,-0.45340111923164006,0
342,-0.48533224172970063,0
343,-0.3998220081888014,0
344,-0.538160447907961,0
345,-0.42843469436033993,0
346,-0.4325630185859126,0
347,-0.45425581275939275,0
348,-0.46595557368469687,0
349,-0.43348815510157523,0
350,-0.5183729971366097,0
351,-0.49462113688145665,0
352,-0.43318400363129544,0
353,-0.44283632077948176,0
354,-0.380944293631467,0
355,-0.2260632520859257,0
356,-0.29901604347288324,0
357,-0.27517133219689166,0
358,-0.2942505104465363,0
359,-0.32319417987632076,0
360,-0.32525518290062855,0
361,-0.41310763893456515,0
362,-0.18263055707905024,0
363,-0.32262781652835043,0
364,-0.3402212783538035,0
365,-0.37847328679622166,0
366,-0.2870879790724382,0
367,-0.26795395841924724,0
368,-0.44225431802184273,0
369,-0.5112706304471316,0
370,-0.381983279303207,0
371,-0.23644777090820984,0
372,-0.42842604646736077,0
373,-0.21315225432522375,0
374,-0.439527485469922,0
375,-0.35508176549613196,0
376,-0.37038886209596344,0
377,-0.329713818323363,0
378,-0.20388095942273649,0
379,-0.2350333795660111,0
380,-0.3843671120420629,0
381,-0.29665402459191054,0
382,-0.06244198743634009,0
383,-0.2031969933425251,0
384,-0.32373356432783795,0
385,-0.14232182022180737,0
386,-0.14667218843617508,0
387,-0.20782038609780198,0
388,-0.260631170719413,0
389,-0.28906578825300017,0
390,-0.15199598906566517,0
391,-0.3896676851030363,0
392,-0.28520645966750624,0
393,-0.1623921102341973,0
394,-0.4177015259754511,0
395,-0.5115280066838492,0
396,-0.12643410554551926,0
397,-0.384398004886566,0
398,-0.2840394718250181,0
399,-0.2673173263519152,0
400,0.16320994953124712,0
401,0.2025228975608374,0
402,0.7079993410261145,0
403,1.2827075768569536,0
404,2.1122340920169878,0
405,3.0752231822246743,0
406,4.22058968510953,0
407,5.340875007670077,0
408,6.065274121393791,0
409,6.5860025332371235,0
410,6.612991464231695,0
411,6.169407216939333,0
412,4.941691829921366,0
413,3.442875221299877,0
414,1.3617332168221348,0
415,-0.47400997616085133,0
416,-1.772354714530992,0
417,-2.898501198687844,0
418,-3.040383087024319,0
419,-2.8811174930402137,0
420,-2.201623091364991,0
421,-1.122600430313594,0
422,-0.20403194544349143,0
423,0.7889001981433601,0
424,1.3972004732858954,0
425,1.445677801903355,0
426,1.2103948825248698,0
427,0.6964830703566999,0
428,-0.021345651702170954,0
429,-0.4472688945778752,0
430,-0.7393986134969649,0
431,-1.020146086031318,0
432,-0.8639027658259519,0
433,-0.6437705505791006,0
434,-0.38871212009589184,0
435,-0.16253636566959345,0
436,0.281798813971924,0
437,0.17011490597663748,0
438,0.3905650638793865,0
439,0.18414146993480052,0
440,-0.0026352509853477465,0
441,-0.09136093600617214,0
442,-0.0823299611080854,0
443,-0.10720184199296308,0
444,-0.08237055546453863,0
445,-0.0955152135135581,0
446,0.021859070182794177,0
447,0.030588838172779867,0
448,0.013843546021538755,0
449,0.010367006548346349,0
450,-0.19205263024121272,0
451,-0.06542972219958945,0
452,-0.08846344224134164,0
453,0.11868882281187522,0
454,-0.03179625377754053,0
455,0.04994863591905448,0
456,0.14625635572200354,0
457,-0.0673404540345369,0
458,-0.010740807395721204,0
459,0.0765621116174862,0
460,-0.18579843014980024,0
461,0.02911324364725583,0
462,-0.16134232126524273,0
463,-0.041480464744525214,0
464,-0.07110548634130817,0
465,-0.09501067227556634,0
466,0.1519633390874913,0
467,0.1161536231133048,0
468,-0.01991966428266225,0
469,0.11336011084233188,0
470,-0.055746488761559555,0
471,-0.17969373693124685,0
472,-0.1280015587350891,0
473,0.013468495258283385,0
474,-0.0360765098036879,0
475,0.07578162039599659,0
476,-0.08853201573782703,0
477,0.02654389956166,0
478,0.03544037054004451,0
479,-0.12101545426927016,0
480,0.08573873866872302,0
481,-0.032163832710371675,0
482,-0.03482270224901494,0
483,0.03250429466566612,0
484,-0.015947773122475806,0
485,-0.01374903000572663,0
486,0.10533056282373962,0
487,-0.13321073902491262,0
488,0.025470559792169042,0
489,0.2110385099313764,0
490,0.16191066770158852,0
491,0.09052001706553611,0
492,0.10163035911517185,0
493,0.10366894588699303,0
494,-0.07347502995840377,0
495,0.07300233993647942,0
496,0.04508536554293776,0
497,0.06537797496081013,0
498,0.2466997079705824,0
499,0.18857091825750255,0
500,0.29324336092588965,0
501,0.9341931529862237,0
502,1.0744490486846552,0
503,1.7697663169282973,0
504,2.685515828241086,0
505,3.6148578442953685,0
506,4.778090988020497,0
507,5.667255541921578,0
508,6.662264031947589,0
509,6.980232345491586,0
510,7.008102983096397,0
511,6.630025584662018,0
512,5.330065003602454,0
513,3.689458731144333,0
514,1.989454571575158,0
515,0.11719713480902871,0
516,-1.3989220863508647,0
517,-2.209774594556728,0
518,-2.662145719623759,0
519,-2.437353570206429,0
520,-1.756984995480999,0
521,-0.7126332991815587,0
522,0.20593499980105998,0
523,1.2260958289818298,0
524,1.8615683889135872,0
525,1.9147695448875584,0
526,1.5421182300433192,0
527,1.0355950443039843,0
528,0.5687591943796421,0
529,0.21436750249692177,0
530,-0.39620960796198484,0
531,-0.48673589864213024,0
532,-0.2599037804501022,0
533,-0.03270517289248037,0
534,0.2277728364780242,0
535,0.5105635442555382,0
536,0.4688322875921104,0
537,0.5760800102452459,0
538,0.580040963390309,0
539,0.4745449084978855,0
540,0.41584092019018914,0
541,0.31031888465766494,0
542,0.20815929711278397,0
543,0.2731844786486366,0
544,0.25606996178879676,0
545,0.4212929914177916,0
546,0.428720414258535,0
547,0.5479195115437193,0
548,0.3885721162995043,0
549,0.13801219822832206,0
550,0.3095263135332068,0
551,0.3572702901758148,0
552,0.2847829339379402,0
553,0.43162195829248085,0
554,0.34543682404863746,0
555,0.5350056711864427,0
556,0.5590579107407635,0
557,0.43860385780455047,0
558,0.3898364907940866,0
559,0.4552699898864024,0
560,0.31199067905001304,0
561,0.4484210956775669,0
562,0.4843754012327022,0
563,0.37904128137559995,0
564,0.46528485042727963,0
565,0.5732673157446377,0
566,0.5506608401487624,0
567,0.5361832984496766,0
568,0.587919331588006,0
569,0.5125477820461957,0
570,0.46478281937257543,0
571,0.3370006746587176,0
572,0.5330027811789934,0
573,0.49647226002472,0
574,0.5443097236331819,0
575,0.5263561278216804,0
576,0.6299304436171832,0
577,0.4794980377012778,0
578,0.5041559436530241,0
579,0.46289946823647193,0
580,0.5997899217966994,0
581,0.598025364158286,0
582,0.6727877799790857,0
583,0.5035127498394689,0
584,0.577655040657757,0
585,0.48977189224884626,0
586,0.6688977533066179,0
587,0.47734168557417667,0
588,0.6093099083434776,0
589,0.4434953410456273,0
590,0.6486436776161084,0
591,0.582773219892574,0
592,0.49859112163487684,0
593,0.634121020947035,0
594,0.7792764059797858,0
595,0.6134582410341998,0
596,0.6474670297706622,0
597,0.6341492711999073,0
598,0.792443413043898,0
599,0.6245944742457745,0
600,0.7106737340005793,0
601,1.2817766892659614,0
602,1.6545860417405631,0
603,2.2826592046373086,0
604,2.9501365235587533,0
605,4.065813821156839,0
606,5.156548674619781,0
607,6.267526207174305,0
608,6.799062350019154,0
609,7.645311463086916,0
610,7.682366181090066,0
611,6.947659843305555,0
612,5.775119023819625,0
613,4.425084832801275,0
614,2.452523226807447,0
615,0.7306656518741302,0
616,-0.964851202390874,0
617,-1.9831262060757802,0
618,-2.4655672785639653,0
619,-2.1898525573792833,0
620,-1.4096395266397592,0
621,-0.4638940613557506,0
622,0.6811240672296256,0
623,1.6130591904277742,0
624,2.176570585027576,0
625,2.386467920125922,0
626,2.200457036306548,0
627,1.6224950530849418,0
628,1.1002657724276432,0
629,0.3469054502976174,0
630,0.009529708441115337,0
631,0.13055986640264927,0
632,0.08488842039270916,0
633,0.4794976399206229,0
634,0.5925271845649647,0
635,1.0009703471442821,0
636,1.1395364010839613,0
637,1.1682501781957948,0
638,0.9686138610576764,0
639,0.9410970490711302,0
640,0.8564417636722601,0
641,0.8739146755511646,0
642,0.7165703026856823,0
643,0.8723320146320078,0
644,0.6020701954464311,0
645,0.7683270569312669,0
646,0.837870199459323,0
647,0.8944557128216801,0
648,0.8158836988317268,0
649,0.6201867059466142,0
650,0.8214146274512835,0
651,1.0060620314121178,0
652,0.8604244983538546,0
653,0.6403296972400353,0
654,0.7885401545110213,0
655,0.8327712853366672,0
656,0.7838512591749294,0
657,0.8077521794301865,0
658,0.8252553863682894,0
659,1.0049163837726391,0
660,0.7871600494692957,0
661,0.837518630193149,0
662,0.7378502786564883,0
663,0.8223260335798742,0
664,0.8791010848882763,0
665,0.9821194784123147,0
666,0.7538382259459816,0
667,0.8982721471958226,0
668,0.8722598285060505,0
669,0.7577339819014316,0
670,0.8288240094483736,0
671,1.1045845137129975,0
672,0.8983909088611554,0
673,0.9176283358912264,0
674,0.844828125778435,0
675,0.649108290259313,0
676,1.0393176976767662,0
677,0.9382756317106087,0
678,0.9078206989545955,0
679,0.9687959230508472,0
680,0.9017486690484147,0
681,0.9402251487455888,0
682,0.9408835974790409,0
683,0.8902845137438001,0
684,0.835624125865581,0
685,0.8803421826910781,0
686,1.0453218689933002,0
687,0.973027489146847,0
688,1.1402917065891178,0
689,1.0186528326794138,0
690,0.7366348979151085,0
691,0.9047697703305124,0
692,0.7795875048334778,0
693,0.963333102376871,0
694,0.8967597288233502,0
695,0.9205152161168482,0
696,0.9240303005203844,0
697,1.2123138848797177,0
698,0.7933610454013658,0
699,1.0075856137801955,0
700,1.1850085713048084,0
701,1.2613186039210502,0
702,1.9962175680637495,0
703,2.3588897030943996,0
704,3.1700306394055255,0
705,4.210136205932367,0
706,5.391157178760377,0
707,6.506693283616995,0
708,7.223597577696282,0
709,7.887291537099118,0
710,7.936619467980391,0
711,7.37404751642282,0
712,6.347423456509585,0
713,4.753884757803548,0
714,2.890642603903896,0
715,1.1290461911312397,0
716,-0.5354586544867319,0
717,-1.6614972246537159,0
718,-1.9235131319469636,0
719,-1.7362820141914483,0
720,-1.1194093756371906,0
721,-0.22202529266481386,0
722,0.946554690127812,0
723,2.1197317164631277,0
724,2.3593280635364042,0
725,2.4831381809590107,0
726,2.3771855443026184,0
727,1.71290800585567,0
728,1.2756363808706757,0
729,0.7731830529748298,0
730,0.30882519682530263,0
731,0.2641310933226465,0
732,0.4202653649869543,0
733,0.6514031251602073,0
734,0.8655021057067447,0
735,0.9828750924922061,0
736,1.1877601153701913,0
737,1.2876291149427435,0
738,1.3770534868499826,0
739,1.3533877787560347,0
740,1.0644002222086695,0
741,0.997245155229298,0
742,0.9300335504760264,0
743,1.110279937464473,0
744,1.0596205782794588,0
745,0.9543570280571386,0
746,1.2114616164095855,0
747,1.145364891638326,0
748,1.133092300741604,0
749,1.1511178616096913,0
750,1.2134220343769826,0
751,1.2665236658933068,0
752,1.0389156429126019,0
753,1.0816536734470454,0
754,1.3619204165542447,0
755,1.1705081052070916,0
756,1.099243095748089,0
757,1.0345943608477552,0
758,1.2813541138199234,0
759,1.0729127760623176,0
760,1.0442457084787324,0
761,1.1735133611560167,0
762,1.2082679520538795,0
763,1.1214818753839728,0
764,1.3626280308630523,0
765,1.1376103173901653,0
766,1.2955695888481842,0
767,1.2375572357132822,0
768,1.1117755892464474,0
769,1.1618967913192824,0
770,1.2320095545394611,0
771,1.259646728137061,0
772,1.287549007133449,0
773,1.0154144952083715,0
774,1.2127673947372928,0
775,1.1693152972228908,0
776,1.0432704601280434,0
777,1.1090371877913463,0
778,1.2122142028606875,0
779,1.2910044460277408,0
780,1.167848398945659,0
781,1.3476198578021314,0
782,1.3134924243881765,0
783,1.2910985049787294,0
784,1.231443146533375,0
785,1.2988462722845064,0
786,1.4028768350143497,0
787,1.311370497599173,0
788,1.3616502360205491,0
789,1.1350858201999265,0
790,1.370992206714272,0
791,1.2254533510203218,0
792,1.2599962753427103,0
793,1.277547716284758,0
794,1.2787801082657146,0
795,1.1632299609383117,0
796,1.3163658593437226,0
797,1.2946185273298962,0
798,1.374927625881128,0
799,1.3767507133577483,0
800,1.4851131434205955,0
801,1.7344579871475925,0
802,2.1704211358218304,0
803,2.756763050444001,0
804,3.688571746923342,0
805,4.576747859442672,0
806,5.708366966658732,0
807,6.560047030056483,0
808,7.591438493825021,0
809,8.163217356250348,0
810,8.205718817349736,0
811,7.6238793477405515,0
812,6.5745209389108155,0
813,4.962607322456963,0
814,3.3389500698577956,0
815,1.2798918004046818,0
816,-0.18674422444483385,0
817,-1.1212631849807047,0
818,-1.6751723990258576,0
819,-1.373199904060659,0
820,-0.7264149879857611,0
821,0.23719916956393639,0
822,1.4694803350057069,0
823,2.190776738475582,0
824,2.8626486014049504,0
825,2.9770867668324748,0
826,2.7452691794040103,0
827,2.3751407810869023,0
828,1.623567028858073,0
829,1.1611268622883866,0
830,0.7186892915618267,0
831,0.39421874819238656,0
832,0.7588164779060492,0
833,1.017192910769782,0
834,1.3592010109020904,0
835,1.5612497417349651,0
836,1.7237772260164603,0
837,1.766307206340087,0
838,1.7995695143101562,0
839,1.5408850995923846,0
840,1.5006496522681203,0
841,1.4299831576511104,0
842,1.4006957947325973,0
843,1.182568196723236,0
844,1.427764624540944,0
845,1.4883591441127155,0
846,1.3075820352574081,0
847,1.5745027814110126,0
848,1.4979205262589983,0
849,1.5834970524131293,0
850,1.7183183572088838,0
851,1.557312884548129,0
852,1.4463537966255682,0
853,1.4763731395529014,0
854,1.5592162455128642,0
855,1.7941415956401912,0
856,1.5448035830782878,0
857,1.5547696016124717,0
858,1.4685736000493366,0
859,1.7624063569888107,0
860,1.3273090736370008,0
861,1.5007461170544936,0
862,1.455823467903941,0
863,1.4290118914525247,0
864,1.5131119966627362,0
865,1.525188901901326,0
866,1.4547393436017981,0
867,1.778432839423368,0
868,1.396626877025443,0
869,1.62640055558501,0
870,1.3457620574810578,0
871,1.4796808787834677,0
872,1.7334851343693933,0
873,1.4481494501504397,0
874,1.563184901299364,0
875,1.513103419510205,0
876,1.5397227482342444,0
877,1.7578247223569339,0
878,1.3894399672176374,0
879,1.553857481142558,0
880,1.5928114134128077,0
881,1.5045064299806505,0
882,1.549946256700308,0
883,1.4457367262508005,0
884,1.5950840930928019,0
885,1.5193007123060907,0
886,1.6022121590803622,0
887,1.4572516851013864,0
888,1.6643051107497644,0
889,1.5521368395369162,0
890,1.7319996171965821,0
891,1.5715115728978826,0
892,1.6736822527989887,0
893,1.4167564051404775,0
894,1.601588624019491,0
895,1.56336168919101,0
896,1.635531497196704,0
897,1.5109615471964581,0
898,1.5861777344116743,0
899,1.8692917572289578,0
900,1.9270956356249878,0
901,1.9585681195040037,0
902,2.424064735867514,0
903,3.0432685141445184,0
904,3.978244147229687,0
905,4.903766711267226,0
906,5.995193180949204,0
907,7.0273081827124475,0
908,7.962491063767772,0
909,8.478602712373192,0
910,8.561748786066627,0
911,8.069707292675618,0
912,6.955991038496603,0
913,5.369783025508765,0
914,3.756275453364257,0
915,1.7883769387001054,0
916,0.13544580165805797,0
917,-0.9313249711165241,0
918,-1.4371676124929007,0
919,-0.918038092441209,0
920,-0.3249067918012838,0
921,0.37679328484384844,0
922,1.6912660069398264,0
923,2.7477122960715006,0
924,3.2982402729036524,0
925,3.3040734373317093,0
926,3.2401047965165963,0
927,2.664750471553985,0
928,2.006813318171139,0
929,1.5267801642975947,0
930,0.9566712098160399,0
931,0.9307388102842757,0
932,1.006857902953852,0
933,1.2527980351235248,0
934,1.4629115058575393,0
935,1.5659574757645007,0
936,2.0743600994377793,0
937,2.128073537451059,0
938,1.9399801710900806,0
939,2.0378184541766604,0
940,1.8023461316757106,0
941,1.5856583012591152,0
942,1.5929866463192788,0
943,1.602845363778217,0
944,1.6744647959522205,0
945,1.6062627502445332,0
946,1.6482190563513315,0
947,1.673520354437797,0
948,1.8401148256529443,0
949,1.8562684362348105,0
950,1.9290725868682463,0
951,1.875188012078385,0
952,1.9131312521845156,0
953,1.79083583241712,0
954,1.9624487899893743,0
955,1.7123343618217635,0
956,1.7349462250105308,0
957,1.7005287646611063,0
958,1.8274994235659912,0
959,1.8317394473275808,0
960,1.8045197639973931,0
961,1.6272989656915666,0
962,1.6335849516707932,0
963,1.8102871957959175,0
964,1.74567273005993,0
965,1.762832921300765,0
966,1.8130819057175487,0
967,1.7899429674446232,0
968,1.786987322639168,0
969,1.9410845090925986,0
970,2.0755837589524697,0
971,1.8337458132679318,0
972,1.9601928461875353,0
973,1.9993699328286583,0
974,1.8935284911724042,0
975,1.9447967890480118,0
976,1.9155757866058205,0
977,2.1075994907968503,0
978,2.0445650416099634,0
979,1.8906773638146666,0
980,1.8272828959033913,0
981,1.7544470835010393,0
982,1.858972869433935,0
983,1.9892254224292756,0
984,1.83009416198946,0
985,2.1945758812392984,0
986,1.9926951470695444,0
987,1.9056010314642484,0
988,1.8711609947940155,0
989,2.0409930992775993,0
990,2.082582436297633,0
991,1.916117480858923,0
992,2.106937149869985,0
993,2.02561987301051,0
994,2.081762681079007,0
995,1.9337307317590386,0
996,1.833742794431139,0
997,1.977027080724254,0
998,2.1664569696527796,0
999,1.8394027969617772,0
1000,2.173712349022493,0
1001,2.5701995912858915,0
1002,2.831299623453088,0
1003,3.629959850349578,0
1004,4.346246040566289,0
1005,5.340630827860371,0
1006,6.147032687053455,0
1007,7.569129443819529,0
1008,8.182018341749428,0
1009,8.91823592568011,0
1010,8.95956158611833,0
1011,8.363610700661885,0
1012,7.1757661452665715,0
1013,5.842335343601521,0
1014,3.999713156767858,0
1015,2.201873986696746,0
1016,0.5513712429581932,0
1017,-0.34555993693270715,0
1018,-1.0287181460856782,0
1019,-0.7395294391927694,0
1020,-0.07204154840017196,0
1021,0.8141115889675872,0
1022,2.011400388581564,0
1023,2.8689174537825046,0
1024,3.515387056307307,0
1025,3.6155103530725885,0
1026,3.45142231817647,0
1027,2.9740731083769614,0
1028,2.4470573218701297,0
1029,1.7841467021387711,0
1030,1.3775081231779411,0
1031,1.3558999125100983,0
1032,1.3425622353139517,0
1033,1.6692044263918744,0
1034,1.961737001075106,0
1035,2.2446821567785173,0
1036,2.1263465152422287,0
1037,2.4091830273949633,0
1038,2.470764301501919,0
1039,2.3736135354934618,0
1040,2.087785264147169,0
1041,2.1534714789571217,0
1042,1.8922768346451075,0
1043,1.882215456772487,0
1044,1.9972283313945678,0
1045,1.9968213425031738,0
1046,2.1543288161721184,0
1047,2.209758953486205,0
1048,2.262020730535928,0
1049,2.246928637782423,0
1050,2.086027589679637,0
1051,2.135263646976798,0
1052,2.2249736271546494,0
1053,2.1145066603953473,0
1054,2.111960748035226,0
1055,2.2186535696554848,0
1056,2.1995355783636534,0
1057,2.1361182849150966,0
1058,2.360809537988302,0
1059,2.140407102369889,0
1060,2.200897518029768,0
1061,2.3987939150786115,0
1062,2.338613646839047,0
1063,2.087447664056197,0
1064,2.121583175379922,0
1065,2.1528797633021783,0
1066,2.297088480343567,0
1067,2.314248899854074,0
1068,2.214066282864008,0
1069,2.258332554526895,0
1070,2.22155190079712,0
1071,2.2595417859477926,0
1072,2.3367828197597587,0
1073,2.1165503324407986,0
1074,2.227880521106525,0
1075,2.1897893366501604,0
1076,1.9745189833386876,0
1077,2.377248855071125,0
1078,2.193276509111401,0
1079,2.182692791070817,0
1080,2.2348801171043173,0
1081,2.3377205094441154,0
1082,2.332897516149724,0
1083,2.374536708417806,0
1084,2.227860426370812,0
1085,2.388927956442758,0
1086,2.161139068257807,0
1087,2.1775765480285094,0
1088,2.406643527423669,0
1089,2.482446731124209,0
1090,2.2207034598877313,0
1091,2.3625105153155035,0
1092,2.314565825269583,0
1093,2.5492088639254917,0
1094,2.426831424131642,0
1095,2.364669288525563,0
1096,2.3579854974537735,0
1097,2.2631163815323596,0
1098,2.459516632395543,0
1099,2.2923532228290076,0
1100,2.5811840650021036,0
1101,2.8101420981135963,0
1102,3.1895561322672465,0
1103,3.755453304646049,0
1104,4.57243263414485,0
1105,5.7364734125685315,0
1106,6.72851594450651,0
1107,7.785450645198342,0
1108,8.537691685125596,0
1109,9.187725842183761,0
1110,9.252160201767914,0
1111,8.729915335799674,0
1112,7.818703408803194,0
1113,6.23189954839707,0
1114,4.450771586491523,0
1115,2.58811472741104,0
1116,1.0422036564376258,0
1117,-0.37029476848118703,0
1118,-0.5285096843558033,0
1119,-0.4345687082865983,0
1120,0.21263666203955012,0
1121,1.163322703907061,0
1122,2.2184384513336335,0
1123,3.3833751413393043,0
1124,3.9081199510637274,0
1125,3.889714492094333,0
1126,3.8762923096820447,0
1127,3.3046554351965387,0
1128,2.7754571322331705,0
1129,2.2757179085046646,0
1130,1.7622417567301147,0
1131,1.4716108806254302,0
1132,1.6960456078669233,0
1133,2.040461397483664,0
1134,2.2698018676598095,0
1135,2.350675251036818,0
1136,2.6206234056463558,0
1137,3.0730478120218208,0
1138,2.714581963267898,0
1139,2.6200580957654322,0
1140,2.499293148943594,0
1141,2.4663148351317297,0
1142,2.338207734645349,0
1143,2.3737179899668304,0
1144,2.362044403885022,0
1145,2.335565836697132,0
1146,2.3105977575374435,0
1147,2.4828117569391788,0
1148,2.3355225957457497,0
1149,2.700629903959618,0
1150,2.5808162196610485,0
1151,2.5677949287706676,0
1152,2.3934419002193916,0
1153,2.518058765218818,0
1154,2.552091633580393,0
1155,2.5469260590325935,0
1156,2.6179211249935905,0
1157,2.5590781581670403,0
1158,2.5653061622727686,0
1159,2.446577822058191,0
1160,2.490311622180922,0
1161,2.600480983777964,0
1162,2.446151120207834,0
1163,2.466066194988364,0
1164,2.4569842780872597,0
1165,2.5399521341579554,0
1166,2.447045276645516,0
1167,2.4325283622380507,0
1168,2.681090662323248,0
1169,2.6363104473789094,0
1170,2.5079682408396744,0
1171,2.640201670983215,0
1172,2.6358529364883188,0
1173,2.569999972586092,0
1174,2.5293730225976487,0
1175,2.547152404235163,0
1176,2.536377204316248,0
1177,2.7123933112894565,0
1178,2.5473959575179403,0
1179,2.6086609798957254,0
1180,2.4992895094134204,0
1181,2.6619466648505585,0
1182,2.589757435728809,0
1183,2.4615600677690797,0
1184,2.2920975369855614,0
1185,2.559124614969851,0
1186,2.8272684165809108,0
1187,2.2743432769649186,0
1188,2.529685084306763,0
1189,2.64252457811841,0
1190,2.516397151246557,0
1191,2.5534607981057165,0
1192,2.5107275625213648,0
1193,2.5098173037640388,0
1194,2.471908499600254,0
1195,2.570694826281827,0
1196,2.666730966618151,0
1197,2.6647429158398412,0
1198,2.658698768010172,0
1199,2.648702978889765,0
1200,2.8911335822565225,0
1201,2.8683684872154815,0
1202,3.407509368951789,0
1203,4.127333235028588,0
1204,4.94075113808127,0
1205,6.003338595700611,0
1206,6.927695442462469,0
1207,8.074072061065186,0
1208,8.990906063284783,0
1209,9.465596472176529,0
1210,9.792112810015471,0
1211,9.317407504569724,0
1212,8.038573158096463,0
1213,6.562512625680384,0
1214,4.699711275908689,0
1215,3.1951232989694365,0
1216,1.16864280073902,0
1217,0.09975601625717534,0
1218,-0.30357915138241065,0
1219,-0.2818494039114703,0
1220,0.6311601045083286,0
1221,1.3806988100587076,0
1222,2.5847139114227153,0
1223,3.500850907453212,0
1224,4.024635848736774,0
1225,4.217127350282292,0
1226,4.159580681412786,0
1227,3.7398530706496382,0
1228,3.2195552079357537,0
1229,2.4719036297433052,0
1230,2.1216475563911916,0
1231,1.897342046934703,0
1232,2.0890549745643954,0
1233,2.115774672812141,0
1234,2.4966349054496506,0
1235,2.631479831268667,0
1236,2.939911496149247,0
1237,3.114396044604551,0
1238,3.02592371326112,0
1239,2.999141454021427,0
1240,2.751939523565076,0
1241,2.640852521235544,0
1242,2.7584851669530357,0
1243,2.6133504876727516,0
1244,2.4313830353329244,0
1245,2.65958046352188,0
1246,2.7618816869613605,0
1247,2.8264730072546227,0
1248,2.728670710825483,0
1249,2.6770966809587504,0
1250,2.9238241253369694,0
1251,2.922786357385739,0
1252,2.923201417726244,0
1253,2.813536298371634,0
1254,2.822311982433164,0
1255,2.81413176138642,0
1256,2.9577309249836508,0
1257,2.8291182000340642,0
1258,2.8987923190922156,0
1259,2.896499453583131,0
1260,2.872756330522729,0
1261,2.8600418326574966,0
1262,2.8426596473104464,0
1263,2.8125821860454563,0
1264,2.981127844016396,0
1265,2.7814704759035367,0
1266,2.9377084539885607,0
1267,2.693755558875983,0
1268,2.944547301886046,0
1269,2.923007003051449,0
1270,2.676133924235172,0
1271,2.7150550121854473,0
1272,2.648655952973696,0
1273,2.8620879703572677,0
1274,2.8253931733306907,0
1275,2.7831693390424834,0
1276,2.7607004343605377,0
1277,2.6422454662235206,0
1278,2.7118253407546598,0
1279,2.818088031253117,0
1280,2.750440557090218,0
1281,2.7253075882890987,0
1282,2.852921547292008,0
1283,3.0500561193630262,0
1284,2.9552225706915145,0
1285,2.842172863777865,0
1286,3.021924154913601,0
1287,2.8995287657527267,0
1288,2.8638955603885554,0
1289,2.9163343493973484,0
1290,2.894267668677975,0
1291,2.8214633463683647,0
1292,2.855713807884684,0
1293,2.878928154645734,0
1294,3.0293913766499863,0
1295,3.0110805952428437,0
1296,2.9302573115312005,0
1297,2.8866943148231163,0
1298,3.064140869208759,0
1299,2.777111075321951,0
1300,2.9836132504333137,0
1301,3.447683909220186,0
1302,3.518483815299525,0
1303,4.319439271007899,0
1304,5.096464111051947,0
1305,6.027440198867067,0
1306,7.067923108075698,0
1307,8.103472399837514,0
1308,9.310016807596732,0
1309,9.57122621420271,0
1310,9.92327701461828,0
1311,9.396901621827904,0
1312,8.341121442897013,0
1313,6.906610524305048,0
1314,5.142880438358302,0
1315,3.2122703321418946,0
1316,1.502157759263891,0
1317,0.5032967299824107,0
1318,0.12913417969322616,0
1319,0.22378691469446022,0
1320,0.7400782235670826,0
1321,1.787293133223333,0
1322,2.8627385606845848,0
1323,3.661571512441342,0
1324,4.28867588053888,0
1325,4.764885785237075,0
1326,4.331227452777103,0
1327,3.717760256772692,0
1328,3.320915184874905,0
1329,2.7511914099982087,0
1330,2.418684864821789,0
1331,2.146322707308793,0
1332,2.328815137287118,0
1333,2.3043999807432627,0
1334,2.9881226368740217,0
1335,3.287124123998866,0
1336,3.2987862657534794,0
1337,3.3904816859119498,0
1338,3.320697322456361,0
1339,3.289063928132243,0
1340,2.9344850230950965,0
1341,2.948398341100864,0
1342,3.0099442359530237,0
1343,3.0370907850064865,0
1344,2.964140155140442,0
1345,2.9040324716336827,0
1346,2.9399502371170456,0
1347,3.1917420594158994,0
1348,3.197206473200723,0
1349,3.1473192444687985,0
1350,3.113406837319577,0
1351,3.0690508940954064,0
1352,3.0834438712747896,0
1353,3.0894256152107515,0
1354,3.1524190600631745,0
1355,3.1410031440901345,0
1356,3.124318887357685,0
1357,3.0612181137111762,0
1358,3.0368571901935217,0
1359,3.156501209135051,0
1360,3.060857740624455,0
1361,3.2714471541157253,0
1362,2.9444345697116137,0
1363,2.9874083962363116,0
1364,3.071354598051845,0
1365,2.963254143710978,0
1366,3.2378949350612376,0
1367,3.137989525356276,0
1368,2.941872995161824,0
1369,3.1335538530819607,0
1370,3.1143944452050065,0
1371,3.2472475699608183,0
1372,3.0958715480028847,0
1373,3.128448728901212,0
1374,3.0591899439076227,0
1375,3.054343543106421,0
1376,3.138489138711997,0
1377,3.1499693003099463,0
1378,3.14644692907736,0
1379,3.0378634489216796,0
1380,3.1283753158651035,0
1381,2.937134837218072,0
1382,3.12328357124596,0
1383,3.112843340918394,0
1384,3.068333122626522,0
1385,3.087468718898708,0
1386,3.20238290792475,0
1387,3.0896095791031764,0
1388,3.2037815675992296,0
1389,3.000499192636203,0
1390,3.210334203090781,0
1391,3.1330625920304973,0
1392,3.143644578346549,0
1393,3.4565658263534953,0
1394,3.1978420412611888,0
1395,3.2884967020381355,0
1396,3.0512669002416577,0
1397,3.1304794811027437,0
1398,3.2443989027971836,0
1399,3.3984551597162587,0
1400,3.492251370967083,0
1401,3.5778099487300286,0
1402,4.029075693788721,0
1403,4.6462950051378815,0
1404,5.432702276582701,0
1405,6.23866111235103,0
1406,7.517141345538986,0
1407,8.568779191109313,0
1408,9.367347025732236,0
1409,10.115652948572807,0
1410,10.180694980827742,0
1411,9.639655833661639,0
1412,8.717559428439678,0
1413,7.034809990026446,0
1414,5.287019121174917,0
1415,3.5007017758754055,0
1416,2.0018026299573815,0
1417,0.5749298038548236,0
1418,0.3277085158821005,0
1419,0.3385737470516714,0
1420,0.9038857599057715,0
1421,2.1644842976710965,0
1422,3.046797907024086,0
1423,4.1281572063978595,0
1424,4.69784065335945,0
1425,4.78035872083308,0
1426,4.555690866844582,0
1427,4.115593063875816,0
1428,3.590888840892474,0
1429,3.01346609223834,0
1430,2.6591471860144607,0
1431,2.445334759796609,0
1432,2.569800426092997,0
1433,2.7269158004202354,0
1434,2.986435279627278,0
1435,3.3259446257914043,0
1436,3.518181105685871,0
1437,3.5800513299240007,0
1438,3.801518903972365,0
1439,3.5146583276942565,0
1440,3.369447922516986,0
1441,3.235209917717403,0
1442,3.4827489496221395,0
1443,3.0954177143426413,0
1444,3.294140645015178,0
1445,3.2520797161550674,0
1446,3.289210635675159,0
1447,3.3536325190132836,0
1448,3.4934795394101,0
1449,3.3683734922566457,0
1450,3.317558774070641,0
1451,3.1351147322900603,0
1452,3.3322682530897065,0
1453,3.52088462755391,0
1454,3.4076686162439125,0
1455,3.0696139681992385,0
1456,3.249795683574486,0
1457,3.2570784099428085,0
1458,3.388971666746993,0
1459,3.1522318348552294,0
1460,3.223188466352598,0
1461,3.4072686246813415,0
1462,3.124428373468182,0
1463,3.32104762289814,0
1464,3.217395625637801,0
1465,3.3271192526393945,0
1466,3.2107837595564246,0
1467,3.1937603566912496,0
1468,3.2719945694496855,0
1469,3.4042445700589368,0
1470,3.151922781715942,0
1471,3.3574340733019477,0
1472,3.4045793296217854,0
1473,3.4481064029163013,0
1474,3.301584621598361,0
1475,3.3930129203695496,0
1476,3.323915992031507,0
1477,3.6031150514600907,0
1478,3.450599015822171,0
1479,3.425092861545151,0
1480,3.4319021804885583,0
1481,3.4253899558840346,0
1482,3.433717878165313,0
1483,3.2729435591579534,0
1484,3.497833675925726,0
1485,3.3319131941658613,0
1486,3.5246966112555125,0
1487,3.53038970561237,0
1488,3.4167342916292003,0
1489,3.289708093582649,0
1490,3.3527107442043675,0
1491,3.235199967041502,0
1492,3.429963980477143,0
1493,3.359927457847192,0
1494,3.2954072840927973,0
1495,3.4383745459387973,0
1496,3.2778927235082045,0
1497,3.459604288741672,0
1498,3.545397110831951,0
1499,3.39590745757788,0
1500,3.535151437341912,0
1501,3.7423517628851237,0
1502,4.178556225839483,0
1503,4.533818438124225,0
1504,5.629582241820508,0
1505,6.576485036454878,0
1506,7.574273908107077,0
1507,8.841477394664118,0
1508,9.40468850100475,0
1509,9.844785889965614,0
1510,10.436686098233716,0
1511,9.833957454300675,0
1512,8.914793482485596,0
1513,7.573514139360114,0
1514,5.83914194668341,0
1515,3.691552047324239,0
1516,1.970511634429765,0
1517,0.9176986580977724,0
1518,0.46734672149726864,0
1519,0.4560584808643182,0
1520,1.0936990370984816,0
1521,2.1159014529681697,0
1522,3.1215306562612968,0
1523,4.216622720801931,0
1524,4.88091354871241,0
1525,5.048113398917251,0
1526,4.926173625722548,0
1527,4.401252065622751,0
1528,3.705684917668305,0
1529,3.206729128835481,0
1530,2.836939936146709,0
1531,2.631748387908355,0
1532,2.8971590793242377,0
1533,3.0825827000981256,0
1534,3.1933463150449466,0
1535,3.4979962073864415,0
1536,3.6676168235234208,0
1537,3.730863511528394,0
1538,3.6442807010589986,0
1539,3.66400100101125,0
1540,3.5649816118134496,0
1541,3.6624738564298234,0
1542,3.4311765494737916,0
1543,3.4681489682356443,0
1544,3.4338150709908413,0
1545,3.412564886057718,0
1546,3.348376330067118,0
1547,3.4613397883923995,0
1548,3.46836722407177,0
1549,3.5915520197136006,0
1550,3.7119268873257947,0
1551,3.349041968173195,0
1552,3.5110523218422367,0
1553,3.4924871588207322,0
1554,3.400194181208872,0
1555,3.585592607830259,0
1556,3.658220694675524,0
1557,3.3666246267334246,0
1558,3.639331397356299,0
1559,3.2293251198686024,0
1560,3.5511404776798665,0
1561,3.6048401280622655,0
1562,3.5204863427443494,0
1563,3.645330377763261,0
1564,3.51147522601631,0
1565,3.425266101371299,0
1566,3.422283228591575,0
1567,3.6543352201792243,0
1568,3.5201436192781723,0
1569,3.4138766169079253,0
1570,3.6523276700278675,0
1571,3.471095125949795,0
1572,3.5049504066690003,0
1573,3.5631315968486135,0
1574,3.60776425037803,0
1575,3.683269166393185,0
1576,3.700593287076536,0
1577,3.730278752237811,0
1578,3.4689113728557937,0
1579,3.552235190069269,0
1580,3.6312123837322186,0
1581,3.604248570136349,0
1582,3.773226422112947,0
1583,3.7913311959750415,0
1584,3.701937111119796,0
1585,3.7019514686459507,0
1586,3.741861923576777,0
1587,3.5946933916541957,0
1588,3.5472019742999077,0
1589,3.7118796438154296,0
1590,3.440449465858767,0
1591,3.5880205757624526,0
1592,3.6982571923961944,0
1593,3.6371591172946345,0
1594,3.662125182613958,0
1595,3.7532822934292973,0
1596,3.6641107168402085,0
1597,3.6509466650596467,0
1598,3.4734106115224064,0
1599,3.662804474644477,0
1600,3.89851236710252,0
1601,3.946564349749205,0
1602,4.609537925573835,0
1603,4.877471332232769,0
1604,5.816754768859933,0
1605,6.879111497356702,0
1606,7.7015116948722895,0
1607,8.857975998602784,0
1608,9.790791148736535,0
1609,10.455558390069998,0
1610,10.83195627525373,0
1611,10.143875668207496,0
1612,9.18000511104077,0
1613,7.740982141612232,0
1614,5.973180671240971,0
1615,4.190418147788182,0
1616,2.296303189497423,0
1617,1.2389703392927554,0
1618,0.5770468786677734,0
1619,0.7945335738040717,0
1620,1.444477379998128,0
1621,2.401697950812527,0
1622,3.5888107673538556,0
1623,4.47759518467284,0
1624,5.1402203288338,0
1625,5.275687534102465,0
1626,5.132610842301538,0
1627,4.71103109475724,0
1628,4.111196939072874,0
1629,3.541307822545812,0
1630,3.1909296588485616,0
1631,2.930646713677687,0
1632,2.927915951146359,0
1633,3.248238260496307,0
1634,3.568905916251537,0
1635,3.914825296968005,0
1636,3.9517148437860765,0
1637,4.15712740531587,0
1638,4.220927580709067,0
1639,3.9421680049968275,0
1640,3.8469031777014395,0
1641,3.7595162086099396,0
1642,3.711312077049395,0
1643,3.6924763268355356,0
1644,3.7009817334146056,0
1645,3.6229128455954855,0
1646,3.704581959034695,0
1647,3.855967662335078,0
1648,3.8580096417633336,0
1649,3.8654695594697297,0
1650,3.8606427754992754,0
1651,3.764581367853126,0
1652,3.6706369603436966,0
1653,3.9620545605889523,0
1654,3.8539224592277397,0
1655,3.8150843617655434,0
1656,3.7386181875175843,0
1657,3.7840012863769985,0
1658,3.7729236255695917,0
1659,3.5885033496080316,0
1660,3.887512854008045,0
1661,3.759065994918703,0
1662,4.0611511539220935,0
1663,3.7506575672606726,0
1664,3.825837192549075,0
1665,3.595368619972846,0
1666,3.8475182444307716,0
1667,3.854120684205709,0
1668,3.9045848015666005,0
1669,3.9487451325110925,0
1670,3.8163448271672804,0
1671,3.622068439427034,0
1672,3.6878806467803016,0
1673,3.7558469448362577,0
1674,3.9038860504204695,0
1675,3.8067209900185617,0
1676,3.7459903022362937,0
1677,3.7910922871354167,0
1678,3.854263180409222,0
1679,3.897910489140268,0
1680,3.913688058233048,0
1681,3.8808393895785636,0
1682,3.8921010293738636,0
1683,3.8489262480970656,0
1684,3.573427090128972,0
1685,3.782054051940484,0
1686,3.8539818492214764,0
1687,3.787271208721118,0
1688,3.912548472118776,0
1689,3.675560174869508,0
1690,3.70060291213325,0
1691,3.9233746364022912,0
1692,3.884739823821641,0
1693,3.5985096644413512,0
1694,4.0267492671539555,0
1695,3.980057497160256,0
1696,3.776783906591784,0
1697,3.787667405727605,0
1698,3.949922853141968,0
1699,4.047467610813328,0
1700,4.1426229101672005,0
1701,4.233152161237428,0
1702,4.793053448506603,0
1703,5.255009377909648,0
1704,6.158691750139936,0
1705,6.803538614102655,0
1706,8.170363975996318,0
1707,9.085876389043154,0
1708,9.945956029245927,0
1709,10.705045694575006,0
1710,10.893222597626261,0
1711,10.476433510410521,0
1712,9.237771769884228,0
1713,8.015175332957956,0
1714,6.148360449829169,0
1715,4.368940803585334,0
1716,2.688649820205872,0
1717,1.4321999935704688,0
1718,0.8195276919081573,0
1719,1.0001191667212286,0
1720,1.4954744522671088,0
1721,2.5320378553839546,0
1722,3.6849047629346225,0
1723,4.4710973265883265,0
1724,5.172264916865444,0
1725,5.588322210916031,0
1726,5.315860447433609,0
1727,4.9427559002404635,0
1728,4.338296177276,0
1729,3.750167697499073,0
1730,3.2647838940995753,0
1731,3.0749787360437058,0
1732,3.263490408541692,0
1733,3.448752887803461,0
1734,3.6687779619151737,0
1735,3.8857769928514108,0
1736,4.312744289401367,0
1737,4.33557585439333,0
1738,4.009494474652333,0
1739,4.175744979927822,0
1740,4.056655587629291,0
1741,3.821359943673931,0
1742,3.8890081969521137,0
1743,3.937795842225383,0
1744,3.8953797322940753,0
1745,3.962808407537896,0
1746,3.9721665356771068,0
1747,4.007756749076886,0
1748,3.9445683678655,0
1749,4.03547167692529,0
1750,4.050202829569986,0
1751,4.132975416537317,0
1752,3.9270515552144647,0
1753,3.9924211767399456,0
1754,3.8184819160698744,0
1755,4.05608387379811,0
1756,3.9049645476984547,0
1757,4.04630600852041,0
1758,4.069307172199748,0
1759,3.970554099012225,0
1760,4.03568208142013,0
1761,3.999926466558736,0
1762,3.974613517500054,0
1763,4.090780015031549,0
1764,4.233561421087138,0
1765,4.006993557746496,0
1766,4.1339335101832795,0
1767,4.106728191876487,0
1768,4.082366620405216,0
1769,4.179229157661486,0
1770,4.08340924109661,0
1771,4.039018908560014,0
1772,4.091409538640882,0
1773,4.0426173581286875,0
1774,4.1516340959607145,0
1775,4.300535792086619,0
1776,3.9480835397344625,0
1777,3.9666978713072956,0
1778,4.08044261921156,0
1779,3.993467055844154,0
1780,3.9721056776559935,0
1781,4.145569445026414,0
1782,4.083615676421614,0
1783,4.059106177384572,0
1784,4.018274858426456,0
1785,4.0727660079327395,0
1786,3.9380420796228197,0
1787,4.255051780814941,0
1788,3.9768055425701747,0
1789,4.081935098017168,0
1790,4.371889988149299,0
1791,4.093450579962159,0
1792,3.968438739864994,0
1793,4.306520906111377,0
1794,4.232771217861355,0
1795,4.01001908945249,0
1796,3.9732850626541074,0
1797,4.167327228481138,0
1798,4.077542315958285,0
1799,4.326827349875447,0
1800,4.3059787662478675,0
1801,4.4877636415195585,0
1802,4.854475117185052,0
1803,5.458576381881406,0
1804,6.114161167687833,0
1805,7.301180663951587,0
1806,8.179063563338097,0
1807,9.301770380976066,0
1808,10.276318579915104,0
1809,10.933137001589117,0
1810,10.773976978169262,0
1811,10.672663810332814,0
1812,9.739064542219678,0
1813,8.457058113630765,0
1814,6.496106336995661,0
1815,4.64586997520111,0
1816,3.0360167358235914,0
1817,1.84616139689034,0
1818,1.2459520799490797,0
1819,1.1368993663668396,0
1820,1.8566192617513013,0
1821,2.818522040427819,0
1822,3.7910687890047576,0
1823,4.937351984536465,0
1824,5.49801634355528,0
1825,5.838681561158472,0
1826,5.7574455459710565,0
1827,5.156801556148459,0
1828,4.793073424166882,0
1829,3.9961032904492506,0
1830,3.609197377134784,0
1831,3.3641639291673773,0
1832,3.4419636825994533,0
1833,3.7533683045082276,0
1834,4.044663656225904,0
1835,4.311499072754109,0
1836,4.346120933672227,0
1837,4.681619276686028,0
1838,4.595549639481071,0
1839,4.629273810386606,0
1840,4.196009348002456,0
1841,4.293333445785702,0
1842,4.17888170940122,0
1843,4.2388473836947815,0
1844,4.207265334239625,0
1845,4.34213101933826,0
1846,4.420979668038967,0
1847,4.368584107789856,0
1848,4.343074368149318,0
1849,4.148120838356161,0
1850,4.343610784771777,0
1851,4.171414127644934,0
1852,4.251478405634675,0
1853,4.143539991923587,0
1854,4.234843024971209,0
1855,4.382057065819139,0
1856,4.190176722484942,0
1857,4.247363955782994,0
1858,4.285440803180681,0
1859,4.287254445469652,0
1860,4.261888291371174,0
1861,4.381892140166429,0
1862,4.297205142373804,0
1863,4.323920749862693,0
1864,4.360915870022352,0
1865,4.306890864478723,0
1866,4.3911541340616385,0
1867,4.316395692587684,0
1868,4.331192129208805,0
1869,4.229890339453215,0
1870,4.101085984828183,0
1871,4.233195106064821,0
1872,4.335945524914996,0
1873,4.292317826711283,0
1874,4.379284854508127,0
1875,4.170725121675509,0
1876,4.197727280926313,0
1877,4.461037220794085,0
1878,4.488562680712773,0
1879,4.28719757424697,0
1880,4.25562878828194,0
1881,4.2715396891137605,0
1882,4.304871127990892,0
1883,4.412537852453249,0
1884,4.439868103547414,0
1885,4.468504249351143,0
1886,4.2297943353972345,0
1887,4.4436443661077165,0
1888,4.422890743160519,0
1889,4.546447426524756,0
1890,4.430340088086778,0
1891,4.285123471912065,0
1892,4.566713806796361,0
1893,4.313640704622679,0
1894,4.4831134412519615,0
1895,4.378101370604078,0
1896,4.303992774548594,0
1897,4.41858451979037,0
1898,4.540127453134822,0
1899,4.51641083200336,0
1900,4.631430605396131,0
1901,4.745673273331807,0
1902,5.062423736554706,0
1903,5.651915110718521,0
1904,6.384202710474478,0
1905,7.372716649917395,0
1906,8.533521234000979,0
1907,9.459826601735237,0
1908,10.606708329599472,0
1909,10.960427926311418,0
1910,11.256245115405589,0
1911,11.16997342209206,0
1912,9.99127511331942,0
1913,8.503352114039314,0
1914,6.756888151847467,0
1915,4.914090639096161,0
1916,3.2753369585497945,0
1917,2.006785307029363,0
1918,1.6188402009945855,0
1919,1.4262608913757076,0
1920,2.1085435797186927,0
1921,2.890117019379262,0
1922,4.058506133196956,0
1923,5.055730828143516,0
1924,5.6833048403132285,0
1925,5.92503713176367,0
1926,5.841050175171472,0
1927,5.522557851523377,0
1928,4.7005309630170125,0
1929,4.106752813266925,0
1930,3.774695578450763,0
1931,3.647723162415245,0
1932,3.6284153791984672,0
1933,3.7710011300782087,0
1934,4.217103853296903,0
1935,4.352341935920888,0
1936,4.670691610394547,0
1937,4.859160991209917,0
1938,4.660275346147872,0
1939,4.612772641532849,0
1940,4.421872559299573,0
1941,4.5674308874848375,0
1942,4.456879866051816,0
1943,4.431703468628113,0
1944,4.490205327067124,0
1945,4.407346854989672,0
1946,4.4987009936182405,0
1947,4.4336193800040045,0
1948,4.528485161941338,0
1949,4.530246455860198,0
1950,4.561016443130356,0
1951,4.351250895438251,0
1952,4.56609445804654,0
1953,4.584832960381007,0
1954,4.458664856573377,0
1955,4.32290291299641,0
1956,4.6419457773849215,0
1957,4.352671893073886,0
1958,4.548547279808018,0
1959,4.487505355334819,0
1960,4.638216008579705,0
1961,4.432335436040626,0
1962,4.350516138658445,0
1963,4.485026999173763,0
1964,4.518033103593777,0
1965,4.643118473447897,0
1966,4.580781147600778,0
1967,4.466275015053778,0
1968,4.60230312376271,0
1969,4.546510294047837,0
1970,4.520210030296858,0
1971,4.603679613800515,0
1972,4.527530622907501,0
1973,4.437171563257478,0
1974,4.660245186686164,0
1975,4.423061560383096,0
1976,4.650524554871087,0
1977,4.520002142807379,0
1978,4.530392967118567,0
1979,4.703049481453727,0
1980,4.5874379565282375,0
1981,4.511779072828902,0
1982,4.396694120317083,0
1983,4.608777209510671,0
1984,4.502169496695404,0
1985,4.585984993987115,0
1986,4.64072609539319,0
1987,4.611370979500299,0
1988,4.660152288290146,0
1989,4.647518547306056,0
1990,4.657304524967649,0
1991,4.591189193572626,0
1992,4.7268700692904835,0
1993,4.737560260244678,0
1994,4.575052427964603,0
1995,4.642657734431269,0
1996,4.416582058661027,0
1997,4.752099487675521,0
1998,4.698443312168228,0
1999,4.5699295151994805,0
2000,4.6712948450145895,0
2001,4.958964573878014,0
2002,5.3095786685238355,0
2003,6.008077573120903,0
2004,6.713630748919334,0
2005,7.723010498365343,0
2006,8.637926570539438,0
2007,9.72149525876043,0
2008,10.619893913784928,0
2009,11.162972237519636,0
2010,11.584830474204246,0
2011,11.332819715418413,0
2012,10.085552119258232,0
2013,8.760909894755862,0
2014,7.117980491389789,0
2015,5.163996726792023,0
2016,3.3867651285901417,0
2017,2.304824238504451,0
2018,1.4025591182444965,0
2019,1.5993846562179033,0
2020,2.3890902026243652,0
2021,3.1886887391785557,0
2022,4.355073279874375,0
2023,5.279756803641944,0
2024,6.268910599237068,0
2025,6.257663146713042,0
2026,6.138599424766527,0
2027,5.739317172080597,0
2028,5.167391825228528,0
2029,4.646534824614959,0
2030,4.24694584122043,0
2031,4.001437334391822,0
2032,3.9376767505717467,0
2033,4.1051488395926485,0
2034,4.303536693818078,0
2035,4.6948176361236,0
2036,4.922777640439576,0
2037,4.907261048771917,0
2038,4.938726709950237,0
2039,4.8814659946323795,0
2040,4.683347287867595,0
2041,4.714245333077378,0
2042,4.730991683120162,0
2043,4.543710192473271,0
2044,4.493301184361799,0
2045,4.574903529390547,0
2046,4.73715644394098,0
2047,4.537807050648836,0
2048,4.772123282989368,0
2049,4.756158606451153,0
2050,4.819309000888138,0
2051,4.60978195840895,0
2052,4.822440901446021,0
2053,4.579854730411376,0
2054,4.645703802344691,0
2055,4.4057522479418845,0
2056,4.61294936004527,0
2057,4.902464997412651,0
2058,4.763474557829662,0
2059,4.774976978386077,0
2060,4.7483094980132154,0
2061,4.691708610786868,0
2062,4.714989455533184,0
2063,4.751937977631406,0
2064,4.939422773222964,0
2065,4.732485891416493,0
2066,4.56086520263986,0
2067,4.857907264422885,0
2068,4.759928873437225,0
2069,4.673148315172417,0
2070,4.684447109520869,0
2071,4.533232153348844,0
2072,4.615494540886836,0
2073,4.724316948614712,0
2074,4.559617221550894,0
2075,4.669948698086844,0
2076,4.750898724359111,0
2077,4.876933391963498,0
2078,4.700093435112693,0
2079,4.712121631486047,0
2080,4.578166987254594,0
2081,4.625092248826464,0
2082,4.743980408579357,0
2083,4.661474662317585,0
2084,4.705999733755025,0
2085,4.722442582717107,0
2086,4.849032078253312,0
2087,4.688967215860682,0
2088,4.748896049495615,0
2089,4.9211675860394255,0
2090,4.740259425778667,0
2091,4.733400061328839,0
2092,4.851751275298224,0
2093,4.815878404388429,0
2094,4.608435957026299,0
2095,4.687682165675047,0
2096,4.819737379500498,0
2097,4.689653225269401,0
2098,4.836577584758607,0
2099,5.104664938129539,0
2100,5.218959285308845,0
2101,5.1502491922379985,0
2102,5.525129096259649,0
2103,5.9829068223440744,0
2104,6.767345241291656,0
2105,7.941391274437413,0
2106,8.816978631058445,0
2107,10.123153510127331,0
2108,10.857339569772016,0
2109,11.440429657764676,0
2110,11.722136434145089,0
2111,11.34945660138692,0
2112,10.35192528063283,0
2113,8.88449173920623,0
2114,7.4386185144193,0
2115,5.290195828942556,0
2116,3.719014966833165,0
2117,2.3249789462850066,0
2118,1.8465969806669427,0
2119,1.8445145620764403,0
2120,2.692793477714421,0
2121,3.509111168639417,0
2122,4.621934184199532,0
2123,5.587322007468812,0
2124,6.4388247095409605,0
2125,6.386012168366848,0
2126,6.22844154188389,0
2127,5.835945080930057,0
2128,5.179879109720706,0
2129,4.908783079872831,0
2130,4.301934061128123,0
2131,4.103080436073307,0
2132,4.168716074331401,0
2133,4.49844418752131,0
2134,4.618270856969486,0
2135,4.826642177337771,0
2136,5.105855191301513,0
2137,5.324289872201965,0
2138,5.196530290442847,0
2139,5.082072849413802,0
2140,4.842724518141422,0
2141,4.874527773091576,0
2142,4.809295274707962,0
2143,4.752444503327456,0
2144,4.92206514614288,0
2145,4.879920821962269,0
2146,4.913483547999546,0
2147,4.870930799444868,0
2148,4.964604283551748,0
2149,4.756128081219023,0
2150,5.1375643712651415,0
2151,4.816827062034504,0
2152,4.7816444792975155,0
2153,4.841304605986661,0
2154,4.74947789388297,0
2155,4.864512732635441,0
2156,4.936410708662787,0
2157,4.737830644982745,0
2158,4.719328930047346,0
2159,4.979348097651568,0
2160,5.052529727385597,0
2161,4.8672523330311686,0
2162,4.872446633225443,0
2163,4.899180034816655,0
2164,4.771396427852517,0
2165,4.898670470408215,0
2166,4.756305185506796,0
2167,4.983133972242461,0
2168,4.9232220011702115,0
2169,4.89184052922383,0
2170,5.096756968622624,0
2171,4.900643507761859,0
2172,5.0507330446851055,0
2173,4.989262487522152,0
2174,5.016716124362031,0
2175,5.200586943085241,0
2176,4.9596576850389,0
2177,5.018414751552979,0
2178,4.863888303559108,0
2179,5.062122090821671,0
2180,4.877699318927114,0
2181,4.982259350675808,0
2182,5.082327547988445,0
2183,4.965180726364642,0
2184,5.022825843286424,0
2185,5.171856459456634,0
2186,4.924225739209728,0
2187,4.814313479029684,0
2188,5.074363558647833,0
2189,4.886398821129914,0
2190,4.858717586649041,0
2191,5.070746878321357,0
2192,5.071543365774897,0
2193,4.799933099454306,0
2194,4.912195858518117,0
2195,4.9091504515006585,0
2196,5.014808008117778,0
2197,5.104798299782729,0
2198,5.237664034861135,0
2199,4.829660821842154,0
2200,5.082601324750348,0
2201,5.387506834006321,0
2202,5.785491267372091,0
2203,6.122748075414473,0
2204,6.994499090802181,0
2205,7.881851611286728,0
2206,9.122813499056484,0
2207,10.120618404268821,0
2208,11.079551192857174,0
2209,11.715573405015848,0
2210,11.963198645958519,0
2211,11.541706900699722,0
2212,10.745812186214827,0
2213,9.224626409735903,0
2214,7.488236658278097,0
2215,5.7377634472055155,0
2216,4.042084033890755,0
2217,2.6685777165756432,0
2218,2.1259541090430303,0
2219,1.974079482558074,0
2220,2.6406791342500857,0
2221,3.6529455288168764,0
2222,4.733972100515547,0
2223,5.525722626613135,0
2224,6.482760698873944,0
2225,6.679679591219394,0
2226,6.4947681276538045,0
2227,6.12989800568948,0
2228,5.502207500955628,0
2229,4.879825107893381,0
2230,4.539441061888177,0
2231,4.184198279679399,0
2232,4.4872727599076745,0
2233,4.521341776284807,0
2234,4.830304774219652,0
2235,5.167136863974867,0
2236,5.306487296404577,0
2237,5.174782682446599,0
2238,5.465269342849396,0
2239,5.4292803995051635,0
2240,5.103179298401671,0
2241,4.994010152150677,0
2242,4.912910263962817,0
2243,4.807096546327592,0
2244,5.007338220693193,0
2245,4.8475848270831365,0
2246,5.130486574551631,0
2247,5.127945446706627,0
2248,5.090246517806979,0
2249,5.11748130367266,0
2250,5.313048330060661,0
2251,5.202716379816215,0
2252,5.012280467985648,0
2253,5.054352630812969,0
2254,5.086421564889284,0
2255,5.008081700903617,0
2256,5.236539937500602,0
2257,5.010960031431849,0
2258,5.105008266389611,0
2259,5.187010386521178,0
2260,5.243664619738252,0
2261,5.028609396262006,0
2262,5.256561958246937,0
2263,5.167353358797261,0
2264,5.168497027771178,0
2265,5.293031700658796,0
2266,5.028068719361689,0
2267,5.082798954603518,0
2268,5.091831563177536,0
2269,5.1830151905587964,0
2270,5.320531242265238,0
2271,5.169373506250249,0
2272,5.177912118176205,0
2273,5.287836513738443,0
2274,5.109008983768445,0
2275,5.137774637740132,0
2276,5.177585965544683,0
2277,5.062462139316158,0
2278,5.098040253394612,0
2279,4.994595948614488,0
2280,5.120866078455599,0
2281,4.93202660752253,0
2282,5.082802684575265,0
2283,5.110999481413276,0
2284,5.155632040034179,0
2285,4.925472267584465,0
2286,4.902009391608046,0
2287,4.990382833796795,0
2288,5.3791744521487805,0
2289,5.145256692638207,0
2290,4.936989558368927,0
2291,5.174654450392946,0
2292,5.254264849443952,0
2293,5.161245095202422,0
2294,5.1796913700782685,0
2295,5.180682195110199,0
2296,5.157375916725799,0
2297,5.285556246668237,0
2298,4.969270647559366,0
2299,5.110045768900122,0
2300,5.296486478558141,0
2301,5.626203180597023,0
2302,5.834133229550919,0
2303,6.294257358071404,0
2304,7.284676305483882,0
2305,8.22713097216749,0
2306,9.193813150266891,0
2307,10.152298732625338,0
2308,11.241993902841639,0
2309,11.941904196925766,0
2310,12.130000458786082,0
2311,11.80225695485482,0
2312,10.902913599198632,0
2313,9.71032168465706,0
2314,7.960616352357178,0
2315,5.883054671531685,0
2316,4.180128394653192,0
2317,2.8135371435846364,0
2318,2.2332408886914736,0
2319,2.2715247644922143,0
2320,2.7878748770195405,0
2321,3.7556966605740243,0
2322,4.755955303551711,0
2323,5.963953375110981,0
2324,6.473512422421463,0
2325,6.806669583225856,0
2326,6.645248164715983,0
2327,6.273807164728006,0
2328,5.5508861205668865,0
2329,5.085728532739346,0
2330,4.594338546519197,0
2331,4.406709206110495,0
2332,4.5856173087161185,0
2333,4.851320169954512,0
2334,4.986551512892158,0
2335,5.147009333852024,0
2336,5.292011070862407,0
2337,5.724038363878247,0
2338,5.5605598528487405,0
2339,5.427055902741556,0
2340,5.3641398743356,0
2341,5.185527435596518,0
2342,5.123208380455234,0
2343,5.294855654734336,0
2344,5.129837458133867,0
2345,5.260602630802449,0
2346,5.277226225762696,0
2347,5.240737138389836,0
2348,5.476558124562219,0
2349,5.369567210402469,0
2350,5.259062861814057,0
2351,5.195871871581818,0
2352,5.314992359286037,0
2353,5.141785944224084,0
2354,5.257419472741937,0
2355,5.399309371724598,0
2356,5.170176326209819,0
2357,5.291531456622143,0
2358,5.302533875160611,0
2359,5.298383160370881,0
2360,5.249645571228632,0
2361,5.301027415783818,0
2362,5.47981386019145,0
2363,5.4681260507717555,0
2364,5.333232943867319,0
2365,5.195833962623095,0
2366,5.315383957274316,0
2367,5.413610827705632,0
2368,5.236036029023222,0
2369,5.226268794529271,0
2370,5.36605082450016,0
2371,5.438544031245125,0
2372,5.55297577174962,0
2373,5.225329272896609,0
2374,5.3374571434774865,0
2375,5.144362492235268,0
2376,5.065599349379811,0
2377,5.323350524347655,0
2378,5.277590096080376,0
2379,5.358205781772463,0
2380,5.277715746063357,0
2381,5.3257366314304955,0
2382,5.176955480436035,0
2383,5.549648091998042,0
2384,5.1523711036184805,0
2385,5.2832246845066795,0
2386,5.419904423174901,0
2387,5.262053164505318,0
2388,5.323654935748278,0
2389,5.345592112721389,0
2390,5.3933765836623095,0
2391,5.363332971175102,0
2392,5.490014492734175,0
2393,5.300871835719422,0
2394,5.481982840740132,0
2395,5.2761130240395495,0
2396,5.29165111138896,0
2397,5.46376280683882,0
2398,5.361809062896626,0
2399,5.190089022880841,0
2400,5.719536776115353,0
2401,5.658046204811228,0
2402,6.099749252350699,0
2403,6.581683380240292,0
2404,7.353116673915324,0
2405,8.200402753181093,0
2406,9.090365282225438,0
2407,10.307754832489287,0
2408,11.295622162931608,0
2409,12.00399630894106,0
2410,12.435907783438807,0
2411,12.164650552155745,0
2412,11.088911742031206,0
2413,9.770483414616432,0
2414,8.141370080028041,0
2415,6.161930701840983,0
2416,4.49554391594197,0
2417,3.0069280886247203,0
2418,2.412544569212091,0
2419,2.3613522440517247,0
2420,2.8589614774650562,0
2421,3.8164212658846575,0
2422,5.02079847960126,0
2423,5.81520885332896,0
2424,6.678426316252936,0
2425,6.892103374542156,0
2426,6.560181858039101,0
2427,6.42349668046495,0
2428,5.811193244038391,0
2429,5.381726800451172,0
2430,4.704622630140582,0
2431,4.420965600235289,0
2432,4.543711945640084,0
2433,4.812962172505776,0
2434,5.069418942390299,0
2435,5.457973402974699,0
2436,5.497632103141757,0
2437,5.71237586065709,0
2438,5.752792353370578,0
2439,5.704740939974686,0
2440,5.677972038389564,0
2441,5.322014045836855,0
2442,5.376885010161399,0
2443,5.269406195444726,0
2444,5.390812495811971,0
2445,5.399741410690398,0
2446,5.266399108113191,0
2447,5.337496588452519,0
2448,5.575847074430427,0
2449,5.564320476436068,0
2450,5.342777158171904,0
2451,5.359768380816397,0
2452,5.462463212537721,0
2453,5.525937691919705,0
2454,5.541502859672801,0
2455,5.274682383508557,0
2456,5.4821422150066645,0
2457,5.27802314018257,0
2458,5.411459523908559,0
2459,5.506915976418154,0
2460,5.3711259624241325,0
2461,5.425586309820873,0
2462,5.494896807213334,0
2463,5.308476921796266,0
2464,5.356254852480874,0
2465,5.3247528996064935,0
2466,5.456817611577439,0
2467,5.38070421269362,0
2468,5.428667652623135,0
2469,5.37978489397396,0
2470,5.516715138192105,0
2471,5.304394393945488,0
2472,5.153262294696638,0
2473,5.304975229370496,0
2474,5.483861449119897,0
2475,5.363700486470744,0
2476,5.5464146679269275,0
2477,5.5420418509852105,0
2478,5.519413136669231,0
2479,5.410531340308577,0
2480,5.297854959474354,0
2481,5.399009825643948,0
2482,5.513172166709046,0
2483,5.29031399152043,0
2484,5.523937254131881,0
2485,5.4861285173156356,0
2486,5.404274761940773,0
2487,5.394573265599206,0
2488,5.510071799943622,0
2489,5.372777860503488,0
2490,5.415760463157037,0
2491,5.308486927915566,0
2492,5.479145083351321,0
2493,5.355724794933699,0
2494,5.254478465358699,0
2495,5.4142685598126725,0
2496,5.426313478295936,0
2497,5.518542319366571,0
2498,5.608458390003016,0
2499,5.721034039013272,0
2500,5.486791491017804,0
2501,5.982264456219262,0
2502,6.2217239464624585,0
2503,6.52404806949929,0
2504,7.389720250621774,0
2505,8.51055914201858,0
2506,9.42482965793915,0
2507,10.48762839871765,0
2508,11.240162726077005,0
2509,12.17714330112339,0
2510,12.419552619031755,0
2511,12.11207405373435,0
2512,11.175478822886921,0
2513,9.711008500600414,0
2514,8.022875604511892,0
2515,6.3749589628864625,0
2516,4.52042119722456,0
2517,3.163182731484076,0
2518,2.5782414264409637,0
2519,2.6707406472440516,0
2520,3.1428238114739417,0
2521,3.836612121464186,0
2522,5.0322798049848725,0
2523,6.098503970846938,0
2524,7.031252839833566,0
2525,7.0915124704040355,0
2526,7.027727892965815,0
2527,6.499708269523418,0
2528,6.1235250874477485,0
2529,5.435449359202831,0
2530,5.049989771466792,0
2531,4.607598457910733,0
2532,4.752748920549271,0
2533,5.019614032498758,0
2534,5.284530358849784,0
2535,5.560810756197785,0
2536,5.874085392609965,0
2537,5.83153581020021,0
2538,5.845080413400727,0
2539,5.739242136444702,0
2540,5.768451733069031,0
2541,5.596077620757457,0
2542,5.413177412103069,0
2543,5.3092635353054,0
2544,5.485473390136108,0
2545,5.3157958211204654,0
2546,5.394348610821743,0
2547,5.662417538204158,0
2548,5.489422333865809,0
2549,5.688162552635869,0
2550,5.609553580077114,0
2551,5.714080087600463,0
2552,5.7584471692376775,0
2553,5.678370818317858,0
2554,5.518738057335872,0
2555,5.452759029094193,0
2556,5.576829903977077,0
2557,5.464301550232902,0
2558,5.6489049204117485,0
2559,5.507900346321753,0
2560,5.431731901645348,0
2561,5.636023826989548,0
2562,5.663261339006154,0
2563,5.505938118333209,0
2564,5.46299886472381,0
2565,5.514074119549227,0
2566,5.566127863626526,0
2567,5.616821092906324,0
2568,5.53661057734358,0
2569,5.639726056371422,0
2570,5.528482023896318,0
2571,5.64714817254004,0
2572,5.431486557252822,0
2573,5.592819369828131,0
2574,5.517096023411063,0
2575,5.562432178618991,0
2576,5.544165959593893,0
2577,5.512034071392075,0
2578,5.46206117183708,0
2579,5.712775843621563,0
2580,5.7414838260434236,0
2581,5.589388392147297,0
2582,5.776664170262632,0
2583,5.531172601454992,0
2584,5.634598364273756,0
2585,5.660350399628569,0
2586,5.629535716942979,0
2587,5.667435008992699,0
2588,5.438380311608005,0
2589,5.541332414337739,0
2590,5.5742478324305536,0
2591,5.606620534950012,0
2592,5.761206647998534,0
2593,5.623237636756288,0
2594,5.601810087312975,0
2595,5.582622747171964,0
2596,5.610654352930893,0
2597,5.774639823546027,0
2598,5.489005091713505,0
2599,5.7067070355175495,0
2600,5.786959893335563,0
2601,5.952728749081988,0
2602,6.3335869904493665,0
2603,6.739727791088435,0
2604,7.495408200591222,0
2605,8.460272457122448,0
2606,9.477200234826046,0
2607,10.538314096023182,0
2608,11.6390693094145,0
2609,12.408153467263034,0
2610,12.575053820051172,0
2611,12.289800719057295,0
2612,11.436457795660514,0
2613,10.185782621534575,0
2614,8.510679523482608,0
2615,6.721298588261588,0
2616,4.654659783453953,0
2617,3.624499213660042,0
2618,2.7984253351820074,0
2619,2.7891150220774517,0
2620,3.328077665346694,0
2621,4.114086333699008,0
2622,5.248670754437271,0
2623,6.22768433728677,0
2624,6.9676182829492825,0
2625,7.325148069561579,0
2626,6.874186411458971,0
2627,6.9029539943387945,0
2628,6.1826192498056,0
2629,5.644541818925319,0
2630,5.184900892009286,0
2631,5.013855123332187,0
2632,4.767950329387859,0
2633,5.214574787685374,0
2634,5.382484921276896,0
2635,5.691514846128664,0
2636,5.783072834511318,0
2637,5.91723337506553,0
2638,5.950985469350514,0
2639,5.982698409565817,0
2640,5.757989689401369,0
2641,5.7566821622407955,0
2642,5.634595373248738,0
2643,5.530604106767737,0
2644,5.475774270799472,0
2645,5.6119672949640815,0
2646,5.839866476519798,0
2647,5.828970069647839,0
2648,5.574769124266339,0
2649,5.730852856031615,0
2650,5.851047052363051,0
2651,5.76926768800364,0
2652,5.628649461645031,0
2653,5.793913530692076,0
2654,5.750615501390161,0
2655,5.881418174527371,0
2656,5.594966323497548,0
2657,5.59212770605631,0
2658,5.5529355409317915,0
2659,5.7304012028218905,0
2660,5.69188791640048,0
2661,5.808519391361589,0
2662,5.618694236039466,0
2663,5.828694852826418,0
2664,5.746241033524136,0
2665,5.751062221898339,0
2666,5.542155800818928,0
2667,5.809534445357013,0
2668,5.8214326032927675,0
2669,5.853780985216063,0
2670,5.711555434621598,0
2671,5.590464363254103,0
2672,5.81606272624458,0
2673,5.873400909007877,0
2674,5.484944385293562,0
2675,5.670319715862397,0
2676,5.643590565016026,0
2677,5.729456193320503,0
2678,5.660732667742721,0
2679,5.936596280140804,0
2680,5.876509567207246,0
2681,5.808697903286741,0
2682,5.763989558776381,0
2683,5.773575964417859,0
2684,5.660274246358075,0
2685,5.893421794016876,0
2686,5.866097233078208,0
2687,5.917392241592233,0
2688,5.831585424303757,0
2689,5.695692456621721,0
2690,5.8612863908208475,0
2691,5.734064925287365,0
2692,5.708070402654246,0
2693,5.859621884544444,0
2694,5.8100333878961745,0
2695,5.8367830333001836,0
2696,5.778875086059512,0
2697,5.568732160710571,0
2698,5.776612967381496,0
2699,5.893509852001571,0
2700,5.906938216631758,0
2701,6.346493499260133,0
2702,6.432169750874709,0
2703,6.956114946604953,0
2704,7.864969033909475,0
2705,8.579111765787886,0
2706,9.607009437912343,0
2707,10.720267224720676,0
2708,11.809490251617062,0
2709,12.447222812936795,0
2710,12.814902680398422,0
2711,12.385652053603476,0
2712,11.675491165997897,0
2713,10.264072786650313,0
2714,8.604284953606944,0
2715,6.614148918171742,0
2716,5.009939860525901,0
2717,3.5037476937129997,0
2718,2.9320683307010174,0
2719,2.8888242170392093,0
2720,3.271059615301341,0
2721,4.100019499962129,0
2722,5.210134918110899,0
2723,6.304073248845968,0
2724,7.04991971635525,0
2725,7.420016444309461,0
2726,7.217814297771854,0
2727,7.029752764618825,0
2728,6.193582602511448,0
2729,5.799763021413765,0
2730,5.437524118714185,0
2731,5.139896102074282,0
2732,5.094587208996302,0
2733,5.304406496488921,0
2734,5.60622131540515,0
2735,5.902529924176527,0
2736,6.154523643166567,0
2737,6.1392654450167194,0
2738,6.189170674241006,0
2739,6.091392615625968,0
2740,6.131407908822917,0
2741,5.789011390791269,0
2742,5.723387709259625,0
2743,5.66035740888923,0
2744,5.821047447720521,0
2745,5.769368938160404,0
2746,5.953437147340527,0
2747,5.9183524499895075,0
2748,5.887925940214349,0
2749,5.9086478425270546,0
2750,5.928387565625067,0
2751,5.808565835786485,0
2752,5.888122558859097,0
2753,5.762785611500812,0
2754,5.75789641138575,0
2755,5.627700853624119,0
2756,5.7120396260162405,0
2757,5.830000691901692,0
2758,5.910128798726698,0
2759,5.9596250842774,0
2760,5.813683648189073,0
2761,5.982553919466684,0
2762,5.848738929720823,0
2763,5.785536519443091,0
2764,5.918163178909768,0
2765,5.979936918879652,0
2766,5.907121274995089,0
2767,5.8729911103433485,0
2768,5.859905601383006,0
2769,5.768923575545448,0
2770,5.819963019103997,0
2771,6.06599203319053,0
2772,5.950732069206967,0
2773,5.748085164138765,0
2774,5.763427333314592,0
2775,5.8219880390225525,0
2776,5.965764416237319,0
2777,5.811407297708863,0
2778,6.112623677643147,0
2779,5.772121508565695,0
2780,5.853018191714918,0
2781,5.995875170161528,0
2782,5.886393656370467,0
2783,6.026049315572333,0
2784,5.871526894977768,0
2785,5.966561030004866,0
2786,5.927005575572325,0
2787,5.982708181383826,0
2788,5.960210951110155,0
2789,5.888836085015128,0
2790,5.90252773244242,0
2791,5.918028351259315,0
2792,6.074943997432376,0
2793,6.085074071979996,0
2794,6.119130729568679,0
2795,5.951498781589704,0
2796,6.128668592698634,0
2797,5.825080127588194,0
2798,5.9962262668365645,0
2799,6.1179701615341155,0
2800,6.145358181834778,0
2801,6.357877169169918,0
2802,6.710786402014657,0
2803,6.953226661850192,0
2804,8.038405303843291,0
2805,8.79329467675806,0
2806,9.875185770053362,0
2807,10.960034977295532,0
2808,11.957338531704838,0
2809,12.526420642261602,0
2810,12.935146982921253,0
2811,12.801830601335737,0
2812,11.99658756294999,0
2813,10.471971398630142,0
2814,8.880851339965101,0
2815,6.732992007267043,0
2816,5.080738791277278,0
2817,3.728693086791814,0
2818,3.057333736755695,0
2819,2.9499414342689927,0
2820,3.4049646761764456,0
2821,4.257730109478386,0
2822,5.381404463350838,0
2823,6.436178384520996,0
2824,7.1383702061577905,0
2825,7.53226744853845,0
2826,7.309135391550132,0
2827,6.951235428251048,0
2828,6.502053542709433,0
2829,5.9909245291521165,0
2830,5.439866793146445,0
2831,5.314862395279129,0
2832,5.334840924628355,0
2833,5.377530251096799,0
2834,5.8278325741965995,0
2835,6.079359598045791,0
2836,6.256562152845936,0
2837,6.270052287537085,0
2838,6.472140009312499,0
2839,6.285788587209343,0
2840,6.08435216144909,0
2841,5.968923662483404,0
2842,5.939427178013467,0
2843,5.688062595227501,0
2844,6.023622017835005,0
2845,5.97386073833526,0
2846,6.019876454652319,0
2847,5.781245852751615,0
2848,6.04226147976738,0
2849,6.1337018098865475,0
2850,6.072935540375727,0
2851,6.092982634196946,0
2852,6.0337498099221065,0
2853,5.896189833064625,0
2854,6.139451953904181,0
2855,6.082284118429021,0
2856,5.964861503396499,0
2857,6.334059300214948,0
2858,6.006251089092189,0
2859,6.070940251282857,0
2860,6.138399404486457,0
2861,5.892063186367934,0
2862,6.012946871904029,0
2863,6.178251238916053,0
2864,6.239544556264769,0
2865,6.096333561811014,0
2866,6.108778758203439,0
2867,6.114640733461079,0
2868,6.310074163548646,0
2869,5.999105230892116,0
2870,6.3051228942025,0
2871,6.16469069568707,0
2872,6.034305117630428,0
2873,6.0972818460512075,0
2874,5.959001959033361,0
2875,5.90439295302838,0
2876,6.18357522635576,0
2877,6.026902102242156,0
2878,6.144318605470367,0
2879,6.037794852349362,0
2880,5.938721990501796,0
2881,6.067225218310076,0
2882,6.035237645014292,0
2883,5.983198629947386,0
2884,6.022469148967667,0
2885,6.37029128349525,0
2886,5.834881639654306,0
2887,6.261373600024264,0
2888,6.0557369459074915,0
2889,6.003137885105546,0
2890,6.0529175395649215,0
2891,6.060413907619525,0
2892,6.077196161093196,0
2893,6.0387123821631326,0
2894,6.052474879146412,0
2895,5.876715997246989,0
2896,6.181668912020246,0
2897,5.903888596631787,0
2898,6.2825450752236565,0
2899,6.1081358247674835,0
2900,6.442914381227221,0
2901,6.53392265340967,0
2902,6.807043780308155,0
2903,7.395935854348569,0
2904,8.048366996875497,0
2905,8.988699763963982,0
2906,10.084756578539642,0
2907,11.031116546669317,0
2908,12.058297414170656,0
2909,12.704895571958918,0
2910,12.867255387827388,0
2911,12.653270671000353,0
2912,11.801771358571997,0
2913,10.596286017646738,0
2914,9.124618879913948,0
2915,6.990021670520385,0
2916,5.31060866618639,0
2917,3.909989856203525,0
2918,3.272206692348186,0
2919,3.2217270579144865,0
2920,3.6224056386015873,0
2921,4.666157273293626,0
2922,5.6160077462850335,0
2923,6.659575511471267,0
2924,7.30770804471793,0
2925,7.661555339139569,0
2926,7.423220882540437,0
2927,7.171617387185199,0
2928,6.761842092786121,0
2929,6.102788474404611,0
2930,5.695092253941997,0
2931,5.377122536835667,0
2932,5.413603478960267,0
2933,5.528457244265837,0
2934,5.831397466179162,0
2935,6.139979404943388,0
2936,6.342575630208386,0
2937,6.289221256248387,0
2938,6.273330502252968,0
2939,6.5313231982177715,0
2940,6.084483968275336,0
2941,6.119725376264641,0
2942,6.070406035425003,0
2943,6.1610387306979035,0
2944,5.982596053223281,0
2945,5.890985509755801,0
2946,6.1381926942055,0
2947,6.078535317101168,0
2948,6.122072182299346,0
2949,5.896112241242366,0
2950,6.127326511485683,0
2951,6.228167651367541,0
2952,6.327048036764295,0
2953,6.061917839272813,0
2954,6.0794800090794805,0
2955,6.171317732826635,0
2956,6.039829959388882,0
2957,6.320515767487539,0
2958,6.011634744723377,0
2959,6.282986109729572,0
2960,6.236207544606191,0
2961,6.144730410253002,0
2962,6.212589579531415,0
2963,6.202013138820023,0
2964,6.25480792227941,0
2965,6.145593945597681,0
2966,6.083741478075056,0
2967,6.068691135498288,0
2968,6.172481615513811,0
2969,6.17300923783263,0
2970,6.260301255029917,0
2971,6.196413179031885,0
2972,6.104720126121051,0
2973,6.176177943285065,0
2974,6.218317152621232,0
2975,6.303252362817854,0
2976,6.219020338617267,0
2977,6.1261856371677075,0
2978,6.175041223463353,0
2979,6.193130197567922,0
2980,6.1906005891361255,0
2981,6.223922545612871,0
2982,6.235919176331156,0
2983,6.104892307793289,0
2984,6.193059646566248,0
2985,6.253513283115031,0
2986,6.228447779460578,0
2987,6.1309517019190505,0
2988,6.290025784235812,0
2989,6.14506835735267,0
2990,6.2407571017343075,0
2991,6.465327127067669,0
2992,6.265454878017995,0
2993,6.2416317398817105,0
2994,6.206578463245766,0
2995,6.1187129611849915,0
2996,6.060159998031403,0
2997,5.884915020194715,0
2998,6.184393476785355,0
2999,6.235515120075231,0
3000,6.2841921506468035,0
3001,6.385601179845474,0
3002,6.868662585943091,0
3003,7.272817692363496,0
3004,7.993682219994858,0
3005,9.001976249463036,0
3006,10.063155945067848,0
3007,11.165126384912831,0
3008,12.08777719958131,0
3009,12.675627674435688,0
3010,13.149116653126196,0
3011,12.842944325170631,0
3012,12.06118412036119,0
3013,10.814014369686117,0
3014,9.071495261621212,0
3015,7.17855706939362,0
3016,5.39877944740322,0
3017,3.9308321125942554,0
3018,3.2986677490480707,0
3019,3.2269258276486075,0
3020,3.6088109081121225,0
3021,4.459214375923408,0
3022,5.803572762520686,0
3023,6.754338315599197,0
3024,7.630727187801281,0
3025,7.741043689738237,0
3026,7.786150290899249,0
3027,7.413334715282969,0
3028,6.9366217346278916,0
3029,6.275909959149268,0
3030,5.924948504147691,0
3031,5.5024253057669075,0
3032,5.421394218310288,0
3033,5.606944260232854,0
3034,5.95621610813877,0
3035,6.149060984099312,0
3036,6.444957627764126,0
3037,6.5063248216890655,0
3038,6.624969786965297,0
3039,6.588227968212124,0
3040,6.498348482514885,0
3041,6.237607169837188,0
3042,5.983061044006205,0
3043,6.228456755685994,0
3044,6.09516563606289,0
3045,6.094160999722873,0
3046,6.066930856920709,0
3047,6.111732293055127,0
3048,6.296784650605317,0
3049,6.513349581575381,0
3050,6.338801942264554,0
3051,6.253430498624721,0
3052,6.272866741676102,0
3053,6.226208594968736,0
3054,6.358978624305829,0
3055,6.475359558595047,0
3056,6.523122282274645,0
3057,6.241599751291982,0
3058,6.362020423248854,0
3059,6.189099549193984,0
3060,6.35331817535959,0
3061,6.295123817922041,0
3062,6.35891983319451,0
3063,6.381095694304435,0
3064,6.368223632590207,0
3065,6.32344270217625,0
3066,6.418348792739627,0
3067,6.30418499754289,0
3068,6.490141125884545,0
3069,6.344790950291581,0
3070,6.164855799857888,0
3071,6.430048768979036,0
3072,6.403184878043801,0
3073,6.370540710331152,0
3074,6.1975144284836485,0
3075,6.281358417159424,0
3076,6.31937818048949,0
3077,6.277385462745364,0
3078,6.25133698028796,0
3079,6.375819182260827,0
3080,6.3219038439933595,0
3081,6.560748259338302,0
3082,6.275679076243013,0
3083,6.14378476691148,0
3084,6.307374830553638,0
3085,6.425435359943978,0
3086,6.275828712419692,0
3087,6.2849588994914045,0
3088,6.483777707489663,0
3089,6.397577861995708,0
3090,6.611216723867041,0
3091,6.247990871469227,0
3092,6.282116469940536,0
3093,6.430904824908653,0
3094,6.443158471654059,0
3095,6.421575466556224,0
3096,6.538325572600142,0
3097,6.335798193477349,0
3098,6.353709581805437,0
3099,6.430822837866459,0
3100,6.624431466298515,0
3101,6.688389880747612,0
3102,6.976577028590861,0
3103,7.563958933580592,0
3104,8.173760254240992,0
3105,9.143073516043696,0
3106,10.200794352967264,0
3107,11.244450276234563,0
3108,12.18557590141683,0
3109,13.034019776836121,0
3110,13.350851180923286,0
3111,13.046883686350352,0
3112,12.360126567550186,0
3113,10.914952670771402,0
3114,9.355560220277054,0
3115,7.601686578364385,0
3116,5.521489705415558,0
3117,4.174730098747803,0
3118,3.388208345097232,0
3119,3.3119563476198555,0
3120,3.8384882162290714,0
3121,4.638662901411781,0
3122,5.836135501990493,0
3123,6.90147348757578,0
3124,7.529919595386792,0
3125,7.912451549688733,0
3126,7.697072317340327,0
3127,7.581453781568131,0
3128,7.02994353970998,0
3129,6.52546152359,0
3130,5.835391712467798,0
3131,5.762277374429658,0
3132,5.496907643243145,0
3133,5.872550232299833,0
3134,6.098210294803513,0
3135,6.3280222974388165,0
3136,6.509688270711998,0
3137,6.7403119650523,0
3138,6.732039816427065,0
3139,6.740611017912849,0
3140,6.583478247105683,0
3141,6.375458576483996,0
3142,6.613082564396372,0
3143,6.317758927374739,0
3144,6.438215237621954,0
3145,6.520164524286386,0
3146,6.440767939240125,0
3147,6.587595557442954,0
3148,6.458779664192674,0
3149,6.674010645921636,0
3150,6.571082859378482,0
3151,6.493637043653196,0
3152,6.418269273320258,0
3153,6.453234792488481,0
3154,6.578473779571437,0
3155,6.512737139588107,0
3156,6.487092191658146,0
3157,6.488631782187678,0
3158,6.47872110084303,0
3159,6.493716756370687,0
3160,6.614454778360914,0
3161,6.636313195616077,0
3162,6.529974220874281,0
3163,6.579292514419453,0
3164,6.489170499092452,0
3165,6.578577318925188,0
3166,6.537865025497871,0
3167,6.647943498698808,0
3168,6.436051092087653,0
3169,6.478440907328286,0
3170,6.475170086365658,0
3171,6.496971239128136,0
3172,6.527944582853565,0
3173,6.343916762548287,0
3174,6.5515222852796455,0
3175,6.367743718121169,0
3176,6.526545837881294,0
3177,6.321040296257515,0
3178,6.546805977774582,0
3179,6.6956729980047935,0
3180,6.26082153691439,0
3181,6.56273150066982,0
3182,6.461051168280265,0
3183,6.498865921736562,0
3184,6.286733222819046,0
3185,6.410241303632889,0
3186,6.547134146020415,0
3187,6.433498357561435,0
3188,6.509364340292591,0
3189,6.4921803575067925,0
3190,6.491458419026529,0
3191,6.707327598890299,0
3192,6.489844928805037,0
3193,6.508399734012953,0
3194,6.5585702468767275,0
3195,6.524065170416183,0
3196,6.440666785879437,0
3197,6.44855607252172,0
3198,6.533822373171963,0
3199,6.504861377423446,0
3200,6.65860250874385,0
3201,6.658269412393334,0
3202,7.248767452799188,0
3203,7.7538878961997,0
3204,8.355511215142911,0
3205,9.259741221117725,0
3206,10.342084284480142,0
3207,11.419563633033702,0
3208,12.428821288827486,0
3209,13.119907102796738,0
3210,13.66402603198523,0
3211,13.276301759968934,0
3212,12.465147947079494,0
3213,11.140989920359857,0
3214,9.474107798193959,0
3215,7.684928779609432,0
3216,5.872677034361519,0
3217,4.421736541550166,0
3218,3.7747885938711967,0
3219,3.4501359535288283,0
3220,4.068997738918453,0
3221,4.647950246241639,0
3222,5.904623608518779,0
3223,6.786440319981466,0
3224,7.59521181905398,0
3225,8.148420583838378,0
3226,8.06087303111038,0
3227,7.537289690879439,0
3228,7.33845995187228,0
3229,6.434434974485167,0
3230,6.021275268109822,0
3231,5.604006105492318,0
3232,5.784392330614151,0
3233,5.910968125437005,0
3234,6.08775043805694,0
3235,6.3555953250154005,0
3236,6.68938164890144,0
3237,6.760788612148068,0
3238,6.881300943492394,0
3239,6.992492381378389,0
3240,6.694110454798618,0
3241,6.552220055566861,0
3242,6.545908778426358,0
3243,6.377882417674538,0
3244,6.433237216791434,0
3245,6.450640210248895,0
3246,6.40990769662231,0
3247,6.476539875985493,0
3248,6.684545845021549,0
3249,6.419230667092978,0
3250,6.422677418572718,0
3251,6.744379014159661,0
3252,6.514835051020122,0
3253,6.486663925464536,0
3254,6.412765970690433,0
3255,6.637469618946554,0
3256,6.445569998065156,0
3257,6.659908109493419,0
3258,6.632192991797063,0
3259,6.625956004675845,0
3260,6.610813153184674,0
3261,6.701190962549387,0
3262,6.623647672547803,0
3263,6.7025114376330235,0
3264,6.389044817790133,0
3265,6.594040990129529,0
3266,6.639527974136052,0
3267,6.445638908392186,0
3268,6.588590022537203,0
3269,6.725562534531656,0
3270,6.424668117048291,0
3271,6.665156818571921,0
3272,6.50241209396081,0
3273,6.65444006361344,0
3274,6.5310997302897515,0
3275,6.552437783238764,0
3276,6.407865281696202,0
3277,6.4082285764429585,0
3278,6.503897659253608,0
3279,6.417907335791885,0
3280,6.4665120231012585,0
3281,6.56493737049286,0
3282,6.643523644906675,0
3283,6.585606573214634,0
3284,6.635405848975802,0
3285,6.531226281920647,0
3286,6.5953932216367,0
3287,6.543936607736935,0
3288,6.566204666833518,0
3289,6.507206401890075,0
3290,6.655398902930259,0
3291,6.6774765968399015,0
3292,6.567117337348589,0
3293,6.6703363080461395,0
3294,6.612812343587976,0
3295,6.827671187232045,0
3296,6.6271809523003515,0
3297,6.781874331645202,0
3298,6.492559424666876,0
3299,6.57758612853431,0
3300,6.88654091682791,0
3301,6.8770797709031415,0
3302,7.29214118809298,0
3303,7.798023921266678,0
3304,8.42418946749295,0
3305,9.208320852086457,0
3306,10.318801899257874,0
3307,11.355877846218078,0
3308,12.504184950034425,0
3309,13.186703675723152,0
3310,13.731545634258346,0
3311,13.579101140812872,0
3312,12.62964947001974,0
3313,11.090017711680611,0
3314,9.55703978701516,0
3315,7.96200362851976,0
3316,6.180968709827846,0
3317,4.568728187035703,0
3318,3.8907048322649813,0
3319,3.613712057879096,0
3320,4.099800037693662,0
3321,4.900162481334396,0
3322,6.035864686168271,0
3323,7.016785796311388,0
3324,8.006672576445784,0
3325,8.34705162511654,0
3326,8.179391671796429,0
3327,7.776647410129945,0
3328,7.19580613249199,0
3329,6.726456017219707,0
3330,6.2647801319950975,0
3331,5.534458182875965,0
3332,5.7561247014008226,0
3333,6.095714024882905,0
3334,6.262801081894692,0
3335,6.37768003570189,0
3336,6.71945118941722,0
3337,6.890411848817779,0
3338,6.927021254219458,0
3339,6.768310536686536,0
3340,6.709054458765377,0
3341,6.732039043177605,0
3342,6.58744745703761,0
3343,6.606822948461357,0
3344,6.670070871437875,0
3345,6.736557497749892,0
3346,6.4484817214010235,0
3347,6.553386848433017,0
3348,6.666282099858816,0
3349,6.589890787421655,0
3350,6.753371399078307,0
3351,6.583706963076364,0
3352,6.748042953023235,0
3353,6.657960158277928,0
3354,6.75401492328805,0
3355,6.683137196846067,0
3356,6.630366605827653,0
3357,6.6021502421944245,0
3358,6.644782645663383,0
3359,6.541754434603928,0
3360,6.641320944958164,0
3361,6.541266122368974,0
3362,6.925957580886905,0
3363,6.822871309816201,0
3364,6.750369177532081,0
3365,6.596515549808624,0
3366,6.773435596886968,0
3367,6.591837425219582,0
3368,6.738010569337083,0
3369,6.5386303917453565,0
3370,6.607206764899024,0
3371,6.673524365846472,0
3372,6.8358225850472705,0
3373,6.713505487559231,0
3374,6.700523945119204,0
3375,6.810570714465388,0
3376,6.515130328520568,0
3377,6.74462807862416,0
3378,6.677058801280151,0
3379,6.7426974573175285,0
3380,6.545152135266892,0
3381,6.425205158078239,0
3382,6.73100980943455,0
3383,6.640317975179149,0
3384,6.774105281256847,0
3385,6.842778942652013,0
3386,6.446020424508356,0
3387,6.494637924835154,0
3388,6.7076060578016286,0
3389,6.713122219520564,0
3390,6.665768727081716,0
3391,6.805363923667641,0
3392,6.349639009086249,0
3393,6.695062542852313,0
3394,6.52840384826409,0
3395,6.6226660048610855,0
3396,6.687511380475108,0
3397,6.605198033378556,0
3398,6.609519721779194,0
3399,6.70032393204548,0
3400,7.019714717392981,0
3401,6.971138663077209,0
3402,7.4468034413664315,0
3403,7.701664615139731,0
3404,8.860667641970487,0
3405,9.322280477100074,0
3406,10.405392268872074,0
3407,11.43768899438247,0
3408,12.372898136437522,0
3409,13.308747267146725,0
3410,13.54950205155654,0
3411,13.406898505581573,0
3412,12.685278816972673,0
3413,11.493429033662888,0
3414,9.82977625964001,0
3415,7.857998998579589,0
3416,5.98697198801056,0
3417,4.716488668111811,0
3418,3.8282528801399054,0
3419,3.7651227725300096,0
3420,4.2177714082071915,0
3421,5.193479112615111,0
3422,5.893287215508362,0
3423,7.3168384835538465,0
3424,7.906222736421171,0
3425,8.270099873777717,0
3426,8.25246179334157,0
3427,7.767783451937686,0
3428,7.438354264281526,0
3429,6.912736234524017,0
3430,6.2592822700320525,0
3431,5.888325593236039,0
3432,5.973030430331464,0
3433,6.290018569571155,0
3434,6.407408290732097,0
3435,6.636837990261419,0
3436,6.802050873206963,0
3437,7.054328346236723,0
3438,7.040602649376436,0
3439,7.2148831702632705,0
3440,6.90575150717459,0
3441,6.811820192858337,0
3442,6.652997628719032,0
3443,6.581238724394683,0
3444,6.737457447131559,0
3445,6.733509110164344,0
3446,6.802107773674711,0
3447,6.644418601619251,0
3448,6.788637052471825,0
3449,6.7554226317835155,0
3450,6.689070760000029,0
3451,6.6747057435467685,0
3452,6.804902951451077,0
3453,6.554008013321821,0
3454,6.529119290926475,0
3455,6.725517846407469,0
3456,6.5883330746642566,0
3457,6.7425859313415435,0
3458,6.635717227079577,0
3459,6.7365805705492505,0
3460,6.702022539444412,0
3461,6.8098219655306815,0
3462,6.651791707538142,0
3463,6.808218298927543,0
3464,6.808406277385555,0
3465,6.650262974787789,0
3466,6.846722240556028,0
3467,6.779254177899134,0
3468,6.889635033823424,0
3469,6.85198944482572,0
3470,6.835252197648502,0
3471,6.92829706973189,0
3472,6.989595616905121,0
3473,6.832216146271701,0
3474,6.620042212928062,0
3475,6.838708460001977,0
3476,6.687777495885854,0
3477,6.682318914651302,0
3478,6.815173221016697,0
3479,6.736608426342825,0
3480,6.728603702517392,0
3481,6.779469699138205,0
3482,6.777145843272862,0
3483,6.7484294387639245,0
3484,6.68892131763728,0
3485,6.884970672295915,0
3486,6.853995246733092,0
3487,6.549385185093695,0
3488,7.032546383781231,0
3489,6.865110650842398,0
3490,6.910082407548606,0
3491,6.598325202971175,0
3492,6.887084917722764,0
3493,6.945301759144474,0
3494,6.8006773262182385,0
3495,6.7404513680757985,0
3496,6.768041119966274,0
3497,6.7570052455502525,0
3498,6.8743009844407705,0
3499,6.538544941979737,0
3500,7.079207868134246,0
3501,7.14497079830154,0
3502,7.507170574154313,0
3503,7.9115032420289895,0
3504,8.640574864589013,0
3505,9.393561041618913,0
3506,10.480912464167684,0
3507,11.705963070900836,0
3508,12.75219522724819,0
3509,13.380070710169171,0
3510,13.762142264774276,0
3511,13.573944261552608,0
3512,12.795487816913461,0
3513,11.509289272823885,0
3514,9.748733516457136,0
3515,8.0908982059176,0
3516,6.3879392527345775,0
3517,4.681459019676019,0
3518,3.97136959605344,0
3519,3.791485104687011,0
3520,4.322314308694423,0
3521,4.957218895848511,0
3522,6.044210989468118,0
3523,7.122367579130257,0
3524,7.943100567027308,0
3525,8.320303202297014,0
3526,8.323549988344592,0
3527,7.9759638411663065,0
3528,7.515508087350675,0
3529,6.9385678447249735,0
3530,6.347201049326558,0
3531,6.065340229672075,0
3532,5.927085524314217,0
3533,6.208854975963652,0
3534,6.6028695407136775,0
3535,6.65579476963743,0
3536,6.75685893591136,0
3537,7.165087798685163,0
3538,7.195531078076081,0
3539,7.026315854032695,0
3540,6.713107002805364,0
3541,6.799699210983353,0
3542,6.5207923926101765,0
3543,6.544200948201939,0
3544,6.663635225673329,0
3545,6.680039134730019,0
3546,6.941022454905087,0
3547,6.886226880212968,0
3548,6.901661932234756,0
3549,6.895858886242404,0
3550,6.686821056782625,0
3551,6.825992533658389,0
3552,6.802941598231858,0
3553,6.942469376731726,0
3554,7.065043278373495,0
3555,6.8280879605210805,0
3556,6.931123456097535,0
3557,6.713145861865931,0
3558,6.93759083032332,0
3559,6.699952452651761,0
3560,7.10227796141525,0
3561,6.977763400771557,0
3562,6.7809742903711046,0
3563,6.900195667317351,0
3564,7.069874223903607,0
3565,6.698852389562338,0
3566,6.796425357037291,0
3567,6.813126713486087,0
3568,6.883585648449882,0
3569,6.876943235804292,0
3570,6.8558051286385675,0
3571,6.918728442014939,0
3572,6.776188268432591,0
3573,6.858456501220017,0
3574,6.972121320238351,0
3575,6.825391179523256,0
3576,6.784721312722533,0
3577,6.919265997100405,0
3578,7.127010553646707,0
3579,6.927435039152401,0
3580,6.879759863960983,0
3581,6.811808435110298,0
3582,6.938866716612139,0
3583,6.945962888898998,0
3584,7.029974937009343,0
3585,7.011833436247201,0
3586,6.797006308978565,0
3587,6.835765684115966,0
3588,6.889557567234563,0
3589,6.829174793627309,0
3590,6.7065119051231195,0
3591,6.772674024987954,0
3592,7.059203012178431,0
3593,6.891243911444901,0
3594,6.9056185893253845,0
3595,6.943762637412791,0
3596,6.85273983998455,0
3597,7.057297970473612,0
3598,6.718537309666789,0
3599,6.887540264558175,0
3600,7.0980664896200105,0
3601,7.246478779773473,0
3602,7.571466850780945,0
3603,8.11003193627399,0
3604,8.797071870834488,0
3605,9.490025018556866,0
3606,10.55742901224437,0
3607,11.620385464325922,0
3608,12.675117351004364,0
3609,13.552324044873576,0
3610,13.99615238701361,0
3611,13.664896554312207,0
3612,13.071513688317815,0
3613,11.75965825675032,0
3614,10.120499577226166,0
3615,8.199634777739451,0
3616,6.47250178711907,0
3617,4.88024430256293,0
3618,4.039212443241153,0
3619,3.8365357613149493,0
3620,4.179098016262238,0
3621,4.89952680897961,0
3622,6.151593279928266,0
3623,7.312569311430678,0
3624,8.145962705916887,0
3625,8.494138994725041,0
3626,8.463580448516772,0
3627,8.0860490344096,0
3628,7.673690593436284,0
3629,6.871266766002248,0
3630,6.46142859272326,0
3631,6.189284435952401,0
3632,6.117848181535418,0
3633,6.217598179821849,0
3634,6.5352672212908685,0
3635,7.029989814761644,0
3636,7.027314957736683,0
3637,7.347069075057188,0
3638,7.372250059831689,0
3639,7.151097436682546,0
3640,6.997695613783087,0
3641,6.924694679027464,0
3642,6.935185085370541,0
3643,6.71656204918544,0
3644,6.76646463436336,0
3645,6.851810931236986,0
3646,6.801803564226302,0
3647,6.841046528654276,0
3648,6.975961451750063,0
3649,6.757700415260307,0
3650,6.931397397614982,0
3651,6.911796635374056,0
3652,7.049957106103849,0
3653,6.808715547824784,0
3654,6.823456134604325,0
3655,6.875230886797652,0
3656,6.886785992404714,0
3657,6.903201846512403,0
3658,6.955654597350853,0
3659,7.065359546471186,0
3660,7.00255163079798,0
3661,6.882669726462489,0
3662,7.002722613621574,0
3663,6.96052044333221,0
3664,7.04263959513629,0
3665,7.099496885817059,0
3666,7.055682099877784,0
3667,6.855630444686191,0
3668,7.0191450848283035,0
3669,6.781551614674061,0
3670,6.904230898781726,0
3671,6.6778295737937245,0
3672,6.841523600593408,0
3673,6.9775623252922925,0
3674,6.9170259677610995,0
3675,6.920930149615811,0
3676,6.889902534939623,0
3677,7.05277688000045,0
3678,7.053918254992819,0
3679,7.011650513322891,0
3680,6.977457528574275,0
3681,6.932446724637485,0
3682,7.022931647578869,0
3683,7.018971168719231,0
3684,7.124895561344014,0
3685,6.9899102239457145,0
3686,7.026500240234517,0
3687,6.925646430510955,0
3688,7.102213424775103,0
3689,7.186846695797711,0
3690,7.067025916199449,0
3691,6.909191293305608,0
3692,6.995497561782933,0
3693,6.820190900957926,0
3694,7.047998254854998,0
3695,7.037690510647798,0
3696,6.96214963966913,0
3697,6.946835409101775,0
3698,7.00732523078201,0
3699,6.900865895344252,0
3700,7.179544762134983,0
3701,7.326709012404712,0
3702,7.70534169644197,0
3703,8.093486722677174,0
3704,8.607016162132592,0
3705,9.451864275983166,0
3706,10.60042264494125,0
3707,11.560765244737107,0
3708,12.810498275600704,0
3709,13.561372797240843,0
3710,13.968420384466544,0
3711,13.87734636684246,0
3712,13.101852943319432,0
3713,11.751871708695493,0
3714,9.92862205302316,0
3715,8.241812305814266,0
3716,6.612650737934749,0
3717,5.026282005608359,0
3718,4.27364328079946,0
3719,3.895760266957607,0
3720,4.399907991591613,0
3721,5.216775882599755,0
3722,6.206599273548793,0
3723,7.326819335098763,0
3724,8.301657571142073,0
3725,8.622705556382252,0
3726,8.399078066387748,0
3727,8.196000974748333,0
3728,7.664943877699707,0
3729,7.049475342044289,0
3730,6.616105741447982,0
3731,6.300593026410696,0
3732,6.2662945731649895,0
3733,6.414065212040377,0
3734,6.672224904801638,0
3735,7.045220000559193,0
3736,7.330046058404483,0
3737,7.22342929119209,0
3738,7.450358267769577,0
3739,7.1404201987989815,0
3740,7.036663775908626,0
3741,7.03147315366703,0
3742,6.870339515969666,0
3743,6.935686106911585,0
3744,7.061300413091643,0
3745,7.011341383800244,0
3746,7.109449914993509,0
3747,6.939643973526825,0
3748,7.076702764787537,0
3749,7.079389755047833,0
3750,7.246433024895028,0
3751,7.191485509621457,0
3752,7.058978475501986,0
3753,7.122486752462324,0
3754,7.019224473455314,0
3755,7.063192419334041,0
3756,7.194563490517759,0
3757,7.1089493542644,0
3758,6.995344713228991,0
3759,6.963294148543493,0
3760,6.947899894317522,0
3761,6.858455650109769,0
3762,6.918029875279134,0
3763,6.985154452083459,0
3764,7.060852966504774,0
3765,6.937407605573125,0
3766,7.230292107213746,0
3767,7.00090534916634,0
3768,6.896671650420284,0
3769,7.052174742486719,0
3770,6.988991893378363,0
3771,7.109459997166427,0
3772,6.9909292678875055,0
3773,7.097265934200472,0
3774,6.913355564374165,0
3775,6.9617701992327605,0
3776,6.922774755355841,0
3777,6.981017068062309,0
3778,7.145601707477301,0
3779,7.044216376378627,0
3780,7.1342230493463425,0
3781,6.91453761118222,0
3782,6.962687140687946,0
3783,6.889795449157127,0
3784,6.9973978806915635,0
3785,7.030135091460542,0
3786,7.188274520305227,0
3787,6.9174032515176345,0
3788,7.151307461238446,0
3789,6.977106788758412,0
3790,7.113256588180498,0
3791,6.9714615316893855,0
3792,6.942181882702201,0
3793,7.052853716069536,0
3794,7.037037239029225,0
3795,7.085715373471116,0
3796,7.088452241227024,0
3797,7.090245721641784,0
3798,7.035037778770692,0
3799,7.028814087472434,0
3800,7.20450806097402,0
3801,7.333444078772639,0
3802,7.61354942155014,0
3803,8.041274604720044,0
3804,8.555421977693056,0
3805,9.638283347436834,0
3806,10.467070242836535,0
3807,11.80488773776501,0
3808,12.753084489822388,0
3809,13.570309103903693,0
3810,13.97974027208333,0
3811,13.986193650262098,0
3812,13.078920139155837,0
3813,11.936813307968663,0
3814,10.363198454163895,0
3815,8.23103167997765,0
3816,6.5238097416665095,0
3817,5.140927227940549,0
3818,4.318218039365763,0
3819,4.040916358176353,0
3820,4.517580391010307,0
3821,5.155088031109592,0
3822,6.201234474429459,0
3823,7.454345477365739,0
3824,8.10101583427103,0
3825,8.711738033658701,0
3826,8.63076268204146,0
3827,8.184766476286592,0
3828,7.51785453545201,0
3829,7.177679753576427,0
3830,6.685964893175751,0
3831,6.304158101417171,0
3832,6.26928982700317,0
3833,6.642108893835836,0
3834,6.64457043726419,0
3835,6.820776010648044,0
3836,7.192443000577609,0
3837,7.3340215020508985,0
3838,7.372754023292354,0
3839,7.392928603083526,0
3840,7.1290727419660795,0
3841,7.068426214374796,0
3842,6.934525063090521,0
3843,6.863266029845297,0
3844,7.132981341499329,0
3845,6.908903227181389,0
3846,7.084966100339979,0
3847,7.171216056229141,0
3848,7.18058315334791,0
3849,7.25006627185579,0
3850,7.058228478268064,0
3851,7.152231632427665,0
3852,7.219626549545558,0
3853,7.068094352879998,0
3854,7.160837034772962,0
3855,7.002937045991284,0
3856,6.968467418448061,0
3857,7.14311750865446,0
3858,7.026891199927484,0
3859,7.1032819700173775,0
3860,7.022452568086748,0
3861,7.0858793827506235,0
3862,7.123121947498194,0
3863,6.975195246126741,0
3864,6.864134374796258,0
3865,7.001460448109203,0
3866,7.017695873555117,0
3867,6.9355589139692295,0
3868,7.035999312978625,0
3869,6.999514186004292,0
3870,7.298026407066081,0
3871,7.0751877821879985,0
3872,7.191050360313473,0
3873,7.265031610712019,0
3874,7.168511673785363,0
3875,7.236965251660711,0
3876,7.220335727258739,0
3877,7.141841221562215,0
3878,6.999920758311775,0
3879,7.144172267411335,0
3880,7.213342073749564,0
3881,7.255029489334532,0
3882,7.021585248699589,0
3883,7.122885781858605,0
3884,7.249507991051994,0
3885,7.29994964852769,0
3886,7.270906250952544,0
3887,7.076671416730926,0
3888,7.075768055300674,0
3889,6.9291827205935625,0
3890,7.264580085571148,0
3891,7.308978538917395,0
3892,7.128575158279483,0
3893,7.245384718503741,0
3894,7.073663331126083,0
3895,7.22789680994296,0
3896,7.338493355354446,0
3897,7.224832078315399,0
3898,7.252462464820367,0
3899,7.101722428752952,0
3900,7.293353962791885,0
3901,7.267814406455301,0
3902,7.7692749366503175,0
3903,8.268110920113905,0
3904,8.941307699429306,0
3905,9.729778140734792,0
3906,10.768769873941867,0
3907,11.800025415175817,0
3908,12.827812994075053,0
3909,13.639033521774433,0
3910,14.06778851919012,0
3911,13.982803517498827,0
3912,13.111608752244244,0
3913,11.822635270521706,0
3914,10.275480306926237,0
3915,8.747215012562028,0
3916,6.816288455824206,0
3917,5.314632711928847,0
3918,4.532837488403034,0
3919,4.173560693986384,0
3920,4.51837014280402,0
3921,5.056657212335205,0
3922,6.4513453778448335,0
3923,7.441963357964503,0
3924,8.363190775668125,0
3925,8.516439634206632,0
3926,8.677587575935485,0
3927,8.36737755303626,0
3928,7.954264495202592,0
3929,7.437166470472446,0
3930,6.636188386099701,0
3931,6.421094034270074,0
3932,6.2780078901496035,0
3933,6.554493173906796,0
3934,6.774379601259066,0
3935,7.100288300775729,0
3936,7.47359958451825,0
3937,7.3313293282686915,0
3938,7.63125530528058,0
3939,7.501444612640143,0
3940,7.545266900224348,0
3941,7.226036194977068,0
3942,7.22791851433224,0
3943,7.075478069387489,0
3944,6.903769290890432,0
3945,7.088215067806953,0
3946,7.014780731644726,0
3947,7.031449473763842,0
3948,7.091107738745497,0
3949,7.228314285538851,0
3950,7.263818555596899,0
3951,7.308355508088909,0
3952,7.185513692299065,0
3953,7.215259616012326,0
3954,7.0703947450682065,0
3955,7.088840386376878,0
3956,7.205641605020225,0
3957,7.1517691422383685,0
3958,7.191233079079148,0
3959,6.97967370015367,0
3960,7.206529717008561,0
3961,7.313633327608054,0
3962,7.0371896665212486,0
3963,7.224490934776159,0
3964,7.045678998508343,0
3965,7.15108615226402,0
3966,7.2964699173635905,0
3967,7.155467587331667,0
3968,7.046446075587733,0
3969,7.256279849153164,0
3970,7.218701905962991,0
3971,7.123070242630191,0
3972,7.194137553039448,0
3973,7.174083369624418,0
3974,7.220193820015892,0
3975,7.078989493459423,0
3976,7.173191658213389,0
3977,7.2560585388006515,0
3978,7.325740983686434,0
3979,7.205077102967996,0
3980,7.464852358542121,0
3981,7.545914805984159,0
3982,7.276836799020977,0
3983,7.205996884679681,0
3984,7.1441399925789,0
3985,7.14592610278982,0
3986,7.267961602669183,0
3987,7.285416597867592,0
3988,7.2465451495294015,0
3989,7.1765369601785265,0
3990,7.36316398904814,0
3991,7.183794426813796,0
3992,7.325853846490677,0
3993,7.166595647617016,0
3994,7.3145792563309975,0
3995,7.217523926224482,0
3996,7.255372308363612,0
3997,7.140991103457951,0
3998,7.186911550584094,0
3999,7.287911628151035,0
4000,7.223280464932393,0
4001,7.471902260178854,0
4002,7.86963746510042,0
4003,8.292535610195053,0
4004,8.827756555174163,0
4005,9.774132641221382,0
4006,10.696136251172916,0
4007,11.914189825618358,0
4008,12.869024001622297,0
4009,13.571234579341777,0
4010,14.136462176928108,0
4011,14.159796359058278,0
4012,13.320278809394726,0
4013,12.043304935792685,0
4014,10.464771635476707,0
4015,8.626896346756084,0
4016,7.035014000579156,0
4017,5.355934548474991,0
4018,4.40530764018658,0
4019,4.122723894751957,0
4020,4.352112578984135,0
4021,5.44225550067144,0
4022,6.273870173504117,0
4023,7.460740154222698,0
4024,8.411446672854908,0
4025,8.840518910162906,0
4026,8.72344037233208,0
4027,8.393028609108237,0
4028,7.838392177719632,0
4029,7.277248282468022,0
4030,6.825396964022625,0
4031,6.357456865838095,0
4032,6.533160243178603,0
4033,6.5304351982363364,0
4034,6.801864159854104,0
4035,7.011398084970499,0
4036,7.496039690208193,0
4037,7.439611509687887,0
4038,7.466082185036066,0
4039,7.682829006362851,0
4040,7.327604395590582,0
4041,7.141114170521769,0
4042,6.983142230946578,0
4043,7.113409099431347,0
4044,7.173404066739494,0
4045,7.159394112542027,0
4046,7.148414842527386,0
4047,7.184133473827929,0
4048,7.2722494403938205,0
4049,7.2812922927829975,0
4050,7.335546271282732,0
4051,7.222880049545529,0
4052,7.226780768804903,0
4053,7.389582027090928,0
4054,7.462014822055849,0
4055,7.228272545806411,0
4056,7.194358922883283,0
4057,7.487698243486206,0
4058,7.27859963542124,0
4059,7.179621811765901,0
4060,6.974693667500973,0
4061,7.268504587129226,0
4062,7.277519096591461,0
4063,7.276975025578274,0
4064,7.270952536531328,0
4065,7.118674082090187,0
4066,7.419254423109124,0
4067,7.11245483825988,0
4068,7.222114397093699,0
4069,7.131740174940199,0
4070,7.212038041916946,0
4071,7.155765611986345,0
4072,7.406306474703667,0
4073,7.270682679360763,0
4074,7.340051727714716,0
4075,7.377318171133405,0
4076,7.294083745249079,0
4077,7.449783188437954,0
4078,7.212179802042923,0
4079,7.289560708368323,0
4080,7.483170064884703,0
4081,7.29212675381652,0
4082,7.465099388356777,0
4083,7.3214023452587,0
4084,7.290539686209987,0
4085,7.284026551016673,0
4086,7.154259245071238,0
4087,7.3504319960213875,0
4088,7.3156459820954,0
4089,7.307666598841854,0
4090,7.414508935990288,0
4091,7.370040929203959,0
4092,7.282033713362932,0
4093,7.350759847000172,0
4094,7.331242852443346,0
4095,7.403943479714508,0
4096,7.440674660301364,0
4097,7.360404149770714,0
4098,7.5041278894357655,0
4099,7.3888153192159285,0
4100,7.399831677280955,0
4101,7.541196501942711,0
4102,7.864864246749456,0
4103,8.311168261513018,0
4104,8.954596735855548,0
4105,9.707264897644308,0
4106,10.918480695532145,0
4107,11.997600798516885,0
4108,13.035763035417439,0
4109,13.802076646833932,0
4110,14.31042181024939,0
4111,14.200809685277958,0
4112,13.375343657704285,0
4113,12.225906898186388,0
4114,10.599533430155924,0
4115,8.924201644197556,0
4116,7.090552083295986,0
4117,5.431739563982351,0
4118,4.5071228106102,0
4119,3.9675479829695344,0
4120,4.730735731357404,0
4121,5.374485892475142,0
4122,6.58982901284969,0
4123,7.505479394753205,0
4124,8.477292537064237,0
4125,9.000618722379338,0
4126,8.891605100715315,0
4127,8.845623281351745,0
4128,7.825651056897604,0
4129,7.370902220736265,0
4130,6.929320235183482,0
4131,6.751683743662378,0
4132,6.554496297837995,0
4133,6.591406954819989,0
4134,6.97153271961323,0
4135,7.332876151310115,0
4136,7.3287349512004845,0
4137,7.671846997062087,0
4138,7.730145582109868,0
4139,7.713208887291482,0
4140,7.555970811922158,0
4141,7.465408562898083,0
4142,7.317912935654583,0
4143,7.141693772181834,0
4144,7.281849589892046,0
4145,7.362718765952806,0
4146,7.221541785883197,0
4147,7.488644709961408,0
4148,7.27341542133577,0
4149,7.445543150194338,0
4150,7.415044922718795,0
4151,7.154642515425416,0
4152,7.247238215342311,0
4153,7.532499744049913,0
4154,7.387288797313491,0
4155,7.3970740757953255,0
4156,7.605421477352957,0
4157,7.382531921601485,0
4158,7.32968292313608,0
4159,7.48402123043626,0
4160,7.349416433931622,0
4161,7.566557422780959,0
4162,7.302376310829147,0
4163,7.242966874460438,0
4164,7.326416970290711,0
4165,7.326450493660156,0
4166,7.433228429035251,0
4167,7.3413379204477165,0
4168,7.300908798738542,0
4169,7.430859893340401,0
4170,7.569888864574601,0
4171,7.31184969443223,0
4172,7.617245182366333,0
4173,7.403210410232195,0
4174,7.358705781686151,0
4175,7.511437243940762,0
4176,7.551398378516407,0
4177,7.374794418969686,0
4178,7.484905061152682,0
4179,7.3772675865085295,0
4180,7.42611764610009,0
4181,7.5554484047517,0
4182,7.477390457608205,0
4183,7.432232961607486,0
4184,7.583655912985332,0
4185,7.451111419261341,0
4186,7.577451365490224,0
4187,7.4117715913235935,0
4188,7.144849310436218,0
4189,7.366547152181058,0
4190,7.17405911389512,0
4191,7.405529205533494,0
4192,7.416081031761506,0
4193,7.39969877672281,0
4194,7.342276894973013,0
4195,7.246255723694352,0
4196,7.542644443409597,0
4197,7.584348122152639,0
4198,7.492459106424322,0
4199,7.432565316961612,0
4200,7.4724604675723,0
4201,7.560744264796612,0
4202,8.005142935205496,0
4203,8.447584278323331,0
4204,9.187571706588775,0
4205,9.91742923755464,0
4206,10.822101420505332,0
4207,11.885947710321249,0
4208,12.991715554284772,0
4209,13.918926813753952,0
4210,14.425099972413125,0
4211,14.350671561908497,0
4212,13.52288013428988,0
4213,12.485554544586241,0
4214,10.90126782231497,0
4215,9.05155655694295,0
4216,7.152122716721865,0
4217,5.562275036865355,0
4218,4.594005063383868,0
4219,4.484685840638299,0
4220,4.847492220722686,0
4221,5.397862022727451,0
4222,6.4359152189308535,0
4223,7.729683270960131,0
4224,8.403541809019607,0
4225,9.04296465463426,0
4226,9.032983905112818,0
4227,8.481889684119825,0
4228,8.011360303514078,0
4229,7.447561893717367,0
4230,6.992400053632358,0
4231,6.763366519773534,0
4232,6.541112792513317,0
4233,6.835969943650184,0
4234,6.969201158451477,0
4235,7.421023306989166,0
4236,7.522578960556577,0
4237,7.795635017739295,0
4238,7.6809132886862574,0
4239,7.5965119651426685,0
4240,7.506929972976305,0
4241,7.376505887884566,0
4242,7.546632743556576,0
4243,7.374782639600314,0
4244,7.244021046799514,0
4245,7.510574442415832,0
4246,7.371115264555476,0
4247,7.3166065135974785,0
4248,7.569959633627952,0
4249,7.488860012499958,0
4250,7.409681810029952,0
4251,7.575802326875441,0
4252,7.411938801579864,0
4253,7.44613597319443,0
4254,7.551223263719947,0
4255,7.369020512950462,0
4256,7.511792903403892,0
4257,7.4319725887186365,0
4258,7.507120723573555,0
4259,7.358678078758713,0
4260,7.425211263225949,0
4261,7.319923073891967,0
4262,7.545098674367457,0
4263,7.477958065463106,0
4264,7.426531534881597,0
4265,7.3184312538752145,0
4266,7.485328193448601,0
4267,7.52645212161085,0
4268,7.288581795500955,0
4269,7.185935895118422,0
4270,7.405395605893988,0
4271,7.498637392546193,0
4272,7.584044845228029,0
4273,7.4520313410216,0
4274,7.44379390433406,0
4275,7.496813520633057,0
4276,7.337669067963392,0
4277,7.4283455624327175,0
4278,7.35860223585663,0
4279,7.5365720027205345,0
4280,7.218303821922782,0
4281,7.417024328558964,0
4282,7.523260623086122,0
4283,7.443394649307265,0
4284,7.292182028407561,0
4285,7.597193415979631,0
4286,7.696330990733514,0
4287,7.522506653290277,0
4288,7.575447256283332,0
4289,7.5971288241560115,0
4290,7.579183438169033,0
4291,7.416441492097876,0
4292,7.514693164145197,0
4293,7.551980931497476,0
4294,7.48968870985043,0
4295,7.149430652538107,0
4296,7.517313128517293,0
4297,7.431974236710181,0
4298,7.556051001667755,0
4299,7.582096811808689,0
4300,7.647329868174441,0
4301,7.710622910215758,0
4302,8.049548302052134,0
4303,8.693519590352345,0
4304,9.209487989963502,0
4305,10.020540708867069,0
4306,11.10261860673767,0
4307,11.966577541279255,0
4308,12.980062955844954,0
4309,13.873898572875948,0
4310,14.447529557459292,0
4311,14.365917658479194,0
4312,13.569489085828792,0
4313,12.429287463611747,0
4314,10.988282739810867,0
4315,9.128846286626603,0
4316,7.311268797226018,0
4317,5.690878765208797,0
4318,4.909744139441484,0
4319,4.349317989887227,0
4320,4.661017956124222,0
4321,5.678823959153241,0
4322,6.575832024126132,0
4323,7.725169367753679,0
4324,8.653677258379355,0
4325,8.951463987564463,0
4326,8.842397819882898,0
4327,8.700542649830803,0
4328,8.15400781358191,0
4329,7.67737767110879,0
4330,7.233636137028146,0
4331,6.637558861387757,0
4332,6.68556089723821,0
4333,6.562242394273013,0
4334,7.0782762423497125,0
4335,7.3945733788957115,0
4336,7.744733474594802,0
4337,7.9769586293375925,0
4338,7.918502187864503,0
4339,7.702706278946477,0
4340,7.6279845729169296,0
4341,7.691623740096939,0
4342,7.4215114908368784,0
4343,7.4369426677526524,0
4344,7.499030999169843,0
4345,7.450831348276871,0
4346,7.602273456091628,0
4347,7.55580972086322,0
4348,7.372829066033495,0
4349,7.742720669258386,0
4350,7.6637457417419395,0
4351,7.345715479594465,0
4352,7.452723693688139,0
4353,7.4881314193441115,0
4354,7.418594299838153,0
4355,7.492286094532316,0
4356,7.58643437654936,0
4357,7.539121885273589,0
4358,7.521424749368651,0
4359,7.619950967221486,0
4360,7.49813688809198,0
4361,7.61807681503818,0
4362,7.685477789404859,0
4363,7.459847544215543,0
4364,7.553712710801905,0
4365,7.573991487107757,0
4366,7.55965703151087,0
4367,7.738249563128109,0
4368,7.48461052680058,0
4369,7.509593968796371,0
4370,7.623359991367492,0
4371,7.716702389745998,0
4372,7.457597871787363,0
4373,7.5739066536426325,0
4374,7.380056787185872,0
4375,7.744208390314251,0
4376,7.5558398463876495,0
4377,7.5111888913624085,0
4378,7.546627471489185,0
4379,7.63536003220413,0
4380,7.601130928296745,0
4381,7.5700853443542995,0
4382,7.6547769790297,0
4383,7.674648857182872,0
4384,7.746438496743415,0
4385,7.611981008895986,0
4386,7.683312379180069,0
4387,7.519964360069823,0
4388,7.505725155502014,0
4389,7.409079518046685,0
4390,7.691903804877415,0
4391,7.659071557520498,0
4392,7.703404314979962,0
4393,7.489318101443611,0
4394,7.576747763564137,0
4395,7.58585398812522,0
4396,7.538666012846858,0
4397,7.712523158552655,0
4398,7.477252643864941,0
4399,7.6241359806309505,0
4400,7.735212078449145,0
4401,7.755911183786583,0
4402,8.09913820628823,0
4403,8.75591437893331,0
4404,9.086861186917764,0
4405,10.004754024290698,0
4406,11.034578254623174,0
4407,12.080901783248862,0
4408,13.08108603524013,0
4409,13.98892824165495,0
4410,14.424049681226789,0
4411,14.571861169935376,0
4412,13.762951222461336,0
4413,12.522298226809092,0
4414,10.920349493673047,0
4415,9.2958459892449,0
4416,7.484387733402319,0
4417,5.869802995332867,0
4418,4.837166509121865,0
4419,4.512548443377595,0
4420,4.937436325745448,0
4421,5.512185212180728,0
4422,6.684637792722265,0
4423,7.683068579988547,0
4424,8.535953532544244,0
4425,9.144621283505401,0
4426,9.083624790444826,0
4427,8.955243368349311,0
4428,8.397490567485859,0
4429,7.709664332089573,0
4430,7.201495656065619,0
4431,6.700761558831975,0
4432,6.611380624674837,0
4433,6.9746851729634605,0
4434,7.249330472348391,0
4435,7.466466244035672,0
4436,7.640551533998619,0
4437,7.858202132168199,0
4438,7.899535998599634,0
4439,8.041792829767491,0
4440,7.79925495598543,0
4441,7.498557273813702,0
4442,7.588159573382966,0
4443,7.487659962722214,0
4444,7.422677745380411,0
4445,7.546679737571765,0
4446,7.64315676558186,0
4447,7.578793028762318,0
4448,7.763238493687894,0
4449,7.737870355093627,0
4450,7.640809044511573,0
4451,7.694710570686625,0
4452,7.743168099418777,0
4453,7.6719417769297475,0
4454,7.760860287778917,0
4455,7.664852901723462,0
4456,7.609510351151947,0
4457,7.71249924307842,0
4458,7.481672448591732,0
4459,7.7502548774350775,0
4460,7.659385428013197,0
4461,7.574653389802638,0
4462,7.706249532768349,0
4463,7.389649777406565,0
4464,7.568909634025813,0
4465,7.482752788474409,0
4466,7.453456410200871,0
4467,7.771611934469878,0
4468,7.651714331752054,0
4469,7.716271843675807,0
4470,7.824375611013288,0
4471,7.579113185561768,0
4472,7.499470919074582,0
4473,7.521732546106674,0
4474,7.389463293198803,0
4475,7.418180781321573,0
4476,7.635114717245445,0
4477,7.547809896822399,0
4478,7.628369150807091,0
4479,7.602150727125749,0
4480,7.7239585786742255,0
4481,7.536122485480784,0
4482,7.477264837798512,0
4483,7.661720183448304,0
4484,7.599319703873075,0
4485,7.711786128052319,0
4486,7.639056821040656,0
4487,7.725009734701254,0
4488,7.613866510951718,0
4489,7.545296387958397,0
4490,7.656586678400394,0
4491,7.698373953109934,0
4492,7.501049134776245,0
4493,7.686780519747153,0
4494,7.640662139256159,0
4495,7.751625631303558,0
4496,7.626991688709188,0
4497,7.694264904050305,0
4498,7.703349578696382,0
4499,7.682698617020094,0
4500,7.695641218570485,0
4501,8.063376771046084,0
4502,8.224258205262917,0
4503,8.653794997493817,0
4504,9.092623575133198,0
4505,10.071623331528082,0
4506,10.982131810414895,0
4507,12.1174248730645,0
4508,13.235832791218531,0
4509,14.142157977364471,0
4510,14.264168036589318,0
4511,14.487757349145879,0
4512,13.91021384163166,0
4513,12.777892818192907,0
4514,11.048108801821211,0
4515,9.323070956137919,0
4516,7.343235815069717,0
4517,5.9695736530883465,0
4518,4.964387523153782,0
4519,4.651929931647621,0
4520,4.800205077656098,0
4521,5.860825932403198,0
4522,6.591932046225956,0
4523,7.6037447099683115,0
4524,8.710127225470346,0
4525,9.262443241787166,0
4526,9.21475953074167,0
4527,8.940571355014297,0
4528,8.236400115327411,0
4529,7.898267318180064,0
4530,7.150779423498014,0
4531,7.117949760764563,0
4532,6.767148003247996,0
4533,7.07477415927908,0
4534,7.233658274499701,0
4535,7.484058871554308,0
4536,7.914216405594102,0
4537,7.796421759743118,0
4538,7.694736152133786,0
4539,7.8485889490645295,0
4540,7.8171327124639225,0
4541,7.710769280811488,0
4542,7.668890971013168,0
4543,7.441516016999247,0
4544,7.640680451690551,0
4545,7.4724573111331285,0
4546,7.532438770913716,0
4547,7.4706379723564424,0
4548,7.666012377611935,0
4549,7.642997196211965,0
4550,7.558627957267932,0
4551,7.6851996354442536,0
4552,7.696787135044433,0
4553,7.458254680064611,0
4554,7.677841257768823,0
4555,7.854707496084023,0
4556,7.590801025724812,0
4557,7.648891518944602,0
4558,7.430721452086584,0
4559,7.7503677622579765,0
4560,7.522625618045795,0
4561,7.7334651933492635,0
4562,7.769034956036104,0
4563,7.765653159202202,0
4564,7.5578418091844854,0
4565,7.5095694530094255,0
4566,7.478650069310347,0
4567,7.63303628348305,0
4568,7.778262186458347,0
4569,7.6721489654414885,0
4570,7.676686136877138,0
4571,7.66334964892389,0
4572,7.673617891026892,0
4573,7.811295860194776,0
4574,7.579580462080557,0
4575,7.625068384211374,0
4576,7.604355538237226,0
4577,7.708568660025002,0
4578,7.61305797835306,0
4579,7.653940747336479,0
4580,7.677993129787524,0
4581,7.668018233634214,0
4582,7.517547026670175,0
4583,7.645191100860973,0
4584,7.79708072936436,0
4585,7.705171431913487,0
4586,7.664071295551392,0
4587,7.853044734782101,0
4588,7.614518531540886,0
4589,7.858123440316382,0
4590,7.718202092540184,0
4591,7.705866086667502,0
4592,7.701611638945877,0
4593,7.733439580223629,0
4594,7.66185530393464,0
4595,7.654589791925208,0
4596,7.69900250593081,0
4597,7.668468200077871,0
4598,7.8668950988215665,0
4599,7.716579969616597,0
4600,7.734229275669645,0
4601,8.002306402110188,0
4602,8.295336634824,0
4603,8.656269316656482,0
4604,9.361863706769416,0
4605,10.014329100920314,0
4606,11.143202925896652,0
4607,12.198697541511393,0
4608,13.19803012631101,0
4609,13.914322013551406,0
4610,14.467051581089667,0
4611,14.664026260583356,0
4612,14.033227795790111,0
4613,12.961576571163215,0
4614,11.332220542284178,0
4615,9.39841738725564,0
4616,7.712157273503867,0
4617,6.073029796900962,0
4618,5.110210109847105,0
4619,4.579262951583832,0
4620,4.97373230287867,0
4621,5.711543558711794,0
4622,6.708578191799381,0
4623,7.697134040630917,0
4624,8.82645028349048,0
4625,9.150199708833718,0
4626,9.029052587882529,0
4627,9.217188422727588,0
4628,8.418110562832618,0
4629,7.881911254175426,0
4630,7.344465349372067,0
4631,7.082441577635983,0
4632,6.836258084727827,0
4633,7.209310547105206,0
4634,7.300950333109818,0
4635,7.480552097266922,0
4636,7.867111546483759,0
4637,7.987264782343013,0
4638,7.99297635706335,0
4639,8.055886280996692,0
4640,7.854575859512505,0
4641,7.538865799200507,0
4642,7.5618659006732365,0
4643,7.685720589022419,0
4644,7.647088009256219,0
4645,7.544226774126651,0
4646,7.751696081952457,0
4647,7.783902353805713,0
4648,7.766196940534008,0
4649,7.83806361756137,0
4650,7.982261590406002,0
4651,7.92765497779632,0
4652,7.734442594603445,0
4653,7.888179144025121,0
4654,8.042586567670197,0
4655,7.787756698698735,0
4656,7.733218332688037,0
4657,7.745578351244655,0
4658,7.876516076661432,0
4659,7.669056688380601,0
4660,7.732903472932144,0
4661,7.7189558925657815,0
4662,7.792851138966867,0
4663,7.958990053419409,0
4664,7.890028401043025,0
4665,7.702126643279793,0
4666,7.722439311521888,0
4667,7.8776783172221485,0
4668,7.659229508692373,0
4669,7.740012318736469,0
4670,7.73073972037045,0
4671,7.853856458924178,0
4672,7.875634410410716,0
4673,7.72774674952756,0
4674,7.752214180047024,0
4675,7.785622583204994,0
4676,7.639457945678002,0
4677,7.7615392463617185,0
4678,7.762920493193328,0
4679,7.7819964197555525,0
4680,7.855618768593249,0
4681,7.778687587051229,0
4682,7.632923338367476,0
4683,7.844964321767998,0
4684,7.82259578109097,0
4685,7.717125611273945,0
4686,7.735487993675521,0
4687,7.789915607333873,0
4688,7.701354440484253,0
4689,7.677742522775026,0
4690,7.88172635979001,0
4691,7.929230016175786,0
4692,7.650663956947615,0
4693,7.782160109575181,0
4694,7.69321133360846,0
4695,7.723502750903793,0
4696,7.822928656621373,0
4697,7.772883028372284,0
4698,7.561404155076558,0
4699,7.77831021570048,0
4700,7.9467431204763,0
4701,7.981552535864371,0
4702,8.375062683236992,0
4703,8.750613989522735,0
4704,9.338254213326813,0
4705,10.182824403510573,0
4706,11.175776896726331,0
4707,12.293964635540183,0
4708,13.305863961073172,0
4709,14.196583980281131,0
4710,14.854427490889126,0
4711,14.680091286180605,0
4712,14.13419376485604,0
4713,12.82082490138871,0
4714,11.333151893546402,0
4715,9.65977825496296,0
4716,7.625276432792909,0
4717,6.191880988950139,0
4718,5.1116824095677185,0
4719,4.688917164754092,0
4720,4.990669524708687,0
4721,5.757284790416427,0
4722,6.623455517387048,0
4723,7.972221011682324,0
4724,8.827750502177128,0
4725,9.311064509792452,0
4726,9.344268804832964,0
4727,9.021513512521505,0
4728,8.785433012347248,0
4729,7.932316016267897,0
4730,7.323840854145249,0
4731,7.151620005998771,0
4732,7.0534023772653445,0
4733,7.097975019112407,0
4734,7.372889387257932,0
4735,7.507185924041406,0
4736,7.965275225654546,0
4737,7.876607494096453,0
4738,8.095769419611637,0
4739,8.162958385644778,0
4740,8.052075480790682,0
4741,7.819070859474033,0
4742,7.9226344328265155,0
4743,7.756151169679495,0
4744,7.7503077255876685,0
4745,7.953143707803495,0
4746,7.732565910358958,0
4747,7.887539440161598,0
4748,7.967279997296046,0
4749,7.7891399158048085,0
4750,7.821099711738432,0
4751,7.93164551016858,0
4752,8.103536368255483,0
4753,7.961105323288274,0
4754,7.91222555028972,0
4755,7.842227061741021,0
4756,7.855431751207999,0
4757,7.920954048742886,0
4758,7.946490917215362,0
4759,7.766549244496968,0
4760,7.985973258424455,0
4761,7.71739823931923,0
4762,7.775902401111122,0
4763,8.042876860310242,0
4764,7.905457162269032,0
4765,7.7546205886733865,0
4766,7.832457270354538,0
