timestamp,value-0,is_anomaly
0,-1.7673082415210348,0
1,-1.5985475436526748,0
2,-1.1345219955201074,0
3,-0.4242149751881046,0
4,0.48148802415451586,0
5,1.5095268702580174,0
6,2.5725054544894554,0
7,3.582260493916106,0
8,4.418657544216042,0
9,4.911800424690804,0
10,4.887488156263393,0
11,4.225626266013401,0
12,3.024059986340526,0
13,1.4355005029867391,0
14,-0.38103667781328654,0
15,-2.1924143890425456,0
16,-3.717276047506088,0
17,-4.675935452465756,0
18,-4.942511119531645,0
19,-4.632010227925341,0
20,-3.8804555048611933,0
21,-2.8426050006771497,0
22,-1.7491977968522148,0
23,-0.8502315874237858,0
24,-0.37776159025605427,0
25,-0.3510846543074686,0
26,-0.6502243405622068,0
27,-1.1527416829770705,0
28,-1.733101720346381,0
29,-2.260890181964568,0
30,-2.6052635178576566,0
31,-2.6729777060975692,0
32,-2.524409537592218,0
33,-2.259164328185151,0
34,-1.973751816773262,0
35,-1.7276600987177062,0
36,-1.5559913268316912,0
37,-1.4929182237954548,0
38,-1.5406858493271485,0
39,-1.6509057082930019,0
40,-1.7706970196419636,0
41,-1.8564672402059912,0
42,-1.9027887090662112,0
43,-1.914033907106117,0
44,-1.8950994652124566,0
45,-1.8572044512262993,0
46,-1.8157584669248639,0
47,-1.7861182012933086,0
48,-1.7753255584319796,0
49,-1.7771534686344492,0
50,-1.7841877163819502,0
51,-1.7900358016365103,0
52,-1.7925903712858509,0
53,-1.790868523545087,0
54,-1.7840413774383106,0
55,-1.773153743664742,0
56,-1.7605000654962961,0
57,-1.7483843922279232,0
58,-1.7382421809348443,0
59,-1.7301140655603378,0
60,-1.7239148413930947,0
61,-1.7195249550982212,0
62,-1.71662897758929,0
63,-1.7148450485117408,0
64,-1.7137985521023233,0
65,-1.7132039979272415,0
66,-1.7128357068315438,0
67,-1.7124685314124848,0
68,-1.7118386679916104,0
69,-1.7106198471368885,0
70,-1.7084801167042414,0
71,-1.7051673759539387,0
72,-1.700812117890547,0
73,-1.6956594047372868,0
74,-1.689953846702533,0
75,-1.6839341781311765,0
76,-1.677835165568153,0
77,-1.6718915363700206,0
78,-1.6663404411351854,0
79,-1.6614229708538346,0
80,-1.6573805779780109,0
81,-1.654384402011059,0
82,-1.6522581540080765,0
83,-1.65071834896626,0
84,-1.6494841738127255,0
85,-1.6483085722964355,0
86,-1.6469674250374264,0
87,-1.645235911259466,0
88,-1.642809733985596,0
89,-1.6392545486398165,0
90,-1.6341239817571198,0
91,-1.6271841046379993,0
92,-1.619175852623358,0
93,-1.6111216704626992,0
94,-1.603905450440987,0
95,-1.5966653571100622,0
96,-1.5873460008609361,0
97,-1.573710764229858,0
98,-1.5422937508324155,0
99,-1.4611388623436448,0
100,-1.296565529776954,0
101,-1.014419504689744,0
102,-0.5784210994488743,0
103,0.048308885415381475,0
104,0.8961365728104362,0
105,1.912681782431346,0
106,2.9886389867020657,0
107,4.013300392915242,0
108,4.855633156721731,0
109,5.350926304629751,0
110,5.331301892517646,0
111,4.678075667920464,0
112,3.4850117414008484,0
113,1.9032064832909823,0
114,0.08951063933244097,0
115,-1.72548621178492,0
116,-3.2601506546345984,0
117,-4.233829869679946,0
118,-4.513369720027027,0
119,-4.211558210167626,0
120,-3.4645019188860804,0
121,-2.425796622009298,0
122,-1.3250916070878582,0
123,-0.4127016625785549,0
124,0.07716497300303926,0
125,0.11854560620848686,0
126,-0.16947462130731572,0
127,-0.66482418156581,0
128,-1.2424632137287805,0
129,-1.7723711850765573,0
130,-2.1240514377820636,0
131,-2.2018989827736277,0
132,-2.063171875508121,0
133,-1.8069778322358014,0
134,-1.5296474599337309,0
135,-1.2912756079379777,0
136,-1.1265614424014017,0
137,-1.0692805637678604,0
138,-1.122641984041829,0
139,-1.2382422191269007,0
140,-1.362703354504257,0
141,-1.4514166155512873,0
142,-1.4984711438518759,0
143,-1.508627946135418,0
144,-1.4871185909176567,0
145,-1.4453619589131685,0
146,-1.3991401815950297,0
147,-1.364224659984483,0
148,-1.348427887329804,0
149,-1.3460386425984097,0
150,-1.3500315964383476,0
151,-1.3542370518357854,0
152,-1.3563136944402878,0
153,-1.354992755717323,0
154,-1.349143675049187,0
155,-1.3394692843022247,0
156,-1.3279733268872465,0
157,-1.3166767434941111,0
158,-1.3067692095937553,0
159,-1.298018992423897,0
160,-1.2900551102128621,0
161,-1.2825544828648996,0
162,-1.2753880517114635,0
163,-1.268473477050991,0
164,-1.261734876514449,0
165,-1.2551835641995532,0
166,-1.2488931091700821,0
167,-1.2429379674457703,0
168,-1.2373556067087836,0
169,-1.232119846923527,0
170,-1.2271982218896855,0
171,-1.2225590140263736,0
172,-1.2181656870933077,0
173,-1.2139772440920427,0
174,-1.2099522370739815,0
175,-1.2060434701834029,0
176,-1.2021996183610835,0
177,-1.1983692941649067,0
178,-1.1945034284144749,0
179,-1.190556966336577,0
180,-1.1864852528685146,0
181,-1.1822445337528993,0
182,-1.1778018790005826,0
183,-1.1731300379701244,0
184,-1.1682042056067234,0
185,-1.163032594026408,0
186,-1.1576472811724918,0
187,-1.152079972642095,0
188,-1.1462863547957052,0
189,-1.1400896415534996,0
190,-1.13329974956012,0
191,-1.1258612905740368,0
192,-1.118364464883694,0
193,-1.1115956905557414,0
194,-1.1062174216903793,0
195,-1.1011848706187897,0
196,-1.094211567505199,0
197,-1.0828579551299173,0
198,-1.0539456015398347,0
199,-0.9754636580704346,0
200,-0.8134956049619981,0
201,-0.5337395561118125,0
202,-0.10003718449081678,0
203,0.5243372310231411,0
204,1.3702814367959402,0
205,2.38778233361374,0
206,3.467616171334102,0
207,4.49898171440448,0
208,5.35164387652255,0
209,5.861070773192374,0
210,5.859231937392073,0
211,5.223865557378564,0
212,4.044703213994567,0
213,2.4727952182784865,0
214,0.6643444678984833,0
215,-1.1523528179695106,0
216,-2.6959163558586394,0
217,-3.68531064981955,0
218,-3.9805055056068013,0
219,-3.691896952196223,0
220,-2.9556327826133972,0
221,-1.9241059828191251,0
222,-0.8254124937627307,0
223,0.09033344378379371,0
224,0.5874183536759161,0
225,0.6336991172747124,0
226,0.34785251832740105,0
227,-0.1478593562846211,0
228,-0.7283372860447315,0
229,-1.2634112556774642,0
230,-1.6223856153355531,0
231,-1.7070267895246374,0
232,-1.5717424956382495,0
233,-1.315773888886337,0
234,-1.035885261103703,0
235,-0.7934235468245799,0
236,-0.6233338501793786,0
237,-0.5596163066146869,0
238,-0.6070608972842095,0
239,-0.7179183105399443,0
240,-0.8389493278170485,0
241,-0.9250614964435783,0
242,-0.9697283021263412,0
243,-0.9778244529405724,0
244,-0.9546464901395277,0
245,-0.9115376875809236,0
246,-0.8643766734713446,0
247,-0.8290720169558856,0
248,-0.8139279767247739,0
249,-0.8134841157331466,0
250,-0.8208301822576286,0
251,-0.829817050829307,0
252,-0.8378641920593831,0
253,-0.8434263217757559,0
254,-0.8450812264358734,0
255,-0.8431981810887694,0
256,-0.8394984583688784,0
257,-0.8357283946763914,0
258,-0.8328402445818093,0
259,-0.8303397216992754,0
260,-0.8275789598542159,0
261,-0.8239936485223236,0
262,-0.8195177787294757,0
263,-0.8142795384296964,0
264,-0.8084137459623022,0
265,-0.8021404113680755,0
266,-0.7957442335372309,0
267,-0.7895111681294693,0
268,-0.7836918435782129,0
269,-0.778472123964085,0
270,-0.7740309424739982,0
271,-0.7705196836926872,0
272,-0.7678377440458547,0
273,-0.7657524633595338,0
274,-0.7640297300266639,0
275,-0.7624298174643614,0
276,-0.7607087091699959,0
277,-0.7586223020228882,0
278,-0.7559287066396002,0
279,-0.7523901179204318,0
280,-0.7477691713322291,0
281,-0.7418700550179173,0
282,-0.7348701867715834,0
283,-0.7271427125124804,0
284,-0.7190646194702276,0
285,-0.7110451439804166,0
286,-0.7035183129772864,0
287,-0.6969180872047971,0
288,-0.6916058492760955,0
289,-0.6878082217052713,0
290,-0.6857371751754759,0
291,-0.6856539182272315,0
292,-0.687800605247396,0
293,-0.692285443716,0
294,-0.6991032625149146,0
295,-0.7065815954725172,0
296,-0.7117583949618769,0
297,-0.7115410783718171,0
298,-0.6925862215438868,0
299,-0.622395356866094,0
300,-0.46637087684557044,0
301,-0.18965745419256286,0
302,0.2435790977175929,0
303,0.8693270128880677,0
304,1.7183770526958444,0
305,2.742512954543393,0
306,3.8320337678192686,0
307,4.875446324599845,0
308,5.7427102775505166,0
309,6.268905641440969,0
310,6.285259860235404,0
311,5.665573949114931,0
312,4.495582332312057,0
313,2.9268840782306333,0
314,1.1156856670981616,0
315,-0.7114195774652552,0
316,-2.272724746803453,0
317,-3.2862689615887715,0
318,-3.6046378766767426,0
319,-3.335064694300302,0
320,-2.613131204479619,0
321,-1.5895585029166783,0
322,-0.4910023935127782,0
323,0.4320996032272084,0
324,0.9421236009133178,0
325,1.0001697495264688,0
326,0.7238984447455661,0
327,0.2352337892542693,0
328,-0.3411934478990665,0
329,-0.8755969236025857,0
330,-1.2376118323110437,0
331,-1.3269605585702888,0
332,-1.1950588999349958,0
333,-0.9410080285391864,0
334,-0.6617158856122001,0
335,-0.4195210516363065,0
336,-0.24935990951898426,0
337,-0.18517548681753954,0
338,-0.23304918606801886,0
339,-0.3456519248159257,0
340,-0.469614802479116,0
341,-0.5591265218881236,0
342,-0.6067734367882618,0
343,-0.6173083143818858,0
344,-0.5958625779980979,0
345,-0.5534687815254142,0
346,-0.5058659052512603,0
347,-0.46886246341845633,0
348,-0.4510151023173846,0
349,-0.44688942133217663,0
350,-0.4494564635591341,0
351,-0.45242395441006317,0
352,-0.4533478627161408,0
353,-0.4510558512746456,0
354,-0.4444870955172845,0
355,-0.43432887660620045,0
356,-0.42267124039536497,0
357,-0.41163751073523175,0
358,-0.40259387780264116,0
359,-0.3954364021669293,0
360,-0.38989228285908506,0
361,-0.38571692280692466,0
362,-0.38266930587017994,0
363,-0.38042887378808105,0
364,-0.3786777036197911,0
365,-0.3771809894623463,0
366,-0.3757710323427323,0
367,-0.3742817778466047,0
368,-0.3725134945207979,0
369,-0.3702006393490466,0
370,-0.3670700510504913,0
371,-0.3628801629054723,0
372,-0.3577282161160736,0
373,-0.35192264900785,0
374,-0.34577496273089614,0
375,-0.33959118096925156,0
376,-0.3336728778546372,0
377,-0.32832151540686394,0
378,-0.323840665572,0
379,-0.32053805005976677,0
380,-0.3187218746956876,0
381,-0.3186610372067073,0
382,-0.3201664638937521,0
383,-0.32275010804237403,0
384,-0.3259205903343036,0
385,-0.3292179863613231,0
386,-0.332208080617603,0
387,-0.3344568782616115,0
388,-0.3354612230729317,0
389,-0.3345810567514947,0
390,-0.3311602256100454,0
391,-0.3246945068783808,0
392,-0.3158222439162294,0
393,-0.305764092323482,0
394,-0.2956502450973581,0
395,-0.28498488934629945,0
396,-0.2719350784550693,0
397,-0.2545546575832561,0
398,-0.22113108693434813,0
399,-0.14049495013876756,0
400,0.020828448056368964,0
401,0.29666187153887247,0
402,0.7230285364307503,0
403,1.3368978201834718,0
404,2.1706405118508676,0
405,3.1795880932261484,0
406,4.25533078770308,0
407,5.287411317911266,0
408,6.147705177146216,0
409,6.672663388861365,0
410,6.694507233355335,0
411,6.084817277759044,0
412,4.924985330209161,0
413,3.365940667367574,0
414,1.562716317464336,0
415,-0.26103027385032906,0
416,-1.8245142807708268,0
417,-2.846128200735411,0
418,-3.172402886685011,0
419,-2.9084593299919894,0
420,-2.1905328926747947,0
421,-1.1688341614651963,0
422,-0.06849487118244427,0
423,0.8604225030270134,0
424,1.3792067891311557,0
425,1.4428676015232564,0
426,1.16866921487287,0
427,0.6789021290652706,0
428,0.098434097955204,0
429,-0.44263243772840394,0
430,-0.8135603209241015,0
431,-0.9114956774712516,0
432,-0.7846618357632245,0
433,-0.5322428077433795,0
434,-0.25150665793088334,0
435,-0.0060272057005293506,0
436,0.16901603710503882,0
437,0.23951199670996415,0
438,0.19787394005078174,0
439,0.09073786664353628,0
440,-0.028634946578294726,0
441,-0.11398330090619786,0
442,-0.1572601812014539,0
443,-0.16340744949445346,0
444,-0.13770947040862863,0
445,-0.09120153855173622,0
446,-0.039794991519524085,0
447,0.0004903519952900379,0
448,0.020537127139540715,0
449,0.025429863280522463,0
450,0.0220017141241146,0
451,0.016427340576250112,0
452,0.011369260593086747,0
453,0.008362249121367188,0
454,0.00884635395663707,0
455,0.012558253098700194,0
456,0.01778153757875791,0
457,0.02275788594201887,0
458,0.026449489133593525,0
459,0.029310620636046496,0
460,0.03198067873990381,0
461,0.03504218455781149,0
462,0.038667299564112766,0
463,0.0428200807586236,0
464,0.047456647071272076,0
465,0.05245213895498211,0
466,0.0576121936561575,0
467,0.06274039473185018,0
468,0.06767236761069996,0
469,0.07231052297362785,0
470,0.07656562114437544,0
471,0.08035101533102124,0
472,0.08366721279559698,0
473,0.08659684590126322,0
474,0.08922548582568338,0
475,0.09164403952085352,0
476,0.09394802164346788,0
477,0.0962330859328822,0
478,0.09859287904170709,0
479,0.10111683703360588,0
480,0.1038938655279083,0
481,0.10700992051830505,0
482,0.11047835612219079,0
483,0.11424633354768388,0
484,0.11825715979800262,0
485,0.12242350501070987,0
486,0.1266314208674249,0
487,0.13076646723957858,0
488,0.1347799814749427,0
489,0.13876219080788343,0
490,0.1428209532488289,0
491,0.14697113560663394,0
492,0.15074075137217824,0
493,0.1535157870846243,0
494,0.1547703082431297,0
495,0.1555618729239654,0
496,0.15833225987318097,0
497,0.16562399251305038,0
498,0.18926630481950843,0
499,0.26082514124472106,0
500,0.41439093620793277,0
501,0.6843317594543152,0
502,1.1065878304738028,0
503,1.717648574105205,0
504,2.5499371990597943,0
505,3.560862526392163,0
506,4.641857620882722,0
507,5.6820106970037365,0
508,6.553613732829931,0
509,7.09302964404875,0
510,7.131990747544733,0
511,6.538650237504598,0
512,5.389932634520075,0
513,3.8369961217392787,0
514,2.034672167909431,0
515,0.2046033041843607,0
516,-1.372447507450812,0
517,-2.4143489761925383,0
518,-2.7607665523246747,0
519,-2.513603707090474,0
520,-1.8088183495004313,0
521,-0.7953023238979735,0
522,0.30347379405586805,0
523,1.2374164656874598,0
524,1.766422510808787,0
525,1.8389635616646345,0
526,1.5714001918574214,0
527,1.0859704600375186,0
528,0.5073616442254902,0
529,-0.034431167287952924,0
530,-0.4087183823026258,0
531,-0.5105783407925568,0
532,-0.38510098791007596,0
533,-0.13157926562543515,0
534,0.15233942386327065,0
535,0.4018021660148706,0
536,0.5813317293997384,0
537,0.6566208117806036,0
538,0.618563752374556,0
539,0.513027585879262,0
540,0.3931267451412697,0
541,0.30551656004376254,0
542,0.2590898586644698,0
543,0.24909398685177003,0
544,0.2704697182106735,0
545,0.3125612715462601,0
546,0.35966908546823434,0
547,0.39594638372483304,0
548,0.41210333175441644,0
549,0.4132464590991607,0
550,0.40639460532333277,0
551,0.39794992639973037,0
552,0.39070050269024126,0
553,0.3861343786580479,0
554,0.38565362306477463,0
555,0.38900289798934456,0
556,0.3944240269901701,0
557,0.4001077938765157,0
558,0.4049292921154907,0
559,0.40927592327114104,0
560,0.4137374890548505,0
561,0.4188544438820224,0
562,0.4247794812816719,0
563,0.4314411846946073,0
564,0.43875828770934083,0
565,0.4465707418944121,0
566,0.4546466271402656,0
567,0.4627515358100242,0
568,0.47068148608781357,0
569,0.4783001774816597,0
570,0.4854804358934475,0
571,0.49209453227234234,0
572,0.4980712233631196,0
573,0.5034128383200479,0
574,0.5081257483407039,0
575,0.5122215149198689,0
576,0.5157164635326633,0
577,0.5186270874026758,0
578,0.5209679742768791,0
579,0.5227494454005304,0
580,0.523981242380788,0
581,0.5246759952793348,0
582,0.5248852093514608,0
583,0.5246941822501205,0
584,0.5241881644794462,0
585,0.5234226092881124,0
586,0.5224254529481771,0
587,0.5212238808915572,0
588,0.5199075134688578,0
589,0.5187066860550786,0
590,0.5178709948546038,0
591,0.517562747014162,0
592,0.5174452298250654,0
593,0.5170229473965785,0
594,0.5158783903563064,0
595,0.5151339227527387,0
596,0.5173426326256398,0
597,0.5251503899216928,0
598,0.5500160885213097,0
599,0.6233919618741581,0
600,0.7794874184266617,0
601,1.0527594183357516,0
602,1.4789764299882568,0
603,2.09421231252812,0
604,2.930957241556101,0
605,3.948763953054986,0
606,5.039003544119354,0
607,6.090362416991088,0
608,6.97559072464522,0
609,7.53104735895642,0
610,7.588035112134257,0
611,7.011473757960915,0
612,5.873707768666496,0
613,4.326281836878353,0
614,2.5240615288661674,0
615,0.6868642466698442,0
616,-0.9044048892761554,0
617,-1.9669428336012773,0
618,-2.3334842072938637,0
619,-2.1023388508805376,0
620,-1.4089907191801228,0
621,-0.4008696943393797,0
622,0.7002411253332288,0
623,1.643871037986277,0
624,2.188259730437336,0
625,2.2749472086591567,0
626,2.0189223628039157,0
627,1.5419961968059477,0
628,0.9683026000875218,0
629,0.4273500834011828,0
630,0.0494050903041614,0
631,-0.05901568586317962,0
632,0.060250639684218066,0
633,0.308281247368935,0
634,0.5875548912408739,0
635,0.832422890798521,0
636,1.0075804126894075,0
637,1.0790201646467534,0
638,1.036631721738729,0
639,0.9259616926393236,0
640,0.8004639797072329,0
641,0.7076297587175333,0
642,0.6573176454936759,0
643,0.6446916377323528,0
644,0.6646209583876355,0
645,0.7065364014867148,0
646,0.7546595469563685,0
647,0.7930258069762803,0
648,0.8118867988042417,0
649,0.8160677226804007,0
650,0.8124796833745866,0
651,0.8074652506373463,0
652,0.8037984564411538,0
653,0.8028982791209324,0
654,0.8061093344180865,0
655,0.8131658957874912,0
656,0.8222503432316595,0
657,0.83148432445234,0
658,0.8396381042480261,0
659,0.8470126620538354,0
660,0.8541296954111631,0
661,0.8614674524673791,0
662,0.869134840286625,0
663,0.8769974557510021,0
664,0.8849078851892171,0
665,0.892642181262088,0
666,0.8999021902869152,0
667,0.9063868091425025,0
668,0.911823767691189,0
669,0.9160092914768231,0
670,0.9187495559264581,0
671,0.9198527733011364,0
672,0.91932397192522,0
673,0.9174468102062743,0
674,0.9145246439145664,0
675,0.9108658702514124,0
676,0.9067838044009927,0
677,0.9025919598748505,0
678,0.8986020448308246,0
679,0.8951214501826605,0
680,0.8924569350610569,0
681,0.8909125795315667,0
682,0.8906215400854445,0
683,0.8914773221935954,0
684,0.8933550123815251,0
685,0.8961007588125559,0
686,0.8995323074683395,0
687,0.903466402983589,0
688,0.9077789321945114,0
689,0.9124881509347791,0
690,0.9176333034171349,0
691,0.9231725676815841,0
692,0.9285613857208649,0
693,0.9330839421724237,0
694,0.9360934804895448,0
695,0.9384385108478003,0
696,0.9424440688086919,0
697,0.9505241474204371,0
698,0.9734392704213941,0
699,1.0421755198082412,0
700,1.1907227134146279,0
701,1.4533084722690037,0
702,1.8657795188620712,0
703,2.4647004628056726,0
704,3.283529224931631,0
705,4.2849095829248665,0
706,5.3611316538114595,0
707,6.401416779353838,0
708,7.27989672910983,0
709,7.833894610357448,0
710,7.895226682826213,0
711,7.326644347442217,0
712,6.195930934001573,0
713,4.654268689560252,0
714,2.8558239301838966,0
715,1.0178146124625194,0
716,-0.5795170834258856,0
717,-1.6535105141123543,0
718,-2.0308821429700745,0
719,-1.8069341921165574,0
720,-1.1174476090309926,0
721,-0.1091929133369336,0
722,0.9975477511882956,0
723,1.9522226553466753,0
724,2.511828208300206,0
725,2.611272330567382,0
726,2.364383226644973,0
727,1.892853839728629,0
728,1.320575688257668,0
729,0.7768750878052646,0
730,0.39190346460275827,0
731,0.2739597348062095,0
732,0.38460951150263656,0
733,0.6252421209858866,0
734,0.8984106104419525,0
735,1.1375989827403046,0
736,1.3075875632309797,0
737,1.3746076633694007,0
738,1.3275039530532418,0
739,1.2113935090474923,0
740,1.0799994855045116,0
741,0.9815585558768821,0
742,0.926921676946279,0
743,0.9111567418298209,0
744,0.9290282214722172,0
745,0.9700236105323521,0
746,1.0182584828866483,0
747,1.057622640159557,0
748,1.0778870015528443,0
749,1.0835551635505338,0
750,1.0814004216892577,0
751,1.0776731003558389,0
752,1.0751169370028468,0
753,1.0750936320937947,0
754,1.078904842078773,0
755,1.086289920905496,0
756,1.0953880966526708,0
757,1.1042675347434014,0
758,1.1116099269665956,0
759,1.1176441756184636,0
760,1.1228392922297021,0
761,1.1276269140684125,0
762,1.1321743188066098,0
763,1.1365277635483573,0
764,1.1407288571549725,0
765,1.1447449690660005,0
766,1.1484669675192085,0
767,1.151782277963702,0
768,1.1546055933041772,0
769,1.1569208306740266,0
770,1.1587227286829733,0
771,1.160003644564196,0
772,1.1607941331533278,0
773,1.1612159841862184,0
774,1.161400686589929,0
775,1.1614846188639183,0
776,1.1616092288233881,0
777,1.1619161953210861,0
778,1.1625454902337795,0
779,1.1636327228800694,0
780,1.1653128156134402,0
781,1.1677209287231747,0
782,1.1709015457387202,0
783,1.1747307422000646,0
784,1.179066571696533,0
785,1.1837390253490063,0
786,1.1885488224898346,0
787,1.1932954355281142,0
788,1.197834244693216,0
789,1.2021644735248147,0
790,1.2063081618194893,0
791,1.2102134420362514,0
792,1.2134049650932763,0
793,1.2153641633659553,0
794,1.2156477981953402,0
795,1.2152624217061057,0
796,1.2167360925744073,0
797,1.2226857784615042,0
798,1.2436168834453456,0
799,1.310466972553486,0
800,1.4574381851657912,0
801,1.718948542786142,0
802,2.1308322185705775,0
803,2.7293681330303343,0
804,3.548114069750958,0
805,4.551977694461294,0
806,5.633380515076401,0
807,6.681245989906356,0
808,7.570239101259084,0
809,8.137845044275403,0
810,8.215564881824202,0
811,7.663311987451622,0
812,6.543900503077133,0
813,5.008537929551672,0
814,3.2111976752750424,0
815,1.366968759935268,0
816,-0.24413486874403723,0
817,-1.3391623280298806,0
818,-1.7384938297826675,0
819,-1.533763277922783,0
820,-0.8605781727147526,0
821,0.1353655849124471,0
822,1.2357637723827246,0
823,2.19043063866401,0
824,2.755659582635447,0
825,2.860166596975854,0
826,2.6169566103552615,0
827,2.1480445385226323,0
828,1.5775219087853398,0
829,1.0349682632101522,0
830,0.6508592889746398,0
831,0.5356051990771167,0
832,0.6541252099021593,0
833,0.9070386403316892,0
834,1.1957919475199077,0
835,1.4518037241469608,0
836,1.638723194834767,0
837,1.7218295608154914,0
838,1.6877564781854881,0
839,1.5799530782181654,0
840,1.4512133548066553,0
841,1.3493037241206334,0
842,1.2857747481266244,0
843,1.2568963117993601,0
844,1.2587903322503249,0
845,1.2824661057935152,0
846,1.3134014524221218,0
847,1.336807731254979,0
848,1.343448854172672,0
849,1.3389615064853122,0
850,1.3314463582852305,0
851,1.328517840921043,0
852,1.3334865055036804,0
853,1.3465268141895872,0
854,1.367561070353896,0
855,1.3949981641462925,0
856,1.425599575841229,0
857,1.4560446823846325,0
858,1.4835919898367371,0
859,1.5070617083175,0
860,1.5255346520285982,0
861,1.5380622009046796,0
862,1.5441865217107946,0
863,1.5448831806779302,0
864,1.541317469816689,0
865,1.5345827758549313,0
866,1.5256937352687456,0
867,1.5156610135905664,0
868,1.505521009686425,0
869,1.4963799852913837,0
870,1.489355944679189,0
871,1.485561052831785,0
872,1.4855805363679633,0
873,1.4889128517438979,0
874,1.4949183055101507,0
875,1.5029619393350535,0
876,1.5124140124694,0
877,1.5226450502611113,0
878,1.533023967456785,0
879,1.542915276617022,0
880,1.551682745032078,0
881,1.5586929133609757,0
882,1.5635904167411694,0
883,1.5666098372776958,0
884,1.5680621707518552,0
885,1.5682312410880292,0
886,1.567370748696111,0
887,1.5657329028241522,0
888,1.5636226529907495,0
889,1.5614900781818946,0
890,1.5598100046783123,0
891,1.558987971683639,0
892,1.5588170194587965,0
893,1.558647849041235,0
894,1.5578519508447322,0
895,1.5572043791902628,0
896,1.5590457375844082,0
897,1.565808903505353,0
898,1.58736670113844,0
899,1.654203896718359,0
900,1.80034534888718,0
901,2.0600148104605935,0
902,2.46891959149995,0
903,3.0633847383535144,0
904,3.877402324586727,0
905,4.87851344040352,0
906,5.959685665268791,0
907,7.009912915495258,0
908,7.904744099399323,0
909,8.482226601642509,0
910,8.57392061007311,0
911,8.037414827608917,0
912,6.9306200707554995,0
913,5.404611141598501,0
914,3.6130559673636853,0
915,1.76877120355571,0
916,0.15135831845219627,0
917,-0.9561208612389076,0
918,-1.3680199433458098,0
919,-1.1722554930409523,0
920,-0.5044081271965228,0
921,0.49070200998885216,0
922,1.5965010596294626,0
923,2.562619918268135,0
924,3.1441470784759935,0
925,3.263018804070824,0
926,3.030711994325928,0
927,2.5689660347175733,0
928,2.0014776280750017,0
929,1.4574774285139311,0
930,1.0671672339525158,0
931,0.9423775753190556,0
932,1.0515827784050502,0
933,1.2961061791616342,0
934,1.5779031033333824,0
935,1.8279274588047094,0
936,2.010277451828829,0
937,2.09088551361779,0
938,2.055807572072527,0
939,1.9483824535409557,0
940,1.8220737471153527,0
941,1.725739040330162,0
942,1.671916084116742,0
943,1.6558001490006564,0
944,1.6722890266632429,0
945,1.711334722403312,0
946,1.7572017847249228,0
947,1.793846096019691,0
948,1.810454922884499,0
949,1.8112085297665383,0
950,1.8029562340228,0
951,1.7921075164798328,0
952,1.7816869098774117,0
953,1.7733298799311175,0
954,1.7686575245938108,0
955,1.767827141467403,0
956,1.769302408577994,0
957,1.7714530771172854,0
958,1.7731944152685761,0
959,1.775015794859691,0
960,1.77768882091624,0
961,1.7819535553858092,0
962,1.7881370024886571,0
963,1.7960084288679545,0
964,1.8052613942678117,0
965,1.8155199211804354,0
966,1.8263270846056432,0
967,1.837221422273912,0
968,1.8477657066297244,0
969,1.85759311762361,0
970,1.866349549641917,0
971,1.8736784322795126,0
972,1.879358122329918,0
973,1.8835876516200316,0
974,1.8866397001743986,0
975,1.8887915264811528,0
976,1.8903257514150127,0
977,1.8915252995749259,0
978,1.8926715790722013,0
979,1.8940415621484386,0
980,1.895911414260584,0
981,1.898558425119416,0
982,1.9021417108793879,0
983,1.9064621713892118,0
984,1.9112561790853115,0
985,1.9162338375938037,0
986,1.921074295463955,0
987,1.9254549635895795,0
988,1.9291029009123484,0
989,1.931891385347112,0
990,1.933720479133154,0
991,1.9344274212246537,0
992,1.933481156551067,0
993,1.9305239550332287,0
994,1.9253154956830125,0
995,1.918972161907522,0
996,1.9142188720999205,0
997,1.9138792346690652,0
998,1.9277791251791754,0
999,1.986508115158189,0
1000,2.124486468000828,0
1001,2.3763162639636777,0
1002,2.7779665426787545,0
1003,3.3657511816385925,0
1004,4.173930547138763,0
1005,5.172542646199813,0
1006,6.2550153860217,0
1007,7.310279915266558,0
1008,8.214615971041528,0
1009,8.80653110060393,0
1010,8.917514455653873,0
1011,8.402836571523887,0
1012,7.315224129450872,0
1013,5.805227847232825,0
1014,4.025857198459386,0
1015,2.1872776670327836,0
1016,0.568253595838693,0
1017,-0.548454960661855,0
1018,-0.9717342208016975,0
1019,-0.7859680688047463,0
1020,-0.12709580614573435,0
1021,0.8605038422791313,0
1022,1.9619101280284996,0
1023,2.927218570047593,0
1024,3.511164688015442,0
1025,3.6296852500730656,0
1026,3.3933782019693393,0
1027,2.92446835280483,0
1028,2.3470215272284607,0
1029,1.7906758336831414,0
1030,1.3861195949852623,0
1031,1.247264139956721,0
1032,1.3465232132612224,0
1033,1.5852046545037644,0
1034,1.8648830455198713,0
1035,2.115145740834481,0
1036,2.299614939569881,0
1037,2.383976284358566,0
1038,2.3528392418368957,0
1039,2.2484846152306055,0
1040,2.1241400988893324,0
1041,2.0288285043951175,0
1042,1.9758660458827428,0
1043,1.9606010189536736,0
1044,1.9781160873207242,0
1045,2.018717017735115,0
1046,2.0668701386643775,0
1047,2.106688958111652,0
1048,2.1272054695618774,0
1049,2.1325441434706707,0
1050,2.1297146449202895,0
1051,2.1253250058317974,0
1052,2.1225166228726153,0
1053,2.122589598760699,0
1054,2.1267692454273344,0
1055,2.134867285029763,0
1056,2.144956810649612,0
1057,2.155004309680555,0
1058,2.1634890511631117,0
1059,2.170474621750334,0
1060,2.1763296352276504,0
1061,2.181394180155015,0
1062,2.185799615744624,0
1063,2.189682323924334,0
1064,2.193204330873645,0
1065,2.196460521441783,0
1066,2.1994626935553803,0
1067,2.2022175000095463,0
1068,2.2047543692925924,0
1069,2.2071735839362154,0
1070,2.209589165005236,0
1071,2.2121126822322554,0
1072,2.21480544539492,0
1073,2.2176138409607535,0
1074,2.2204609649494924,0
1075,2.2232743333872285,0
1076,2.225986965631676,0
1077,2.228532225177545,0
1078,2.230842050626694,0
1079,2.232843917229596,0
1080,2.234464428642703,0
1081,2.235631350508342,0
1082,2.23634243744807,0
1083,2.236821351654489,0
1084,2.2373419551608196,0
1085,2.238152754389032,0
1086,2.2394704915681114,0
1087,2.241509918930245,0
1088,2.2445324283553556,0
1089,2.248946515055506,0
1090,2.2551896044205813,0
1091,2.2636417225664167,0
1092,2.2740358523286477,0
1093,2.285310071829137,0
1094,2.2963105005344175,0
1095,2.3071925884610587,0
1096,2.319762131276198,0
1097,2.3359327193338317,0
1098,2.3641945463430485,0
1099,2.4339240231118673,0
1100,2.5786343350434695,0
1101,2.8320044654160785,0
1102,3.2293648019014833,0
1103,3.807502739614602,0
1104,4.60169724765385,0
1105,5.585257429908025,0
1106,6.652902084819849,0
1107,7.694281532438157,0
1108,8.587166214417461,0
1109,9.171337079448769,0
1110,9.278997380721087,0
1111,8.764018788539358,0
1112,7.674609403043434,0
1113,6.161262498596919,0
1114,4.376787139218793,0
1115,2.529134865133313,0
1116,0.8966192644153872,0
1117,-0.23789607568281435,0
1118,-0.6775870957657135,0
1119,-0.5026715498094232,0
1120,0.15097979029931663,0
1121,1.13980880198988,0
1122,2.250683366780788,0
1123,3.2333161584957346,0
1124,3.841128303396266,0
1125,3.9830381579111185,0
1126,3.7676004361543676,0
1127,3.3164775980457435,0
1128,2.7530601325708246,0
1129,2.2063412180758535,0
1130,1.8064474973714537,0
1131,1.6682282018651078,0
1132,1.7673821219377466,0
1133,2.005585061445557,0
1134,2.2846277145692846,0
1135,2.5333179604577944,0
1136,2.71536347172339,0
1137,2.7967892656011246,0
1138,2.7613791362235496,0
1139,2.6508943272392966,0
1140,2.5189084434180344,0
1141,2.4151671679433364,0
1142,2.354211851800202,0
1143,2.33150129983296,0
1144,2.3421502940210375,0
1145,2.376667239100466,0
1146,2.419573542940429,0
1147,2.454991256981657,0
1148,2.4716571628301365,0
1149,2.4734783793085673,0
1150,2.4674747263637173,0
1151,2.460300508173705,0
1152,2.4551785104372668,0
1153,2.4532899363929515,0
1154,2.455705276189511,0
1155,2.462132110139488,0
1156,2.470495706076007,0
1157,2.478601119428132,0
1158,2.4847344203542834,0
1159,2.4887739333273378,0
1160,2.490926999255445,0
1161,2.491375003724707,0
1162,2.490157049330501,0
1163,2.4876380546653123,0
1164,2.4843109756652524,0
1165,2.4806040552402275,0
1166,2.476860373758871,0
1167,2.4734172136937658,0
1168,2.470633217885134,0
1169,2.4689382275577745,0
1170,2.468776900132591,0
1171,2.470591664553495,0
1172,2.4746896082718024,0
1173,2.480828125990303,0
1174,2.4886064419881766,0
1175,2.497628019345936,0
1176,2.5075019611651648,0
1177,2.5178377581009976,0
1178,2.5282435647337063,0
1179,2.538323051270455,0
1180,2.5476789481339863,0
1181,2.5559150413110414,0
1182,2.562711452779079,0
1183,2.5680745265693656,0
1184,2.5721068687972375,0
1185,2.5748866712600527,0
1186,2.5764595771749526,0
1187,2.5768689779804643,0
1188,2.5762019886808156,0
1189,2.574693498328991,0
1190,2.5726095836647125,0
1191,2.5701641466647747,0
1192,2.5671022181271943,0
1193,2.563040256851928,0
1194,2.5576679975583008,0
1195,2.5519367496400402,0
1196,2.548488685367713,0
1197,2.5500852025664855,0
1198,2.5656518599616676,0
1199,2.6250925161397753,0
1200,2.762769772144304,0
1201,3.013196891929951,0
1202,3.4122340522565446,0
1203,3.9960174810229687,0
1204,4.799112060279861,0
1205,5.7963834792562565,0
1206,6.882188919180629,0
1207,7.945195595928409,0
1208,8.862938125143874,0
1209,9.47479988119262,0
1210,9.61199829146,0
1211,9.125435167137564,0
1212,8.057324480374469,0
1213,6.5580099838567065,0
1214,4.780456949120264,0
1215,2.9307437544420036,0
1216,1.287018138655761,0
1217,0.13255805991159075,0
1218,-0.32996969878827187,0
1219,-0.17607777880370623,0
1220,0.4587589996841239,0
1221,1.4320844989674233,0
1222,2.5330172231323247,0
1223,3.5116212333891363,0
1224,4.120836710620043,0
1225,4.263353672870462,0
1226,4.046314153183628,0
1227,3.5915699765745215,0
1228,3.022591649537905,0
1229,2.4684745236349177,0
1230,2.059534952141918,0
1231,1.912219313622555,0
1232,2.006091930603769,0
1233,2.2428696836601616,0
1234,2.5240043330213844,0
1235,2.776961982143355,0
1236,2.96494540228491,0
1237,3.0537530053600834,0
1238,3.025814898740654,0
1239,2.921759086937549,0
1240,2.7949358605600914,0
1241,2.695221322710427,0
1242,2.637916844615766,0
1243,2.618483102978847,0
1244,2.6320401410278897,0
1245,2.6692733450530235,0
1246,2.7147383927207724,0
1247,2.752542255194863,0
1248,2.7711128954685806,0
1249,2.7741039815497084,0
1250,2.7685210450394164,0
1251,2.7610379829769705,0
1252,2.754998026546055,0
1253,2.751802572409144,0
1254,2.7527929101716486,0
1255,2.75799843887347,0
1256,2.765624013662452,0
1257,2.773739670188913,0
1258,2.780865751991591,0
1259,2.7871204247102197,0
1260,2.7929760856407757,0
1261,2.7988815901176416,0
1262,2.8050337660164204,0
1263,2.8114072096477085,0
1264,2.8179421615938733,0
1265,2.824516519440549,0
1266,2.830921012426042,0
1267,2.8369398708598874,0
1268,2.8423773178853597,0
1269,2.847109013078929,0
1270,2.85102656480733,0
1271,2.854019560810807,0
1272,2.855988703212125,0
1273,2.8570191716553577,0
1274,2.8572712504301694,0
1275,2.8569094746155725,0
1276,2.8561041513490535,0
1277,2.8550260219601125,0
1278,2.8538445774866887,0
1279,2.852724810289738,0
1280,2.8518307012883812,0
1281,2.8513271882062448,0
1282,2.851370365750036,0
1283,2.8520030872113944,0
1284,2.853221067571505,0
1285,2.8549964034414272,0
1286,2.8572678854763582,0
1287,2.8599717777378513,0
1288,2.8630852525847574,0
1289,2.866733705003401,0
1290,2.8710760896631604,0
1291,2.876224083247981,0
1292,2.8817904043304425,0
1293,2.887038900927261,0
1294,2.8912309837160315,0
1295,2.8948415112241044,0
1296,2.900075310341424,0
1297,2.9092698281463494,0
1298,2.9305286571015627,0
1299,2.9929941283264623,0
1300,3.1306055702574103,0
1301,3.377438789675904,0
1302,3.7690079064815665,0
1303,4.341759104997916,0
1304,5.131015096124537,0
1305,6.114682953543013,0
1306,7.188310663064569,0
1307,8.241083848452744,0
1308,9.151776364688992,0
1309,9.760906823675846,0
1310,9.90020995675265,0
1311,9.419245809668805,0
1312,8.355372191398336,0
1313,6.858561223420607,0
1314,5.0813728540945835,0
1315,3.227440864581623,0
1316,1.5741149771439058,0
1317,0.40448828411587545,0
1318,-0.07372331225902418,0
1319,0.06830156682373456,0
1320,0.6948960750447699,0
1321,1.6640734719306511,0
1322,2.7666906410672203,0
1323,3.7529249044121866,0
1324,4.375149274603382,0
1325,4.5297099282751905,0
1326,4.322046854625586,0
1327,3.8740375786052397,0
1328,3.3090729189139148,0
1329,2.756182122240769,0
1330,2.3457073690414805,0
1331,2.1954390929698793,0
1332,2.2887457621146954,0
1333,2.5274489274562346,0
1334,2.8127185372756376,0
1335,3.070731154591549,0
1336,3.264206332874202,0
1337,3.358761669560408,0
1338,3.3355606818591577,0
1339,3.2340962263501982,0
1340,3.107538939031918,0
1341,3.0059165101838867,0
1342,2.945351695931674,0
1343,2.9215029077259627,0
1344,2.929768867794401,0
1345,2.9612867702473604,0
1346,3.0009266595618875,0
1347,3.0330572770294566,0
1348,3.0460855079901124,0
1349,3.043675944574072,0
1350,3.0330961521374182,0
1351,3.021313781465487,0
1352,3.0119895336785407,0
1353,3.0064554364952754,0
1354,3.0058394549423286,0
1355,3.010008054681923,0
1356,3.0169625039579557,0
1357,3.0245535715311616,0
1358,3.031052778935547,0
1359,3.0363325770280216,0
1360,3.0406461200105377,0
1361,3.04422527904801,0
1362,3.047096313008342,0
1363,3.0493660308485655,0
1364,3.05124619786528,0
1365,3.052889422383653,0
1366,3.0543592143891374,0
1367,3.0557118322716708,0
1368,3.057022211609133,0
1369,3.0584368520722287,0
1370,3.060119391012698,0
1371,3.062231639662848,0
1372,3.0648962992490647,0
1373,3.0680674251917246,0
1374,3.071622012486447,0
1375,3.0754404532001307,0
1376,3.0794090384470176,0
1377,3.083414543611876,0
1378,3.087342576278601,0
1379,3.091074238025977,0
1380,3.094489543780593,0
1381,3.0974693728745475,0
1382,3.099917855960037,0
1383,3.101860915129071,0
1384,3.103382661618487,0
1385,3.1045450804194203,0
1386,3.1053761224857332,0
1387,3.105900920736679,0
1388,3.1061828104295546,0
1389,3.1064335673944505,0
1390,3.1069010164600326,0
1391,3.107790284856314,0
1392,3.108824477965175,0
1393,3.1094120886726797,0
1394,3.1089713489299142,0
1395,3.108085745131417,0
1396,3.109106307477296,0
1397,3.1145316823254516,0
1398,3.1322442784352083,0
1399,3.1911928324575545,0
1400,3.3254780220832005,0
1401,3.5693237382447216,0
1402,3.95833556589288,0
1403,4.528851283285866,0
1404,5.316183256153212,0
1405,6.300517734487219,0
1406,7.377904542837047,0
1407,8.437306694642128,0
1408,9.357967627578113,0
1409,9.980831472673291,0
1410,10.137410134131919,0
1411,9.675302660275637,0
1412,8.626314846639353,0
1413,7.140034029224434,0
1414,5.368943324426816,0
1415,3.5145544551923766,0
1416,1.8536748143688857,0
1417,0.6695080912501443,0
1418,0.1749044270203921,0
1419,0.30354282768469476,0
1420,0.919865817289446,0
1421,1.8826142951115992,0
1422,2.9846670100173665,0
1423,3.976327168768309,0
1424,4.60934676783557,0
1425,4.773658121634009,0
1426,4.57274122241682,0
1427,4.128371760244061,0
1428,3.563737615933454,0
1429,3.007669782475524,0
1430,2.590408570125395,0
1431,2.4308744399283313,0
1432,2.5162079174480745,0
1433,2.7486642270578816,0
1434,3.0296152272391983,0
1435,3.2844309797827935,0
1436,3.475797830724882,0
1437,3.5696263931338224,0
1438,3.546332069539691,0
1439,3.4446986992965005,0
1440,3.318190075735286,0
1441,3.2174365349192646,0
1442,3.1597749111158926,0
1443,3.140709204689826,0
1444,3.155188470624953,0
1445,3.1940709684846076,0
1446,3.24181606185689,0
1447,3.2823255356657026,0
1448,3.30326823398777,0
1449,3.307578471734736,0
1450,3.3020568837876505,0
1451,3.293233820769762,0
1452,3.284461726375886,0
1453,3.277244049070905,0
1454,3.2731755083451155,0
1455,3.2726435304591655,0
1456,3.2741313945106807,0
1457,3.2759550548402374,0
1458,3.2768229063465784,0
1459,3.2770448289719023,0
1460,3.2773391642347978,0
1461,3.278405080330753,0
1462,3.28069121980416,0
1463,3.284261213503965,0
1464,3.2890311086614794,0
1465,3.2948574537082327,0
1466,3.3015058505584327,0
1467,3.308733841877228,0
1468,3.316316387804201,0
1469,3.3241000258243067,0
1470,3.3319496776041886,0
1471,3.3397286203103875,0
1472,3.3472889992244097,0
1473,3.354567520566661,0
1474,3.3615622342074056,0
1475,3.3682759260811093,0
1476,3.374717402713424,0
1477,3.380896008635569,0
1478,3.38681999952464,0
1479,3.3924931249483095,0
1480,3.3979179689793124,0
1481,3.4030978938440617,0
1482,3.4080433899964158,0
1483,3.4127441922822173,0
1484,3.4171723661100137,0
1485,3.4212780390161095,0
1486,3.4249766079950525,0
1487,3.428180340441981,0
1488,3.430837117556167,0
1489,3.433043240495049,0
1490,3.4349336685018996,0
1491,3.436604937878723,0
1492,3.4376931044584853,0
1493,3.437643981203155,0
1494,3.4359971381481076,0
1495,3.43341067689023,0
1496,3.4323461699298834,0
1497,3.4354290623948893,0
1498,3.4503029305773434,0
1499,3.505671342313076,0
1500,3.635761754546673,0
1501,3.874912482609438,0
1502,4.258815221289498,0
1503,4.82387677750251,0
1504,5.6056065645154955,0
1505,6.5866777351843915,0
1506,7.663928541261189,0
1507,8.726332720264278,0
1508,9.653806033065946,0
1509,10.287982645900948,0
1510,10.460385244915837,0
1511,10.017002265312337,0
1512,8.98422298378684,0
1513,7.511032381862049,0
1514,5.7495158192237295,0
1515,3.898741072046903,0
1516,2.2345818756363243,0
1517,1.0400082267037702,0
1518,0.5324364696426311,0
1519,0.6502859645992269,0
1520,1.2577662639775857,0
1521,2.2139612499251955,0
1522,3.3134869471741464,0
1523,4.306914752784437,0
1524,4.945827351226878,0
1525,5.114197613661336,0
1526,4.913797773233583,0
1527,4.46668895456085,0
1528,3.8962479083031045,0
1529,3.331490072017288,0
1530,2.9029412273634687,0
1531,2.7309559389605704,0
1532,2.8068316408569762,0
1533,3.033214399147613,0
1534,3.311367446019922,0
1535,3.5655415478665176,0
1536,3.758041543100336,0
1537,3.8547465294772154,0
1538,3.8350463008384503,0
1539,3.7366439232292534,0
1540,3.612971437302248,0
1541,3.5149161375245206,0
1542,3.4607710366228135,0
1543,3.446041251728588,0
1544,3.4655368986535153,0
1545,3.5101470535357735,0
1546,3.564236268784812,0
1547,3.6115512113441945,0
1548,3.639346838989978,0
1549,3.6501267128986186,0
1550,3.650536269378178,0
1551,3.646978352311072,0
1552,3.642742283810287,0
1553,3.6392326279579708,0
1554,3.638019928377531,0
1555,3.6395224327383886,0
1556,3.64221712147897,0
1557,3.644395617669001,0
1558,3.6447149654094173,0
1559,3.6434316692062874,0
1560,3.641239728604549,0
1561,3.638815945901173,0
1562,3.6366075433449403,0
1563,3.634821982702228,0
1564,3.6335981262344164,0
1565,3.633018166256799,0
1566,3.6330715882056146,0
1567,3.6337389528282285,0
1568,3.6350170363961274,0
1569,3.6369740906734958,0
1570,3.6396980548166975,0
1571,3.643275393222646,0
1572,3.647763923383882,0
1573,3.65306105201327,0
1574,3.658946616904246,0
1575,3.665200789188266,0
1576,3.6716098762902925,0
1577,3.6779607812085118,0
1578,3.684039393400133,0
1579,3.689627103337971,0
1580,3.6945040536070706,0
1581,3.698451084587695,0
1582,3.701271655837806,0
1583,3.7029955938371533,0
1584,3.7038325473251166,0
1585,3.703976741749411,0
1586,3.7035870093710814,0
1587,3.702818719167777,0
1588,3.7018603849187244,0
1589,3.701048682275498,0
1590,3.7007616702768322,0
1591,3.70134296611203,0
1592,3.702665853936642,0
1593,3.704111308649117,0
1594,3.704929295562666,0
1595,3.705434426386983,0
1596,3.707778944185801,0
1597,3.7142963752380567,0
1598,3.731989678896232,0
1599,3.7888818748216133,0
1600,3.918908201871134,0
1601,4.156103537919318,0
1602,4.535848427337285,0
1603,5.094578440294587,0
1604,5.868215980329547,0
1605,6.84214000754457,0
1606,7.914280586801884,0
1607,8.973870652755357,0
1608,9.901716041542677,0
1609,10.540419577023975,0
1610,10.721763776762185,0
1611,10.290487706573597,0
1612,9.26776574568304,0
1613,7.802086234687209,0
1614,6.045202627757116,0
1615,4.193803285141433,0
1616,2.522816040532625,0
1617,1.3150131159288492,0
1618,0.792189154038315,0
1619,0.8977580478708873,0
1620,1.4957365676086813,0
1621,2.44554680741863,0
1622,3.543574846177013,0
1623,4.54060895654438,0
1624,5.188079216649358,0
1625,5.364034515674932,0
1626,5.1683584030480585,0
1627,4.723356261143103,0
1628,4.15255703917847,0
1629,3.585115040028147,0
1630,3.1518001798245647,0
1631,2.9742794071592784,0
1632,3.0480062519566977,0
1633,3.2759174486661844,0
1634,3.558868554403637,0
1635,3.819686045782726,0
1636,4.019950277835431,0
1637,4.125190310396008,0
1638,4.113498296851356,0
1639,4.0211327252791165,0
1640,3.901174152250702,0
1641,3.804428032246597,0
1642,3.749854206169206,0
1643,3.733069295025423,0
1644,3.7491876904681223,0
1645,3.789582875968633,0
1646,3.838984726025177,0
1647,3.8814407240350017,0
1648,3.9042600061052632,0
1649,3.909959529183253,0
1650,3.9054851201684144,0
1651,3.8975661031002784,0
1652,3.8898716056193527,0
1653,3.8838701341236406,0
1654,3.881029274728013,0
1655,3.8817124217113754,0
1656,3.8843065376256174,0
1657,3.886993943883908,0
1658,3.888296632964224,0
1659,3.8883315332684734,0
1660,3.887683292703967,0
1661,3.8869212381671243,0
1662,3.8863931798196,0
1663,3.8862294449987864,0
1664,3.8865022421672752,0
1665,3.8872289796395445,0
1666,3.8883326923062027,0
1667,3.889726565089803,0
1668,3.8913388530954585,0
1669,3.893169073742972,0
1670,3.895237787879241,0
1671,3.8975642412090834,0
1672,3.900147877248126,0
1673,3.9029538965413475,0
1674,3.9059269128684098,0
1675,3.909014093124803,0
1676,3.912168849963883,0
1677,3.915345253146583,0
1678,3.9184964306505807,0
1679,3.921571025577306,0
1680,3.924516347447624,0
1681,3.9272803288168032,0
1682,3.929820935403236,0
1683,3.9321272816727726,0
1684,3.934213649465247,0
1685,3.9360756962563292,0
1686,3.937673059832353,0
1687,3.9389615580986193,0
1688,3.9399278015932255,0
1689,3.9407060754637633,0
1690,3.9414748813990785,0
1691,3.9423819801296474,0
1692,3.9431274041429867,0
1693,3.9431320123999396,0
1694,3.9418846202289797,0
1695,3.9398981427134347,0
1696,3.939555401791614,0
1697,3.9434391046777195,0
1698,3.958469233167491,0
1699,4.012513496361974,0
1700,4.139755337385727,0
1701,4.374468123473034,0
1702,4.752227862992603,0
1703,5.309427660502575,0
1704,6.081809371195233,0
1705,7.05683657606737,0
1706,8.133000067879408,0
1707,9.199204108349605,0
1708,10.136526743602763,0
1709,10.787980275667849,0
1710,10.98502048804659,0
1711,10.570657911768338,0
1712,9.560251406772071,0
1713,8.101751341155286,0
1714,6.34716292761249,0
1715,4.491409681017727,0
1716,2.809007239341672,0
1717,1.583115153928376,0
1718,1.0402738488691,0
1719,1.1296854816046613,0
1720,1.7157697501028326,0
1721,2.6588338422663518,0
1722,3.7576054555046396,0
1723,4.763048658019243,0
1724,5.425834173889058,0
1725,5.6174827225254,0
1726,5.435154391188424,0
1727,5.000708524294052,0
1728,4.437140371779401,0
1729,3.873048621987004,0
1730,3.438756816063154,0
1731,3.2564764651724523,0
1732,3.325190697251539,0
1733,3.5482235484109155,0
1734,3.8267594265799554,0
1735,4.082970253560067,0
1736,4.278441172009696,0
1737,4.379105753718825,0
1738,4.362558438977934,0
1739,4.264324632450119,0
1740,4.1378856343465005,0
1741,4.0347000720932344,0
1742,3.9751234363185532,0
1743,3.9549714008119086,0
1744,3.969125287587483,0
1745,4.008878844291544,0
1746,4.058770090782662,0
1747,4.102585810043127,0
1748,4.127139638648921,0
1749,4.134389209904069,0
1750,4.1310185879697165,0
1751,4.123520183864271,0
1752,4.115404188746512,0
1753,4.108105846590159,0
1754,4.103328117721549,0
1755,4.101738726721749,0
1756,4.101995883415889,0
1757,4.102532579596923,0
1758,4.102096967167037,0
1759,4.101025201277515,0
1760,4.100152480406373,0
1761,4.100300494076026,0
1762,4.102068778611531,0
1763,4.105591092456411,0
1764,4.110625395923575,0
1765,4.1168561693549455,0
1766,4.123871952941797,0
1767,4.131250449788422,0
1768,4.138583343083381,0
1769,4.14553325792302,0
1770,4.151785267593681,0
1771,4.1570232815418775,0
1772,4.160918837640013,0
1773,4.16335928689177,0
1774,4.16452686336059,0
1775,4.164626408152565,0
1776,4.163869110961541,0
1777,4.162466884222161,0
1778,4.160630766874079,0
1779,4.158567333814076,0
1780,4.156481737623496,0
1781,4.154579684457229,0
1782,4.153073194014579,0
1783,4.1520817182893595,0
1784,4.151594080904082,0
1785,4.151571376642215,0
1786,4.151938092520155,0
1787,4.152614515401103,0
1788,4.153549486614196,0
1789,4.154838814153691,0
1790,4.156625455066448,0
1791,4.159025059529583,0
1792,4.161714232121915,0
1793,4.164022055460891,0
1794,4.165284500528326,0
1795,4.165811426856955,0
1796,4.167812873083538,0
1797,4.173718596088439,0
1798,4.189979606575693,0
1799,4.243891113376373,0
1800,4.369481553320009,0
1801,4.600861447953901,0
1802,4.973417831659655,0
1803,5.523534873231367,0
1804,6.287207799013517,0
1805,7.254421776175503,0
1806,8.324761011406006,0
1807,9.387275121455847,0
1808,10.32375912576913,0
1809,10.978136061982454,0
1810,11.18201104266942,0
1811,10.777244731898111,0
1812,9.773801011698588,0
1813,8.319092957882203,0
1814,6.565116795644676,0
1815,4.704774008359506,0
1816,3.0118248630879707,0
1817,1.7695255722190155,0
1818,1.2086587110769913,0
1819,1.2841212814712444,0
1820,1.8604606513131374,0
1821,2.7985411970664353,0
1822,3.89917122436293,0
1823,4.913504773769224,0
1824,5.59164692147454,0
1825,5.798819688038651,0
1826,5.62944437405901,0
1827,5.205068179150602,0
1828,4.64829083736226,0
1829,4.087285346810266,0
1830,3.6520624454290394,0
1831,3.4654374952035836,0
1832,3.530065197429654,0
1833,3.7496119370348913,0
1834,4.025424949458326,0
1835,4.278875428912623,0
1836,4.47136419720043,0
1837,4.569066333039937,0
1838,4.548959789051682,0
1839,4.445632980733219,0
1840,4.312801437162982,0
1841,4.202395081350817,0
1842,4.136020419589326,0
1843,4.109793285600636,0
1844,4.118623942694108,0
1845,4.153985520794405,0
1846,4.200490693574376,0
1847,4.24192757060811,0
1848,4.264887863762306,0
1849,4.271021289541675,0
1850,4.2670112487235485,0
1851,4.259373461228909,0
1852,4.251711931882323,0
1853,4.245399923469533,0
1854,4.242052129951821,0
1855,4.242305590745786,0
1856,4.244756954845492,0
1857,4.247755741230856,0
1858,4.249943326496509,0
1859,4.251539841267013,0
1860,4.253296791020504,0
1861,4.255953955809288,0
1862,4.260039181213426,0
1863,4.2656817839671195,0
1864,4.272651172548485,0
1865,4.280637597754855,0
1866,4.289233909325249,0
1867,4.29802106895268,0
1868,4.306592982193913,0
1869,4.3146140729741385,0
1870,4.321772662803008,0
1871,4.327756054145625,0
1872,4.332236324825788,0
1873,4.33506220255723,0
1874,4.336394130600245,0
1875,4.336424336548816,0
1876,4.335351492383609,0
1877,4.333375062690342,0
1878,4.330693703464533,0
1879,4.3275016339595,0
1880,4.323991559594092,0
1881,4.320356674902124,0
1882,4.3167982959637134,0
1883,4.313490103664131,0
1884,4.310547631595885,0
1885,4.3080629345788095,0
1886,4.306090912295525,0
1887,4.304681859567845,0
1888,4.303912498686754,0
1889,4.304005598478005,0
1890,4.3052341001930206,0
1891,4.307846818897984,0
1892,4.311663194493504,0
1893,4.316020246407319,0
1894,4.320051818276451,0
1895,4.323798495370334,0
1896,4.32922919275731,0
1897,4.338553647058146,0
1898,4.357702563828962,0
1899,4.4133173269936625,0
1900,4.53920281600293,0
1901,4.769240402203414,0
1902,5.138557399562062,0
1903,5.683487283530386,0
1904,6.4403604896782545,0
1905,7.401765896486642,0
1906,8.468564590077607,0
1907,9.530074476472656,0
1908,10.468901948610144,0
1909,11.130029482297672,0
1910,11.345337219156676,0
1911,10.955759465578453,0
1912,9.965960720190566,0
1913,8.52265970896257,0
1914,6.777390564416548,0
1915,4.920560053631422,0
1916,3.2246093800882116,0
1917,1.972381951666546,0
1918,1.3981855747060834,0
1919,1.4622892776203753,0
1920,2.028878737898559,0
1921,2.9588292147299304,0
1922,4.0545358678862735,0
1923,5.067400525829146,0
1924,5.747901848372118,0
1925,5.956034790369764,0
1926,5.784294498724122,0
1927,5.354882613791232,0
1928,4.790974121868711,0
1929,4.221279162816783,0
1930,3.776461827876289,0
1931,3.5808362312582416,0
1932,3.6417042401251365,0
1933,3.863417370640705,0
1934,4.1466948236404315,0
1935,4.411226846756712,0
1936,4.6173043072697695,0
1937,4.730445089745618,0
1938,4.726155176138037,0
1939,4.637148834073846,0
1940,4.51647271998838,0
1941,4.4156114405742315,0
1942,4.356532394212577,0
1943,4.335200631805436,0
1944,4.346847736108718,0
1945,4.383491855061457,0
1946,4.4301937661578945,0
1947,4.471111732816972,0
1948,4.492995626072958,0
1949,4.497546035104101,0
1950,4.491813305713373,0
1951,4.482703560120814,0
1952,4.474284942693376,0
1953,4.468080118129213,0
1954,4.465476710122881,0
1955,4.466901851629418,0
1956,4.470713742772238,0
1957,4.475000164625077,0
1958,4.478118631293179,0
1959,4.479993936797447,0
1960,4.481115497595461,0
1961,4.4819627953795305,0
1962,4.4828124697995655,0
1963,4.48376669867204,0
1964,4.484935457407086,0
1965,4.486385156728993,0
1966,4.4880834572162565,0
1967,4.489985014601878,0
1968,4.492056444774415,0
1969,4.49433435941545,0
1970,4.4968807577206364,0
1971,4.49975675993751,0
1972,4.503005681790128,0
1973,4.50661342395688,0
1974,4.510478781850409,0
1975,4.514492736451422,0
1976,4.518552801498803,0
1977,4.522557357563945,0
1978,4.5264040382352935,0
1979,4.529986073869185,0
1980,4.5331950869421975,0
1981,4.535923129291885,0
1982,4.53807104954147,0
1983,4.5396223955222625,0
1984,4.540721085910993,0
1985,4.541514550653869,0
1986,4.5421125601799694,0
1987,4.542619850153669,0
1988,4.543165565049972,0
1989,4.544023772057863,0
1990,4.545521816531236,0
1991,4.5479658583174585,0
1992,4.551245310614856,0
1993,4.554786883601843,0
1994,4.5578256346085455,0
1995,4.560451901151636,0
1996,4.564710261385112,0
1997,4.572908528099448,0
1998,4.590790532137064,0
1999,4.644648477961753,0
2000,4.7683799010519445,0
2001,4.995955853584921,0
2002,5.362558091396588,0
2003,5.904525795657225,0
2004,6.658151698157807,0
2005,7.61819246962117,0
2006,8.686457116512791,0
2007,9.752140470563305,0
2008,10.698241131153024,0
2009,11.37043395587946,0
2010,11.600486248160596,0
2011,11.228111103384428,0
2012,10.252268831498952,0
2013,8.818845923205881,0
2014,7.079382413849667,0
2015,5.222328305231036,0
2016,3.519247661571809,0
2017,2.2530689106247985,0
2018,1.6619207869820012,0
2019,1.7121183303693268,0
2020,2.2680097598064393,0
2021,3.1909456742710467,0
2022,4.285405891107322,0
2023,5.303109054825191,0
2024,5.994307155556741,0
2025,6.213180884028093,0
2026,6.049438830080756,0
2027,5.625235358941533,0
2028,5.0636230682417365,0
2029,4.4931439854245525,0
2030,4.044413302503404,0
2031,3.8424734066830006,0
2032,3.898592699899847,0
2033,4.11768836165868,0
2034,4.400467745813199,0
2035,4.6656320035346095,0
2036,4.8730060058599545,0
2037,4.988122156379933,0
2038,4.985728183287003,0
2039,4.89729947224115,0
2040,4.775879783741178,0
2041,4.673162727158827,0
2042,4.612144973362582,0
2043,4.588930220584992,0
2044,4.598746470645346,0
2045,4.633781307505278,0
2046,4.679176268680465,0
2047,4.719087663573821,0
2048,4.740062379958812,0
2049,4.743470316428736,0
2050,4.736355145916418,0
2051,4.725639622450003,0
2052,4.715488002360272,0
2053,4.707456441526633,0
2054,4.702994878494919,0
2055,4.702646893190435,0
2056,4.704861049450449,0
2057,4.707790784008389,0
2058,4.70983828940753,0
2059,4.7109594307467235,0
2060,4.71170876755159,0
2061,4.712632758030088,0
2062,4.714080556557373,0
2063,4.716158500490836,0
2064,4.7188208900601545,0
2065,4.721955746876383,0
2066,4.725351111138573,0
2067,4.728780833559976,0
2068,4.732029792448057,0
2069,4.734952244388272,0
2070,4.73742935984847,0
2071,4.739341567554146,0
2072,4.7405523809094126,0
2073,4.740984869347276,0
2074,4.740765011803712,0
2075,4.7400553938161485,0
2076,4.739025214227778,0
2077,4.7378446174371,0
2078,4.736683059255376,0
2079,4.735705631723349,0
2080,4.735075722688365,0
2081,4.734957094011666,0
2082,4.735521559998289,0
2083,4.736895540507816,0
2084,4.739059158324852,0
2085,4.74195135903813,0
2086,4.745472969612291,0
2087,4.749519326386166,0
2088,4.7540082613570664,0
2089,4.759001210220568,0
2090,4.764616066447063,0
2091,4.7709522520716705,0
2092,4.777704759700474,0
2093,4.784189640728991,0
2094,4.78974614715432,0
2095,4.794553240526131,0
2096,4.800767675711116,0
2097,4.8108332045057915,0
2098,4.830359578015554,0
2099,4.885315036827392,0
2100,5.009725350396529,0
2101,5.237689818359047,0
2102,5.604483478175719,0
2103,6.146469789925272,0
2104,6.899759462285028,0
2105,7.861064677571269,0
2106,8.933042661537915,0
2107,10.004601192893666,0
2108,10.958940025810232,0
2109,11.64228526698226,0
2110,11.886131629774537,0
2111,11.528899465264344,0
2112,10.563669498914617,0
2113,9.135339242428689,0
2114,7.395743740320975,0
2115,5.531769545887662,0
2116,3.8143958553535295,0
2117,2.5269859606047724,0
2118,1.9116425667451828,0
2119,1.9412420288158785,0
2120,2.480676224415217,0
2121,3.3920875150894467,0
2122,4.482393256209176,0
2123,5.503854289873017,0
2124,6.206206987378545,0
2125,6.437507869125044,0
2126,6.284081651989964,0
2127,5.867601532584051,0
2128,5.310567793699888,0
2129,4.74091713386625,0
2130,4.288781308077961,0
2131,4.079431240457966,0
2132,4.127673966853831,0
2133,4.338810245059419,0
2134,4.613940743071776,0
2135,4.871323110570006,0
2136,5.070811448313983,0
2137,5.178476486639931,0
2138,5.168872431730137,0
2139,5.072725446575697,0
2140,4.943593427852932,0
2141,4.833886212771609,0
2142,4.76815537953817,0
2143,4.742995772090723,0
2144,4.753351918266389,0
2145,4.791176078431549,0
2146,4.841294452617976,0
2147,4.887460393339385,0
2148,4.9156274764764625,0
2149,4.926425034149383,0
2150,4.926487262321456,0
2151,4.922350952552191,0
2152,4.9178754615808336,0
2153,4.914339164368848,0
2154,4.913262198916143,0
2155,4.915381775416551,0
2156,4.91931658976734,0
2157,4.923364041724084,0
2158,4.926050426442336,0
2159,4.927440062676597,0
2160,4.928230768355944,0
2161,4.929114171982738,0
2162,4.930590521354344,0
2163,4.932893840339788,0
2164,4.936001866641217,0
2165,4.939799057257147,0
2166,4.944068780330243,0
2167,4.948578960035881,0
2168,4.953107665363649,0
2169,4.957501635222935,0
2170,4.961636081116112,0
2171,4.965385608926443,0
2172,4.968608289899232,0
2173,4.971194188055516,0
2174,4.973203247139603,0
2175,4.974735341110321,0
2176,4.975897029559451,0
2177,4.976795900984394,0
2178,4.97753891056545,0
2179,4.97822869486757,0
2180,4.978966087938238,0
2181,4.979852246600967,0
2182,4.980996211513386,0
2183,4.98247928530958,0
2184,4.984254525109007,0
2185,4.9862308477483595,0
2186,4.98827863988886,0
2187,4.9902623149867305,0
2188,4.992066971679063,0
2189,4.993719806586123,0
2190,4.9953077190880295,0
2191,4.996901637991731,0
2192,4.99818016394258,0
2193,4.998447037462126,0
2194,4.997096645990197,0
2195,4.994336202573854,0
2196,4.992371789795853,0
2197,4.993721638105534,0
2198,5.003814488793789,0
2199,5.048221314693751,0
2200,5.161031972132303,0
2201,5.376413220832795,0
2202,5.729672219011947,0
2203,6.257286407481902,0
2204,6.995659309610307,0
2205,7.943960345883125,0
2206,9.006314887126056,0
2207,10.07189743392852,0
2208,11.024636327809926,0
2209,11.711884084356306,0
2210,11.965421559236608,0
2211,11.623018514732392,0
2212,10.672427000596798,0
2213,9.257707252115773,0
2214,7.530300779741959,0
2215,5.674702921316595,0
2216,3.960374173788638,0
2217,2.6702381078369677,0
2218,2.0493053368726466,0
2219,2.076293755372378,0
2220,2.6158009815722663,0
2221,3.5298551019926077,0
2222,4.626937764811453,0
2223,5.659369096493026,0
2224,6.376953730057078,0
2225,6.622501974677312,0
2226,6.479531018900223,0
2227,6.0699773926913565,0
2228,5.516537425649523,0
2229,4.9472838816300495,0
2230,4.492608828635361,0
2231,4.278693307862754,0
2232,4.324627798847582,0
2233,4.536567726473495,0
2234,4.8154726284257,0
2235,5.078474278053465,0
2236,5.284720784864637,0
2237,5.400115392443278,0
2238,5.398352782131154,0
2239,5.308672159054894,0
2240,5.184431853600873,0
2241,5.078036275037346,0
2242,5.0148864314592565,0
2243,4.99164012108031,0
2244,5.003220966133264,0
2245,5.041717378498562,0
2246,5.092020776314822,0
2247,5.137857056155584,0
2248,5.1649723653052915,0
2249,5.173622679025245,0
2250,5.170406124138364,0
2251,5.161847509805097,0
2252,5.151876736243695,0
2253,5.141778980910204,0
2254,5.133250810032007,0
2255,5.127327120738009,0
2256,5.1229035113033765,0
2257,5.11852661187498,0
2258,5.112953173851847,0
2259,5.106460373328031,0
2260,5.099994331428417,0
2261,5.094497005841747,0
2262,5.090724911607448,0
2263,5.089113263932295,0
2264,5.0895433719815815,0
2265,5.091706639071518,0
2266,5.095192395665421,0
2267,5.099573201936296,0
2268,5.104430928507241,0
2269,5.109415320816205,0
2270,5.114206183850575,0
2271,5.118482853827479,0
2272,5.121908643173806,0
2273,5.124213789655158,0
2274,5.125513480023459,0
2275,5.126035798220823,0
2276,5.126015586374528,0
2277,5.125688803627467,0
2278,5.125290828035947,0
2279,5.125052769631785,0
2280,5.125203835852721,0
2281,5.125973509486209,0
2282,5.127598912070258,0
2283,5.130263657049997,0
2284,5.133860877807489,0
2285,5.138183793216211,0
2286,5.142986718726888,0
2287,5.148017486527056,0
2288,5.153042903350239,0
2289,5.157970189994173,0
2290,5.16276957188108,0
2291,5.167397604911309,0
2292,5.17143084310116,0
2293,5.174086700253632,0
2294,5.174836639532048,0
2295,5.173978623435521,0
2296,5.173827982735454,0
2297,5.17703877508407,0
2298,5.188934208918964,0
2299,5.234738298074786,0
2300,5.348663245683696,0
2301,5.565005262277895,0
2302,5.9191649574856475,0
2303,6.447698703246379,0
2304,7.186873946895481,0
2305,8.137741938663607,0
2306,9.205444576681323,0
2307,10.27890344156666,0
2308,11.242230208560501,0
2309,11.943404084035304,0
2310,12.213978112138951,0
2311,11.890636140306167,0
2312,10.955287530556706,0
2313,9.550757194136878,0
2314,7.82854355220371,0
2315,5.971416837255991,0
2316,4.247873911356115,0
2317,2.9410146072408114,0
2318,2.2991872781750615,0
2319,2.3077115005142437,0
2320,2.8315486089393755,0
2321,3.7331983463972205,0
2322,4.823320220099288,0
2323,5.854777757759829,0
2324,6.577402136357277,0
2325,6.828719119264418,0
2326,6.689084069095199,0
2327,6.280515443826214,0
2328,5.725727966552991,0
2329,5.152746168664856,0
2330,4.692040166243573,0
2331,4.470459711176662,0
2332,4.511192249952673,0
2333,4.7211799620324255,0
2334,5.001155382016838,0
2335,5.267036044137574,0
2336,5.477120362782466,0
2337,5.597030624113958,0
2338,5.599527211268539,0
2339,5.512219205866328,0
2340,5.38814289900189,0
2341,5.279568697405714,0
2342,5.212632081364725,0
2343,5.184012389322782,0
2344,5.188958216922321,0
2345,5.220182710488265,0
2346,5.2631406585006175,0
2347,5.3020234817796315,0
2348,5.322872972463785,0
2349,5.326057022297398,0
2350,5.318628286945863,0
2351,5.307591125811679,0
2352,5.297438833377983,0
2353,5.289804530357235,0
2354,5.28610901418616,0
2355,5.28698904180555,0
2356,5.290924094670644,0
2357,5.296015469207964,0
2358,5.300556864660631,0
2359,5.304342947764877,0
2360,5.307873325603203,0
2361,5.311645617568423,0
2362,5.315978019975442,0
2363,5.320960449521835,0
2364,5.326534564403281,0
2365,5.3325560744407605,0
2366,5.338777710876544,0
2367,5.344934034497662,0
2368,5.3507681292275375,0
2369,5.356090076049167,0
2370,5.360741626600851,0
2371,5.364564203133267,0
2372,5.367383726649717,0
2373,5.369050928761257,0
2374,5.369672364992087,0
2375,5.369452682147513,0
2376,5.368603493658834,0
2377,5.367337622974779,0
2378,5.365867361734369,0
2379,5.36440078932078,0
2380,5.363143980951864,0
2381,5.362303243282733,0
2382,5.362092271468791,0
2383,5.36269626225255,0
2384,5.364071377236126,0
2385,5.366072394842023,0
2386,5.36851471506062,0
2387,5.371206716321063,0
2388,5.373974137974462,0
2389,5.37678127980885,0
2390,5.379658796485439,0
2391,5.382625787782397,0
2392,5.385333857880463,0
2393,5.387035446277746,0
2394,5.387139682398022,0
2395,5.385826873703841,0
2396,5.385310614197196,0
2397,5.388171271286728,0
2398,5.399430729656787,0
2399,5.443746290631666,0
2400,5.555239496221215,0
2401,5.768127101681406,0
2402,6.117693747816574,0
2403,6.640445026776437,0
2404,7.37274049550714,0
2405,8.317791785581809,0
2406,9.38216516080286,0
2407,10.454867222894144,0
2408,11.420506040692366,0
2409,12.12804391503867,0
2410,12.409150438235056,0
2411,12.099841734936255,0
2412,11.176536066657174,0
2413,9.780982734404832,0
2414,8.064613331553447,0
2415,6.2082876672834875,0
2416,4.479237702847942,0
2417,3.160500858933399,0
2418,2.50334372797351,0
2419,2.4995824029900824,0
2420,3.014350578684219,0
2421,3.910352384305627,0
2422,5.000181333513141,0
2423,6.037054172454911,0
2424,6.770698475873203,0
2425,7.033369538383637,0
2426,6.901945724818092,0
2427,6.498390042159105,0
2428,5.9453018723872635,0
2429,5.370517458252151,0
2430,4.904446617684467,0
2431,4.67441335398987,0
2432,4.707553727840013,0
2433,4.911604306445642,0
2434,5.187392813435308,0
2435,5.450087319687317,0
2436,5.65754367211208,0
2437,5.775541386011947,0
2438,5.776382316822009,0
2439,5.686456140970423,0
2440,5.558905181126713,0
2441,5.446289662955036,0
2442,5.375914801814932,0
2443,5.344801958378814,0
2444,5.348188176163829,0
2445,5.3788791805078295,0
2446,5.422370819291237,0
2447,5.4627923893845844,0
2448,5.485963479548828,0
2449,5.491829123176363,0
2450,5.487366173805738,0
2451,5.479529493776093,0
2452,5.472847804691587,0
2453,5.468899009152835,0
2454,5.468907053979464,0
2455,5.473295674755035,0
2456,5.48031594506156,0
2457,5.487809949673025,0
2458,5.4937954829069975,0
2459,5.497770082723484,0
2460,5.499972680554117,0
2461,5.500642581299473,0
2462,5.499845762367903,0
2463,5.497483408294848,0
2464,5.493799235778392,0
2465,5.48916952125628,0
2466,5.483867890457286,0
2467,5.478148322647727,0
2468,5.472272578601546,0
2469,5.46656845984309,0
2470,5.461397069710872,0
2471,5.457119325880338,0
2472,5.454081173779142,0
2473,5.452566349871427,0
2474,5.452505223945374,0
2475,5.453661013018416,0
2476,5.455802704462341,0
2477,5.458700593692184,0
2478,5.462124490722474,0
2479,5.465840054000412,0
2480,5.469610834999907,0
2481,5.473200575935844,0
2482,5.476380154248647,0
2483,5.478948352346419,0
2484,5.480862565140596,0
2485,5.482145339612345,0
2486,5.48278031375916,0
2487,5.4827435367185,0
2488,5.482026899104769,0
2489,5.4807588371292155,0
2490,5.479137532013507,0
2491,5.477351551720923,0
2492,5.475234622683774,0
2493,5.472192160686391,0
2494,5.4676913780015175,0
2495,5.4619026432473134,0
2496,5.457042727456156,0
2497,5.455724728538571,0
2498,5.462788952853075,0
2499,5.502422977622841,0
2500,5.60876021213516,0
2501,5.816044957666493,0
2502,6.159552465835061,0
2503,6.675815501074872,0
2504,7.401214143263818,0
2505,8.340939321663551,0
2506,9.402935068303092,0
2507,10.47617463807258,0
2508,11.445619974835296,0
2509,12.161115107419832,0
2510,12.4543349575141,0
2511,12.160585745231607,0
2512,11.250698039418008,0
2513,9.86515181527923,0
2514,8.15533296727805,0
2515,6.300301720602406,0
2516,4.566015323170026,0
2517,3.235503235846392,0
2518,2.5628292410223796,0
2519,2.546483259229439,0
2520,3.05187844024096,0
2521,3.941950611619119,0
2522,5.031273655625506,0
2523,6.073504634408046,0
2524,6.818331619349462,0
2525,7.0929385805928105,0
2526,6.970579929535493,0
2527,6.5731978010328,0
2528,6.023314227507363,0
2529,5.448609155984851,0
2530,4.979465486183092,0
2531,4.743661768136624,0
2532,4.772300316191354,0
2533,4.973996031754501,0
2534,5.249583348276975,0
2535,5.513390848722443,0
2536,5.722681853325025,0
2537,5.843275031969406,0
2538,5.846932108411082,0
2539,5.758680037806704,0
2540,5.6316378707854495,0
2541,5.518523951133522,0
2542,5.44769075337147,0
2543,5.416420275697287,0
2544,5.419908972859738,0
2545,5.4510298244928865,0
2546,5.495304345097236,0
2547,5.536778844217842,0
2548,5.561039353338376,0
2549,5.567580640776842,0
2550,5.563279943118512,0
2551,5.555020497130893,0
2552,5.547345193904213,0
2553,5.5417948696960195,0
2554,5.539713159694138,0
2555,5.541769285199444,0
2556,5.5464483275214445,0
2557,5.551793946538373,0
2558,5.556009813011795,0
2559,5.5587564424955636,0
2560,5.560472563301152,0
2561,5.561599859436093,0
2562,5.562412843696046,0
2563,5.562978006214665,0
2564,5.563429175012485,0
2565,5.5639172216683335,0
2566,5.5644895231772225,0
2567,5.5651722562218895,0
2568,5.5659986816833795,0
2569,5.567067070426504,0
2570,5.568510642245669,0
2571,5.570462581146844,0
2572,5.573041633016476,0
2573,5.57632804904668,0
2574,5.580185670246292,0
2575,5.584348160810582,0
2576,5.5885541411759,0
2577,5.592543643003823,0
2578,5.596056256182913,0
2579,5.598827484384885,0
2580,5.600590620521388,0
2581,5.601079110467244,0
2582,5.600033279658722,0
2583,5.597237937716996,0
2584,5.592877928034683,0
2585,5.587377664896515,0
2586,5.581125832931805,0
2587,5.574502930849381,0
2588,5.567903870737173,0
2589,5.561857942722617,0
2590,5.556967603473799,0
2591,5.553827478409257,0
2592,5.552690121563391,0
2593,5.553319563609937,0
2594,5.554998023959635,0
2595,5.55733398745557,0
2596,5.561987129645639,0
2597,5.571044552807174,0
2598,5.5886191816551065,0
2599,5.637861514569315,0
2600,5.752353807769199,0
2601,5.965809732157689,0
2602,6.312936644544436,0
2603,6.829779106527335,0
2604,7.55274097111969,0
2605,8.489267827815278,0
2606,9.54910244650736,0
2607,10.62153206119112,0
2608,11.592196396637704,0
2609,12.312184075915777,0
2610,12.613530555781455,0
2611,12.331251599112747,0
2612,11.430967313422537,0
2613,10.052116257897808,0
2614,8.346146779070956,0
2615,6.490334935744626,0
2616,4.749250487843728,0
2617,3.4058680994477757,0
2618,2.7168317296450017,0
2619,2.687370497842667,0
2620,3.18318813988705,0
2621,4.067379660266732,0
2622,5.156441471214339,0
2623,6.204460009075255,0
2624,6.961052056910889,0
2625,7.248450764057558,0
2626,7.136049036827704,0
2627,6.745718863450785,0
2628,6.199859417380332,0
2629,5.625943186748843,0
2630,5.154276053993469,0
2631,4.912990960596553,0
2632,4.93708490115599,0
2633,5.1360851760307495,0
2634,5.410935073700821,0
2635,5.675363940180643,0
2636,5.8862230754409355,0
2637,6.009583520723691,0
2638,6.016915442096909,0
2639,5.932073275424319,0
2640,5.808353673649643,0
2641,5.6988334280387365,0
2642,5.633119610021646,0
2643,5.608963538773768,0
2644,5.621332869310174,0
2645,5.662677705192713,0
2646,5.718058299534265,0
2647,5.770945434644406,0
2648,5.806208263104205,0
2649,5.822392787076383,0
2650,5.825780821829853,0
2651,5.822690182696912,0
2652,5.817184787192833,0
2653,5.810300382997241,0
2654,5.803511716012184,0
2655,5.798153330210937,0
2656,5.793378668004711,0
2657,5.787865646941195,0
2658,5.78043746085416,0
2659,5.771349666169325,0
2660,5.761673125867393,0
2661,5.752484497576967,0
2662,5.744699469370271,0
2663,5.738981195466339,0
2664,5.735510669487087,0
2665,5.734083526813807,0
2666,5.734381894308943,0
2667,5.736065064829845,0
2668,5.738798761076836,0
2669,5.74231261460633,0
2670,5.746372864879898,0
2671,5.750745873403533,0
2672,5.755184101492649,0
2673,5.759429970649014,0
2674,5.7633644836113005,0
2675,5.766979910105136,0
2676,5.770278332205953,0
2677,5.773263351684696,0
2678,5.775938169471053,0
2679,5.778301970032413,0
2680,5.780351622568395,0
2681,5.782084114084822,0
2682,5.783503053730641,0
2683,5.784624421773501,0
2684,5.785515115032059,0
2685,5.786270970460948,0
2686,5.786949153593793,0
2687,5.787598016460736,0
2688,5.7882789848885245,0
2689,5.789185550964329,0
2690,5.790587817743679,0
2691,5.792749692823901,0
2692,5.795605866945923,0
2693,5.798620325451144,0
2694,5.801051686982684,0
2695,5.802596421497292,0
2696,5.805009840873129,0
2697,5.810507369382929,0
2698,5.823141388679386,0
2699,5.865671811049863,0
2700,5.971779361199555,0
2701,6.175301916217415,0
2702,6.5110335378660595,0
2703,7.015133717069858,0
2704,7.724207390792395,0
2705,8.647879837339659,0
2706,9.697765447056884,0
2707,10.763462798728632,0
2708,11.73126407423201,0
2709,12.453513935731875,0
2710,12.762614351051479,0
2711,12.493356048073283,0
2712,11.606184073682066,0
2713,10.239385126626537,0
2714,8.544231037643705,0
2715,6.695755677881273,0
2716,4.956540137731684,0
2717,3.6089707135808795,0
2718,2.911573119151454,0
2719,2.875883659868546,0
2720,3.36742637984952,0
2721,4.2488976609773745,0
2722,5.338168961286585,0
2723,6.389292599836581,0
2724,7.151923593415866,0
2725,7.444146439142058,0
2726,7.331939001334826,0
2727,6.93774087645648,0
2728,6.384469199223477,0
2729,5.800024597024632,0
2730,5.315272318006553,0
2731,5.059289050290474,0
2732,5.071575643454392,0
2733,5.263241679729513,0
2734,5.535220711792834,0
2735,5.7999810442165165,0
2736,6.01321863487386,0
2737,6.1405471106143175,0
2738,6.152469537922174,0
2739,6.070937259546768,0
2740,5.948701289213236,0
2741,5.83847493133575,0
2742,5.770402711804212,0
2743,5.742083832943949,0
2744,5.748590538730262,0
2745,5.782998601379476,0
2746,5.830983504863257,0
2747,5.876511243292945,0
2748,5.904813756477649,0
2749,5.914553640742695,0
2750,5.912484480703848,0
2751,5.905428245250895,0
2752,5.898039893903634,0
2753,5.891835553471291,0
2754,5.888199499355839,0
2755,5.8880339254940175,0
2756,5.890047090969373,0
2757,5.89243591379561,0
2758,5.893528787188534,0
2759,5.893060493054585,0
2760,5.891618396514697,0
2761,5.889798788670552,0
2762,5.888043222778491,0
2763,5.886564703599066,0
2764,5.885501636344868,0
2765,5.884909726569036,0
2766,5.884737650846004,0
2767,5.884909536208929,0
2768,5.885355326767123,0
2769,5.886067708093695,0
2770,5.887077640406187,0
2771,5.888416373565792,0
2772,5.8901017976447205,0
2773,5.89213002245241,0
2774,5.894447100216649,0
2775,5.896952994686067,0
2776,5.899552554565552,0
2777,5.902152262146268,0
2778,5.904658237200125,0
2779,5.906972656937415,0
2780,5.908995278329974,0
2781,5.91062594332198,0
2782,5.911770857463362,0
2783,5.912349966902941,0
2784,5.912385786904288,0
2785,5.9119933574056756,0
2786,5.911252419567429,0
2787,5.910233242179969,0
2788,5.909017913931308,0
2789,5.907818142264587,0
2790,5.906925704420975,0
2791,5.906627685155592,0
2792,5.906894859576393,0
2793,5.9072248122884545,0
2794,5.907010900724357,0
2795,5.90611804946655,0
2796,5.906474715533581,0
2797,5.9105037792516395,0
2798,5.922288332357381,0
2799,5.964269813955086,0
2800,6.070301453354303,0
2801,6.274424956008856,0
2802,6.611600566445634,0
2803,7.118160858589412,0
2804,7.830487527556785,0
2805,8.75942409989224,0
2806,9.8176291254686,0
2807,10.89410767682746,0
2808,11.874877583006487,0
2809,12.6126473122594,0
2810,12.939289833332206,0
2811,12.688529979823757,0
2812,11.814779051601587,0
2813,10.454216822614065,0
2814,8.75823713023692,0
2815,6.901022551148836,0
2816,5.144457451461543,0
2817,3.7717009886900636,0
2818,3.0443623340001147,0
2819,2.9817371154230212,0
2820,3.4505995324181136,0
2821,4.314585800258228,0
2822,5.394286826746479,0
2823,6.445053369929405,0
2824,7.216605920511574,0
2825,7.521951329077794,0
2826,7.422295077034933,0
2827,7.039483616983517,0
2828,6.495794507168946,0
2829,5.918393571504916,0
2830,5.43754262085843,0
2831,5.182055239816483,0
2832,5.194740339979459,0
2833,5.387261679492059,0
2834,5.6603940134660045,0
2835,5.926072717103428,0
2836,6.139529238551012,0
2837,6.26664498444131,0
2838,6.277714246342338,0
2839,6.193491906718931,0
2840,6.066893965107867,0
2841,5.95098402350268,0
2842,5.877160422056703,0
2843,5.843573931920868,0
2844,5.845447059699534,0
2845,5.876008187677082,0
2846,5.9210706158871025,0
2847,5.964612240929717,0
2848,5.991753116431161,0
2849,6.000784327229628,0
2850,5.998444078409432,0
2851,5.9915740902868215,0
2852,5.984936189162375,0
2853,5.980083216170849,0
2854,5.978371975083523,0
2855,5.980702129196161,0
2856,5.985778802301514,0
2857,5.991758206161167,0
2858,5.996915121555182,0
2859,6.000903322843439,0
2860,6.004266532044221,0
2861,6.007560856526725,0
2862,6.011193912261806,0
2863,6.015339645966807,0
2864,6.0200514736368635,0
2865,6.0252338135732275,0
2866,6.03067873988761,0
2867,6.036151977771062,0
2868,6.04142449694686,0
2869,6.046328779041619,0
2870,6.050737250732927,0
2871,6.054522807515785,0
2872,6.057545526642435,0
2873,6.059649020760693,0
2874,6.060803012858946,0
2875,6.061138850587721,0
2876,6.06080489811923,0
2877,6.0599512726549225,0
2878,6.058727764675294,0
2879,6.057280299888168,0
2880,6.055752278587116,0
2881,6.054287155229635,0
2882,6.053034488857682,0
2883,6.0521526916566515,0
2884,6.051772750905615,0
2885,6.051979667156892,0
2886,6.052816185182709,0
2887,6.0543148864848,0
2888,6.056519001412581,0
2889,6.059598804334629,0
2890,6.063808104153635,0
2891,6.069397400837552,0
2892,6.076313812898406,0
2893,6.0840193504666145,0
2894,6.091741332913607,0
2895,6.098958562086933,0
2896,6.107199881482482,0
2897,6.118524532151803,0
2898,6.136486938147724,0
2899,6.182632752980628,0
2900,6.290411115769032,0
2901,6.493496922650938,0
2902,6.826445911299703,0
2903,7.325225011679845,0
2904,8.026263102025302,0
2905,8.942691800714806,0
2906,9.98948820700014,0
2907,11.056259144559135,0
2908,12.02992208591796,0
2909,12.764755686969897,0
2910,13.093309213512006,0
2911,12.8494967564619,0
2912,11.982945387604753,0
2913,10.628761379013193,0
2914,8.938487198486184,0
2915,7.084370910027574,0
2916,5.326316471380505,0
2917,3.947042965509833,0
2918,3.2098759364973497,0
2919,3.1407377088115944,0
2920,3.6065136969880265,0
2921,4.470545749005342,0
2922,5.554911602331073,0
2923,6.615129633486024,0
2924,7.4007373422246046,0
2925,7.720542347469731,0
2926,7.631499312604484,0
2927,7.255583457562845,0
2928,6.71515806403523,0
2929,6.137375015659041,0
2930,5.652614080918898,0
2931,5.3901063016170045,0
2932,5.396651517325518,0
2933,5.585251328999496,0
2934,5.856760881788726,0
2935,6.12242520363886,0
2936,6.336768496296371,0
2937,6.4657321443154565,0
2938,6.479225942794075,0
2939,6.396584240609142,0
2940,6.270664601918099,0
2941,6.154662516702682,0
2942,6.081012088651914,0
2943,6.048232700953446,0
2944,6.051529717830559,0
2945,6.084094224104457,0
2946,6.131691765912204,0
2947,6.178120598901406,0
2948,6.208205676199864,0
2949,6.219670798178175,0
2950,6.219043100606248,0
2951,6.212991474608902,0
2952,6.20619204587741,0
2953,6.200048998653591,0
2954,6.1958576873105216,0
2955,6.194696504267966,0
2956,6.195470151527732,0
2957,6.19649507707325,0
2958,6.196194273851195,0
2959,6.194341067190527,0
2960,6.1916361009429295,0
2961,6.188796227374754,0
2962,6.186396053217413,0
2963,6.184772973929761,0
2964,6.18412613474212,0
2965,6.184450305854277,0
2966,6.185619993955247,0
2967,6.187481473229184,0
2968,6.189885728296282,0
2969,6.192743968047851,0
2970,6.196009016403576,0
2971,6.199634358656987,0
2972,6.203561203221681,0
2973,6.2077100141509405,0
2974,6.211979432469631,0
2975,6.216238111562176,0
2976,6.220358819260439,0
2977,6.224216201412544,0
2978,6.227684610541314,0
2979,6.230634615816189,0
2980,6.232934155869368,0
2981,6.234451194416318,0
2982,6.235059540886899,0
2983,6.234644755347985,0
2984,6.233227727299674,0
2985,6.231038846190769,0
2986,6.2282887257252755,0
2987,6.225177093653193,0
2988,6.221913235286527,0
2989,6.218830786485336,0
2990,6.216350379790746,0
2991,6.214890616337961,0
2992,6.214579633280049,0
2993,6.2150541499257566,0
2994,6.215768241574338,0
2995,6.21641883629057,0
2996,6.218745688927574,0
2997,6.225056565141523,0
2998,6.23900071681881,0
2999,6.2818347783441615,0
3000,6.3872100771348075,0
3001,6.589047306671878,0
3002,6.922110344927489,0
3003,7.422593404979399,0
3004,8.12684346401108,0
3005,9.049124316265967,0
3006,10.105668876269117,0
3007,11.185545564959163,0
3008,12.175409917519573,0
3009,12.929979390157438,0
3010,13.281349264691848,0
3011,13.062537668417848,0
3012,12.217308785864377,0
3013,10.878455307594628,0
3014,9.19731707850535,0
3015,7.344960832770511,0
3016,5.579997216189843,0
3017,4.185461051398935,0
3018,3.4270021717978567,0
3019,3.3379959976293456,0
3020,3.7862752191684206,0
3021,4.63562424800093,0
3022,5.710341795348376,0
3023,6.766903560657792,0
3024,7.55507443212219,0
3025,7.879643747392701,0
3026,7.793071411661526,0
3027,7.4174106801169675,0
3028,6.87506603152187,0
3029,6.293126451028745,0
3030,5.802040267139862,0
3031,5.531368524524084,0
3032,5.53180811256041,0
3033,5.717736898356105,0
3034,5.989963092953536,0
3035,6.258778203945669,0
3036,6.477648519767186,0
3037,6.6122581947167145,0
3038,6.6318468616391,0
3039,6.553997658378906,0
3040,6.43117634829426,0
3041,6.316383807734032,0
3042,6.242761544656097,0
3043,6.208906297614101,0
3044,6.2099657111204944,0
3045,6.239487314327549,0
3046,6.283633442254121,0
3047,6.326461567999446,0
3048,6.352948332927603,0
3049,6.360685356585282,0
3050,6.356423018695276,0
3051,6.34709516604117,0
3052,6.337729808103379,0
3053,6.330019239756706,0
3054,6.325373152587731,0
3055,6.324828349133521,0
3056,6.327240344000131,0
3057,6.330835380167785,0
3058,6.333935014559348,0
3059,6.336181237371441,0
3060,6.338180632673639,0
3061,6.34056021536586,0
3062,6.343810989598612,0
3063,6.348183250852797,0
3064,6.353758166985749,0
3065,6.3603079220328835,0
3066,6.367466536438337,0
3067,6.374837835285711,0
3068,6.382029855347301,0
3069,6.388709516058969,0
3070,6.394587017336781,0
3071,6.399373428217895,0
3072,6.402768080710958,0
3073,6.404450901397465,0
3074,6.404299173842429,0
3075,6.402596305232229,0
3076,6.39968158993813,0
3077,6.395896330532358,0
3078,6.391581567460457,0
3079,6.387074642606296,0
3080,6.38271016250425,0
3081,6.378822731121364,0
3082,6.375752540055382,0
3083,6.373848687236859,0
3084,6.373294525282075,0
3085,6.373918111080354,0
3086,6.375464529707552,0
3087,6.377667227905556,0
3088,6.380268194913145,0
3089,6.383130966806413,0
3090,6.386209527404846,0
3091,6.389457014026607,0
3092,6.3925489750646545,0
3093,6.394663106216779,0
3094,6.395017838069512,0
3095,6.393464930565784,0
3096,6.3919396435227815,0
3097,6.392984388034194,0
3098,6.4003403322282635,0
3099,6.43495665631693,0
3100,6.530666747396838,0
3101,6.72162366689647,0
3102,7.042786136614788,0
3103,7.530568479574633,0
3104,8.221519430027445,0
3105,9.131604483230056,0
3106,10.179055803702225,0
3107,11.253074859789972,0
3108,12.240704175997234,0
3109,12.99777693729753,0
3110,13.356614667995501,0
3111,13.150060022934102,0
3112,12.316753546757191,0
3113,10.987712965421867,0
3114,9.314287405716238,0
3115,7.4659309971960655,0
3116,5.699328773174473,0
3117,4.2972627821861415,0
3118,3.5269977114914135,0
3119,3.4288551491583004,0
3120,3.871133770005467,0
3121,4.71747625892262,0
3122,5.7938108563787125,0
3123,6.857050895189687,0
3124,7.6568258389804615,0
3125,7.994119108332031,0
3126,7.916770433638529,0
3127,7.546964804032741,0
3128,7.007212399034259,0
3129,6.424599747879186,0
3130,5.929703641458796,0
3131,5.652440124650254,0
3132,5.647412778568505,0
3133,5.830527820216843,0
3134,6.1026553460971495,0
3135,6.373263581329297,0
3136,6.594809800367989,0
3137,6.73280081473134,0
3138,6.7559172355964,0
3139,6.680060458787029,0
3140,6.557367887810146,0
3141,6.440717942327806,0
3142,6.364027617357828,0
3143,6.326071659245662,0
3144,6.321979318151616,0
3145,6.345779465533702,0
3146,6.384200971737817,0
3147,6.421725013106308,0
3148,6.443651902913417,0
3149,6.447602252038709,0
3150,6.44070919236435,0
3151,6.4303348685398785,0
3152,6.422022101910793,0
3153,6.417919566784734,0
3154,6.419553747224359,0
3155,6.4273842074006735,0
3156,6.439590650099389,0
3157,6.4536809391631405,0
3158,6.467247749939689,0
3159,6.479173166838177,0
3160,6.489340959755942,0
3161,6.497659986838349,0
3162,6.503909289393512,0
3163,6.50762483007064,0
3164,6.50857318251262,0
3165,6.507155887445572,0
3166,6.503773329905764,0
3167,6.49879366344292,0
3168,6.492588786531081,0
3169,6.485588088821423,0
3170,6.4782658972751355,0
3171,6.471097632720732,0
3172,6.464547515970206,0
3173,6.459058293828662,0
3174,6.454914041825396,0
3175,6.451991535948372,0
3176,6.450108468368822,0
3177,6.449084674444863,0
3178,6.448739756627626,0
3179,6.44888970671282,0
3180,6.449347676903002,0
3181,6.449926790315214,0
3182,6.450445501035007,0
3183,6.450732543831825,0
3184,6.450703120499926,0
3185,6.450493521858322,0
3186,6.450238481771969,0
3187,6.450060315978165,0
3188,6.450088940273767,0
3189,6.45057291183813,0
3190,6.451854667076152,0
3191,6.454276901570151,0
3192,6.457917522917823,0
3193,6.462347596793789,0
3194,6.466958727155501,0
3195,6.47120992401704,0
3196,6.476551638906246,0
3197,6.485082024024712,0
3198,6.499965864557779,0
3199,6.541162269498276,0
3200,6.642001169409787,0
3201,6.836189547733976,0
3202,7.158202749516544,0
3203,7.643996007982742,0
3204,8.329862156267525,0
3205,9.233519064441133,0
3206,10.275492508884744,0
3207,11.34534500225729,0
3208,12.33071038917291,0
3209,13.088767724234172,0
3210,13.452300404821326,0
3211,13.25424671323876,0
3212,12.428425604793361,0
3213,11.104177944334314,0
3214,9.433117406471194,0
3215,7.583352449747167,0
3216,5.809749599770158,0
3217,4.395004003710146,0
3218,3.6080271518172227,0
3219,3.4963052812019546,0
3220,3.9288631446173627,0
3221,4.769354925197651,0
3222,5.845480096005061,0
3223,6.914804254275084,0
3224,7.726840227709824,0
3225,8.078675156052718,0
3226,8.01303678694592,0
3227,7.651914946047514,0
3228,7.117614048487998,0
3229,6.536902964247579,0
3230,6.0401708698425685,0
3231,5.757340863922384,0
3232,5.746551360097572,0
3233,5.925014809543009,0
3234,6.193575044431685,0
3235,6.46139291415784,0
3236,6.680457922622665,0
3237,6.816669292969347,0
3238,6.838749334581727,0
3239,6.761480089651787,0
3240,6.637223622072631,0
3241,6.519299483253831,0
3242,6.442957453043408,0
3243,6.40774453559541,0
3244,6.408939326021443,0
3245,6.440174648206448,0
3246,6.48771254026217,0
3247,6.535419677479811,0
3248,6.567888906133764,0
3249,6.5817287515832605,0
3250,6.58341148349242,0
3251,6.579688126417789,0
3252,6.5755762678002885,0
3253,6.572646452201723,0
3254,6.572125937367451,0
3255,6.5750383631217915,0
3256,6.580276062238454,0
3257,6.586015537416154,0
3258,6.590508256489532,0
3259,6.593263038687607,0
3260,6.594827204958632,0
3261,6.595778292581054,0
3262,6.596570174191231,0
3263,6.597409213251638,0
3264,6.5984450791649545,0
3265,6.599717871002958,0
3266,6.601145527059296,0
3267,6.602611646231233,0
3268,6.604003133131562,0
3269,6.6052629462813055,0
3270,6.606380625622879,0
3271,6.607347048519384,0
3272,6.608142425161903,0
3273,6.608725478337781,0
3274,6.609051784344387,0
3275,6.6090762647455765,0
3276,6.608760266130127,0
3277,6.608067417664355,0
3278,6.606961143066498,0
3279,6.605401346162241,0
3280,6.603344987766998,0
3281,6.600748973927179,0
3282,6.597575287052181,0
3283,6.5937962039825635,0
3284,6.589419760495171,0
3285,6.584567355511144,0
3286,6.579347406541664,0
3287,6.573855108045451,0
3288,6.568192381138537,0
3289,6.562576789616084,0
3290,6.55732317990524,0
3291,6.552747697461783,0
3292,6.548914394881653,0
3293,6.545372929066211,0
3294,6.541576665118584,0
3295,6.537232629558953,0
3296,6.5340575194062005,0
3297,6.534457572371722,0
3298,6.541783777814222,0
3299,6.575754648355897,0
3300,6.669942028115953,0
3301,6.858359633970345,0
3302,7.175752563417385,0
3303,7.658367963397069,0
3304,8.342635638386426,0
3305,9.247340112576616,0
3306,10.294581130078647,0
3307,11.373501858385243,0
3308,12.371522263993546,0
3309,13.146385691263461,0
3310,13.530563512225864,0
3311,13.356346412158551,0
3312,12.552031677612984,0
3313,11.244365975132245,0
3314,9.58466205879304,0
3315,7.739854502946965,0
3316,5.963163028358567,0
3317,4.537421332832972,0
3318,3.7332862360832357,0
3319,3.6056777074001936,0
3320,4.024673248205655,0
3321,4.854154472818721,0
3322,5.923792130849019,0
3323,6.992082665843198,0
3324,7.808690126747703,0
3325,8.167351125705707,0
3326,8.105892381396425,0
3327,7.746470215563573,0
3328,7.211564998064375,0
3329,6.628006243465061,0
3330,6.1263726214037355,0
3331,5.836942534484998,0
3332,5.8217047170834535,0
3333,5.999650739347601,0
3334,6.271696476850126,0
3335,6.545950924167185,0
3336,6.772951268215835,0
3337,6.9180306311494375,0
3338,6.949025185770599,0
3339,6.878634794453912,0
3340,6.758470647053722,0
3341,6.641330312698202,0
3342,6.5628247348634225,0
3343,6.522342310411658,0
3344,6.514846414573633,0
3345,6.534681375697561,0
3346,6.569091086903747,0
3347,6.602771996985103,0
3348,6.621060392655069,0
3349,6.620994556822162,0
3350,6.609824328903937,0
3351,6.595132604171751,0
3352,6.582853885479489,0
3353,6.57542590111987,0
3354,6.574626926527416,0
3355,6.580955349871782,0
3356,6.59251388183818,0
3357,6.606644112668723,0
3358,6.620753334925712,0
3359,6.633473193093498,0
3360,6.644510282573194,0
3361,6.653607049496995,0
3362,6.66038836568825,0
3363,6.664228064163532,0
3364,6.664679361224274,0
3365,6.66219571822715,0
3366,6.657376723574697,0
3367,6.650785470660825,0
3368,6.642987946760669,0
3369,6.63460471410265,0
3370,6.626304543633105,0
3371,6.618757807887678,0
3372,6.61262473957904,0
3373,6.608543780129116,0
3374,6.607001064016941,0
3375,6.607817651304482,0
3376,6.61063583814263,0
3377,6.615100338849237,0
3378,6.620855688210344,0
3379,6.6275429944810105,0
3380,6.63480032057335,0
3381,6.64226564948401,0
3382,6.649581788658887,0
3383,6.656401981379877,0
3384,6.662451167801429,0
3385,6.667769657838467,0
3386,6.672450869105127,0
3387,6.676574175771628,0
3388,6.680224870705597,0
3389,6.683600805997395,0
3390,6.687000483204566,0
3391,6.690724690335292,0
3392,6.694834680147472,0
3393,6.698870176187752,0
3394,6.702262141687132,0
3395,6.7045984032153205,0
3396,6.707432935597896,0
3397,6.713052259199066,0
3398,6.724575644977774,0
3399,6.761051179938461,0
3400,6.855857482155248,0
3401,7.042887674724547,0
3402,7.356729690598661,0
3403,7.833494139320751,0
3404,8.509546751524221,0
3405,9.405215993482795,0
3406,10.44495319847015,0
3407,11.51820470076252,0
3408,12.512873149309325,0
3409,13.287984165436633,0
3410,13.676424956195532,0
3411,13.510592348763176,0
3412,12.71407103936426,0
3413,11.411592960992351,0
3414,9.754692557074907,0
3415,7.90904073735663,0
3416,6.125840260258047,0
3417,4.6877419187599365,0
3418,3.8667064791333825,0
3419,3.7248008411830806,0
3420,4.1329420163567985,0
3421,4.9549112043763675,0
3422,6.022002329238806,0
3423,7.093377240626848,0
3424,7.918548226987703,0
3425,8.287845536354196,0
3426,8.23382908020746,0
3427,7.878592437731314,0
3428,7.344587381699901,0
3429,6.758496427103101,0
3430,6.250878573272244,0
3431,5.952132534438918,0
3432,5.927820856699063,0
3433,6.098604405678603,0
3434,6.365470265535448,0
3435,6.636260426511786,0
3436,6.860956035963952,0
3437,7.005243997907942,0
3438,7.03702462160404,0
3439,6.967834211338556,0
3440,6.849435656328765,0
3441,6.735021389418193,0
3442,6.661469640025274,0
3443,6.628958663702544,0
3444,6.632610700388163,0
3445,6.666124213466722,0
3446,6.715905549090804,0
3447,6.7656574807987955,0
3448,6.799642487374672,0
3449,6.813503170112378,0
3450,6.813437214347008,0
3451,6.806034583482959,0
3452,6.796320838035545,0
3453,6.785779158530712,0
3454,6.775526955938647,0
3455,6.767005809839228,0
3456,6.759749428008523,0
3457,6.7524841547558045,0
3458,6.743993284933443,0
3459,6.734250615687475,0
3460,6.724340885595453,0
3461,6.7153908603418975,0
3462,6.708415744454239,0
3463,6.704176464295283,0
3464,6.703263449897207,0
3465,6.705479704469362,0
3466,6.710253590262178,0
3467,6.716974434356265,0
3468,6.725034066703054,0
3469,6.733877375662711,0
3470,6.742999063038192,0
3471,6.751895711306463,0
3472,6.760054281526177,0
3473,6.766939665290581,0
3474,6.772093128597003,0
3475,6.775522638105607,0
3476,6.777411971870805,0
3477,6.777947719825896,0
3478,6.777316316964094,0
3479,6.775700867450021,0
3480,6.773281329115015,0
3481,6.770237554967825,0
3482,6.76675397387966,0
3483,6.7630255823299885,0
3484,6.759240759042392,0
3485,6.755532845701341,0
3486,6.751978280864167,0
3487,6.748638573006014,0
3488,6.745580403189143,0
3489,6.742979851984653,0
3490,6.741116971199271,0
3491,6.740275047481482,0
3492,6.740510220624345,0
3493,6.741350588192845,0
3494,6.742219851850002,0
3495,6.742677558693861,0
3496,6.744217131839315,0
3497,6.749108472687393,0
3498,6.760351750034628,0
3499,6.796426540424865,0
3500,6.890613635096772,0
3501,7.076789146018493,0
3502,7.3894879268930085,0
3503,7.864786312488728,0
3504,8.539008383169822,0
3505,9.433632418426876,0
3506,10.475108803023955,0
3507,11.552785124873957,0
3508,12.554617708218942,0
3509,13.340504679114243,0
3510,13.74335137227251,0
3511,13.595284132583373,0
3512,12.814865975694852,0
3513,11.524263328720798,0
3514,9.874916476935704,0
3515,8.03142486046098,0
3516,6.243176281073711,0
3517,4.7928842390964075,0
3518,3.9539461301565058,0
3519,3.795847073188674,0
3520,4.190704416726159,0
3521,5.00244129647103,0
3522,6.064192537615913,0
3523,7.136090117101441,0
3524,7.967726197578306,0
3525,8.346326254618914,0
3526,8.299139591011366,0
3527,7.948275834671621,0
3528,7.416266266699177,0
3529,6.829751738484382,0
3530,6.319375072841475,0
3531,6.0157359889332795,0
3532,5.988001258845143,0
3533,6.158706871283024,0
3534,6.428905268314656,0
3535,6.705616261309265,0
3536,6.937446269785885,0
3537,7.0896372774847665,0
3538,7.129385069693706,0
3539,7.066265420958811,0
3540,6.951376559793034,0
3541,6.837505547482069,0
3542,6.761984723921975,0
3543,6.725013621944123,0
3544,6.721402613652624,0
3545,6.745390858545454,0
3546,6.784300588156268,0
3547,6.822591817690649,0
3548,6.84520990281453,0
3549,6.848151130797213,0
3550,6.838305242235345,0
3551,6.82301876168226,0
3552,6.808156531481348,0
3553,6.795999728954555,0
3554,6.788251334895907,0
3555,6.785945419655297,0
3556,6.787841947638687,0
3557,6.791845084473401,0
3558,6.79590763307661,0
3559,6.799138290523962,0
3560,6.801792135505359,0
3561,6.804173027824784,0
3562,6.80647918677988,0
3563,6.808651625424951,0
3564,6.810610992341518,0
3565,6.812399093231383,0
3566,6.814019184012008,0
3567,6.815433853923292,0
3568,6.816607822585179,0
3569,6.817557317988628,0
3570,6.8183499646052255,0
3571,6.819055585911568,0
3572,6.819734898460812,0
3573,6.82042629828321,0
3574,6.821153694060841,0
3575,6.8218553109856055,0
3576,6.822435383790601,0
3577,6.8228006367595,0
3578,6.822857662721225,0
3579,6.822509821461401,0
3580,6.821657227042274,0
3581,6.820199863738036,0
3582,6.8180420470606435,0
3583,6.815098778870015,0
3584,6.811316920177294,0
3585,6.806880149125486,0
3586,6.802050452462527,0
3587,6.797074794012304,0
3588,6.792204622332414,0
3589,6.787797558013422,0
3590,6.784318461087686,0
3591,6.782236349187873,0
3592,6.781805280571938,0
3593,6.782745411865452,0
3594,6.784644584660624,0
3595,6.78696406112677,0
3596,6.790941538716545,0
3597,6.798634881522499,0
3598,6.812738893256301,0
3599,6.85096888159236,0
3600,6.946304330983839,0
3601,7.132409416816365,0
3602,7.443571583165435,0
3603,7.9156366445757005,0
3604,8.584744434250057,0
3605,9.473681774365325,0
3606,10.511354926353697,0
3607,11.58742716824521,0
3608,12.590294699409922,0
3609,13.381131393673815,0
3610,13.793278213047406,0
3611,13.659024807557383,0
3612,12.892426028070755,0
3613,11.613342435114621,0
3614,9.97345445448505,0
3615,8.136219230567486,0
3616,6.348815787820223,0
3617,4.8936634952496485,0
3618,4.045133607896055,0
3619,3.879789324273728,0
3620,4.270713704319438,0
3621,5.081614848207164,0
3622,6.147082519655882,0
3623,7.227924221864629,0
3624,8.073482288447687,0
3625,8.46783882085759,0
3626,8.432653025275823,0
3627,8.089880456115283,0
3628,7.5619957219627025,0
3629,6.9754593832601435,0
3630,6.460857293847869,0
3631,6.148829613291858,0
3632,6.111927733781107,0
3633,6.274527336871929,0
3634,6.537694263867797,0
3635,6.808194717288463,0
3636,7.034012513979216,0
3637,7.18071622588976,0
3638,7.215598675477887,0
3639,7.147051726578296,0
3640,7.0262628375250875,0
3641,6.906385565564743,0
3642,6.825963071888827,0
3643,6.786019687987913,0
3644,6.7816481460352875,0
3645,6.807003411185616,0
3646,6.849211757250897,0
3647,6.892373951983617,0
3648,6.921007074202808,0
3649,6.930343499776722,0
3650,6.926841395367295,0
3651,6.917485863570258,0
3652,6.907861562921767,0
3653,6.899932735980091,0
3654,6.89508826701594,0
3655,6.894439273753707,0
3656,6.897011198855412,0
3657,6.900926096306942,0
3658,6.904346710139791,0
3659,6.906556403551209,0
3660,6.908019719554132,0
3661,6.9092573495702645,0
3662,6.910690157345068,0
3663,6.912479198900699,0
3664,6.914734661269247,0
3665,6.917459224122439,0
3666,6.920501000185461,0
3667,6.923664108744159,0
3668,6.9267544421274785,0
3669,6.929627821600884,0
3670,6.932193017183827,0
3671,6.934361334764129,0
3672,6.936035476200627,0
3673,6.937095600216614,0
3674,6.937433530711677,0
3675,6.937103601285933,0
3676,6.936263690450656,0
3677,6.935075870862129,0
3678,6.933702106318964,0
3679,6.932301227186742,0
3680,6.931028720575744,0
3681,6.930039918486699,0
3682,6.929494244130633,0
3683,6.929561912138554,0
3684,6.9303963892779405,0
3685,6.931944247933984,0
3686,6.933990213904337,0
3687,6.93630055705165,0
3688,6.938645398783027,0
3689,6.9408977457962395,0
3690,6.943041050379169,0
3691,6.94506383294435,0
3692,6.946751609396725,0
3693,6.9473508199164895,0
3694,6.946039403422455,0
3695,6.942489364254598,0
3696,6.9384748455396075,0
3697,6.936639641128087,0
3698,6.940179949705722,0
3699,6.966845280243754,0
3700,7.050103353441113,0
3701,7.224204876682476,0
3702,7.523989040503917,0
3703,7.985868287813091,0
3704,8.646500494385664,0
3705,9.529695681195339,0
3706,10.56613980842532,0
3707,11.64509211291098,0
3708,12.654639558561136,0
3709,13.456497507872601,0
3710,13.883724739365476,0
3711,13.768067889819907,0
3712,13.01845924974339,0
3713,11.751573046561017,0
3714,10.118679417058615,0
3715,8.282285205686765,0
3716,6.487871933435857,0
3717,5.018113791233941,0
3718,4.148805913565809,0
3719,3.964146253526871,0
3720,4.3388617467505615,0
3721,5.136997407005547,0
3722,6.19511652710754,0
3723,7.27531645614787,0
3724,8.127212794357932,0
3725,8.53201775334087,0
3726,8.505538266690971,0
3727,8.16940531818485,0
3728,7.645904915441027,0
3729,7.061183275908124,0
3730,6.5456327443782305,0
3731,6.229780637089253,0
3732,6.189341878922863,0
3733,6.350503694852843,0
3734,6.614179555788905,0
3735,6.886579226544495,0
3736,7.114656476561963,0
3737,7.263914624259965,0
3738,7.301380918218778,0
3739,7.233878997140735,0
3740,7.112275162597057,0
3741,6.989698910403156,0
3742,6.905496292444349,0
3743,6.861157535340462,0
3744,6.8517448041765325,0
3745,6.8715804019240085,0
3746,6.90813591709465,0
3747,6.9456942917674,0
3748,6.968890652587173,0
3749,6.972734218620321,0
3750,6.963785431799448,0
3751,6.949207830475596,0
3752,6.934844050882317,0
3753,6.922884310073978,0
3754,6.914883250215236,0
3755,6.911992233314643,0
3756,6.913196519615369,0
3757,6.916526476529894,0
3758,6.920045507766266,0
3759,6.922901785997315,0
3760,6.925458728282407,0
3761,6.928143916328194,0
3762,6.93129079385499,0
3763,6.934970737298145,0
3764,6.939210048537569,0
3765,6.944024566686406,0
3766,6.949333337453355,0
3767,6.955009797919969,0
3768,6.9609288126619075,0
3769,6.967013570456547,0
3770,6.973241727908019,0
3771,6.979593842200063,0
3772,6.986042358574324,0
3773,6.992536986297257,0
3774,6.999021791006482,0
3775,7.005416743974512,0
3776,7.011629305795145,0
3777,7.017569490033811,0
3778,7.0231472233251875,0
3779,7.028269400048313,0
3780,7.032839475911037,0
3781,7.036760725536464,0
3782,7.0399402799628925,0
3783,7.042296152417802,0
3784,7.043756441094384,0
3785,7.044369489505929,0
3786,7.044243886979728,0
3787,7.043473270572969,0
3788,7.042154546769428,0
3789,7.040484169830352,0
3790,7.038772175202065,0
3791,7.037334578143987,0
3792,7.036296079962006,0
3793,7.035237849156327,0
3794,7.0336347151755385,0
3795,7.0310420628500045,0
3796,7.02881784492812,0
3797,7.02923026422352,0
3798,7.035023824162711,0
3799,7.063022060481777,0
3800,7.146210622864574,0
3801,7.318465740038803,0
3802,7.6142181182819755,0
3803,8.069484498213914,0
3804,8.720582278460084,0
3805,9.592536793612839,0
3806,10.61882722960754,0
3807,11.689302618566487,0
3808,12.692704003509036,0
3809,13.492264209947413,0
3810,13.921754447284059,0
3811,13.81337965044647,0
3812,13.072054978215617,0
3813,11.812095488176823,0
3814,10.185255157134673,0
3815,8.353055722083626,0
3816,6.5584707297930755,0
3817,5.083632062162303,0
3818,4.2048696670440755,0
3819,4.013217865584829,0
3820,4.384386547299661,0
3821,5.181966633222557,0
3822,6.243666212992703,0
3823,7.332143845774717,0
3824,8.196559144366633,0
3825,8.615338952101544,0
3826,8.598706101830942,0
3827,8.268326973237956,0
3828,7.746702135474141,0
3829,7.160064824827188,0
3830,6.639012427923503,0
3831,6.314344253312608,0
3832,6.265247028207434,0
3833,6.420229490937262,0
3834,6.680437788206026,0
3835,6.951747385572337,0
3836,7.1801118165712,0
3837,7.331008005436746,0
3838,7.371265849063391,0
3839,7.30619072999238,0
3840,7.186348281038343,0
3841,7.0648860861257665,0
3842,6.981975647654876,0
3843,6.939646890776379,0
3844,6.9329628683260545,0
3845,6.956250905958983,0
3846,6.997049735923514,0
3847,7.039542360459554,0
3848,7.068204310267461,0
3849,7.077539307341503,0
3850,7.073919949647094,0
3851,7.064404462978066,0
3852,7.054807803065094,0
3853,7.04726546469298,0
3854,7.0432311270184496,0
3855,7.043822929692387,0
3856,7.048036691652578,0
3857,7.053862611157543,0
3858,7.059316489990706,0
3859,7.063462565140293,0
3860,7.066613557272101,0
3861,7.069155052537824,0
3862,7.0713840503329575,0
3863,7.073333580444253,0
3864,7.074992659445584,0
3865,7.07644091354839,0
3866,7.077757272736593,0
3867,7.078976400653384,0
3868,7.0801340513092095,0
3869,7.081312676977527,0
3870,7.082650679534314,0
3871,7.08428975580243,0
3872,7.086363970613923,0
3873,7.088984491087022,0
3874,7.092250678744386,0
3875,7.09610000186299,0
3876,7.100319314305938,0
3877,7.104692257201293,0
3878,7.109002399858478,0
3879,7.113030339967605,0
3880,7.116553126597706,0
3881,7.119347600759204,0
3882,7.121194230950141,0
3883,7.121884443688951,0
3884,7.1212226349418595,0
3885,7.1192544829192315,0
3886,7.116231597083789,0
3887,7.112397468738352,0
3888,7.107998323973151,0
3889,7.103376556867321,0
3890,7.098991199231147,0
3891,7.095308188938875,0
3892,7.092613544452796,0
3893,7.090646043059424,0
3894,7.089031062377419,0
3895,7.087390273711401,0
3896,7.087021541743283,0
3897,7.090173513688661,0
3898,7.099503101285111,0
3899,7.131266091898801,0
3900,7.218312950741138,0
3901,7.394501982084704,0
3902,7.694212834517679,0
3903,8.153421780579093,0
3904,8.808413075419871,0
3905,9.684963256177925,0
3906,10.718455127632456,0
3907,11.798398059580306,0
3908,12.81322605199631,0
3909,13.626738739309154,0
3910,14.072489939449492,0
3911,13.98221496477565,0
3912,13.256000233298654,0
3913,12.004699563915878,0
3914,10.379666658210938,0
3915,8.54170825343413,0
3916,6.732401432482663,0
3917,5.234501264213187,0
3918,4.3259530687866,0
3919,4.105782798463492,0
3920,4.451991999842282,0
3921,5.228892250565625,0
3922,6.27646909310407,0
3923,7.359179416549235,0
3924,8.226859534204326,0
3925,8.655481250272993,0
3926,8.648870137532102,0
3927,8.32794817485459,0
3928,7.814698519447497,0
3929,7.23470797521224,0
3930,6.718042385513237,0
3931,6.3950257792867085,0
3932,6.347484085829107,0
3933,6.5056254191986636,0
3934,6.7701127921227915,0
3935,7.04622316978941,0
3936,7.279016424274888,0
3937,7.434077952058039,0
3938,7.478204113184527,0
3939,7.415330923429045,0
3940,7.295839680645154,0
3941,7.17303611549173,0
3942,7.088035471162183,0
3943,7.0435791217065145,0
3944,7.034877990189313,0
3945,7.056406313108073,0
3946,7.095892471504609,0
3947,7.137538020125464,0
3948,7.165781423968954,0
3949,7.174739615273961,0
3950,7.17070740281383,0
3951,7.160754487943445,0
3952,7.150782810441524,0
3953,7.142992982488431,0
3954,7.138851572669027,0
3955,7.1395238284568086,0
3956,7.144076397129491,0
3957,7.150517943384624,0
3958,7.1568754511385535,0
3959,7.162187613842724,0
3960,7.166773930988072,0
3961,7.171036188646445,0
3962,7.175292983584277,0
3963,7.179597413192943,0
3964,7.18394901973427,0
3965,7.188313902587724,0
3966,7.1925352962457865,0
3967,7.196404406875374,0
3968,7.199713198940103,0
3969,7.202298692120427,0
3970,7.2040552960816555,0
3971,7.204881141267416,0
3972,7.204667192618213,0
3973,7.203281388051123,0
3974,7.200593207132652,0
3975,7.196682146137955,0
3976,7.191889702083794,0
3977,7.186576268887109,0
3978,7.181102196250058,0
3979,7.175825007643544,0
3980,7.171098604415345,0
3981,7.167276651726224,0
3982,7.164716219799657,0
3983,7.163785397137601,0
3984,7.164844947028431,0
3985,7.1679101595619255,0
3986,7.172532924235053,0
3987,7.178218817175913,0
3988,7.184475658546791,0
3989,7.190904022930439,0
3990,7.197224091642442,0
3991,7.203163906273968,0
3992,7.208282655833835,0
3993,7.211589360195325,0
3994,7.21199100023503,0
3995,7.208969522133889,0
3996,7.204358744787143,0
3997,7.20103211161445,0
3998,7.202211000167386,0
3999,7.224230833833936,0
4000,7.300441733828358,0
4001,7.465328959157093,0
4002,7.753866944705775,0
4003,8.202635054126816,0
4004,8.848533398501107,0
4005,9.718509459211363,0
4006,10.750042530327157,0
4007,11.832445444573239,0
4008,12.853955476959992,0
4009,13.679057665252161,0
4010,14.141230053789657,0
4011,14.07187705649667,0
4012,13.366523580856356,0
4013,12.132526783081426,0
4014,10.520932274333648,0
4015,8.69149959264696,0
4016,6.883643978500816,0
4017,5.379993205895899,0
4018,4.459279546523312,0
4019,4.227750891679398,0
4020,4.56510016852949,0
4021,5.3356215116061865,0
4022,6.380793355765736,0
4023,7.466195190818398,0
4024,8.341642446672882,0
4025,8.780787553998307,0
4026,8.781555510922011,0
4027,8.464693670331759,0
4028,7.952290002834911,0
4029,7.369905950464616,0
4030,6.847693427049387,0
4031,6.516111137223831,0
4032,6.460140077035129,0
4033,6.612422825880502,0
4034,6.87374131836294,0
4035,7.149030761860764,0
4036,7.3823220671907634,0
4037,7.539169109645668,0
4038,7.58622338333008,0
4039,7.525928577520527,0
4040,7.40832245133091,0
4041,7.286734702139067,0
4042,7.203065878940089,0
4043,7.160666007171797,0
4044,7.154764368940591,0
4045,7.17983967687197,0
4046,7.2236241092093065,0
4047,7.270144163119551,0
4048,7.303611233211389,0
4049,7.317562507928827,0
4050,7.31801252669815,0
4051,7.311847082041247,0
4052,7.304857376144049,0
4053,7.299116805735301,0
4054,7.295911320589337,0
4055,7.2963819517342605,0
4056,7.299781266252696,0
4057,7.304265162149594,0
4058,7.308000648292332,0
4059,7.310129417153225,0
4060,7.311105281027628,0
4061,7.311474515799497,0
4062,7.311705436399225,0
4063,7.311999716492875,0
4064,7.31250107174108,0
4065,7.313287200632385,0
4066,7.314256462870027,0
4067,7.315247262707773,0
4068,7.316098432315982,0
4069,7.316692203024652,0
4070,7.316969591041093,0
4071,7.31687579245471,0
4072,7.316349289547827,0
4073,7.315305442026796,0
4074,7.313656519432594,0
4075,7.311428463976844,0
4076,7.308828634355058,0
4077,7.30608296957321,0
4078,7.303417385647786,0
4079,7.301055076695215,0
4080,7.299215527188551,0
4081,7.2981179556914055,0
4082,7.297984776629223,0
4083,7.299049515449936,0
4084,7.301544897049618,0
4085,7.305493645081254,0
4086,7.310555112419472,0
4087,7.316339238738578,0
4088,7.322457757287058,0
4089,7.328611716881117,0
4090,7.334624646031523,0
4091,7.34032892909533,0
4092,7.345398805265445,0
4093,7.348956228749252,0
4094,7.350006084444553,0
4095,7.347973785971408,0
4096,7.344512431065154,0
4097,7.342366661962602,0
4098,7.344576067912714,0
4099,7.366805986691285,0
4100,7.4421427243711875,0
4101,7.6049454333166215,0
4102,7.890031330562831,0
4103,8.333828489504699,0
4104,8.973116660584159,0
4105,9.835764843888525,0
4106,10.861829703209052,0
4107,11.940926394807208,0
4108,12.961560379530349,0
4109,13.789373093903535,0
4110,14.25826301927832,0
4111,14.199792192617618,0
4112,13.505553232890907,0
4113,12.279721006967547,0
4114,10.67350542905556,0
4115,8.845910587229662,0
4116,7.034082113982369,0
4117,5.520405150877732,0
4118,4.584212642667925,0
4119,4.338830894492214,0
4120,4.665686079875263,0
4121,5.428955063485702,0
4122,6.471458517693133,0
4123,7.559861076782947,0
4124,8.443858984569225,0
4125,8.894825051710121,0
4126,8.904612093006744,0
4127,8.593663927569771,0
4128,8.08410150941552,0
4129,7.501388256811602,0
4130,6.9756857124404945,0
4131,6.637506185024857,0
4132,6.574801812786122,0
4133,6.722693703148534,0
4134,6.982010498196274,0
4135,7.257309613489266,0
4136,7.491502967756209,0
4137,7.650025567369336,0
4138,7.699325069454961,0
4139,7.640285595060221,0
4140,7.522494731766232,0
4141,7.399226978628,0
4142,7.313063164484388,0
4143,7.267915021536001,0
4144,7.258956652174355,0
4145,7.2807342003456235,0
4146,7.3212492442487695,0
4147,7.3646324781037835,0
4148,7.395150653662827,0
4149,7.406041567330122,0
4150,7.403309441250593,0
4151,7.39393356935757,0
4152,7.38386927556234,0
4153,7.3753432029333315,0
4154,7.369733592118404,0
4155,7.368239202958498,0
4156,7.370128541939863,0
4157,7.3735165131486875,0
4158,7.3765219266121465,0
4159,7.378201041420996,0
4160,7.378952450044948,0
4161,7.379278177118937,0
4162,7.3796073302577145,0
4163,7.380101637119021,0
4164,7.380861377514237,0
4165,7.381957092643012,0
4166,7.3833264425219465,0
4167,7.384847175565298,0
4168,7.386397136048439,0
4169,7.38789590243456,0
4170,7.389323183370343,0
4171,7.390663361568805,0
4172,7.391894541512273,0
4173,7.392971644639634,0
4174,7.393844448625426,0
4175,7.394489997700914,0
4176,7.394944243853923,0
4177,7.395253014470047,0
4178,7.395462135373071,0
4179,7.3956148153533885,0
4180,7.395750469185443,0
4181,7.395908214167375,0
4182,7.396130149858758,0
4183,7.396469465353907,0
4184,7.396981852534142,0
4185,7.3977091517239195,0
4186,7.398636721159224,0
4187,7.399726101467209,0
4188,7.400940213089665,0
4189,7.402327836394589,0
4190,7.404062999870777,0
4191,7.406329638181429,0
4192,7.409163857132961,0
4193,7.412048205505474,0
4194,7.414335521286151,0
4195,7.415520883752906,0
4196,7.41685773805398,0
4197,7.420697447289975,0
4198,7.429640315293695,0
4199,7.458421835191591,0
4200,7.4944302509811465,1
4201,7.482811364152729,1
4202,7.488968682563193,1
4203,7.497880247436753,1
4204,7.50616767372828,1
4205,7.510662129254189,1
4206,7.509513331826479,1
4207,7.503646043055726,1
4208,7.49450871954285,1
4209,7.48341140616158,1
4210,7.471110194225247,1
4211,7.458223239688758,1
4212,7.445379723164941,1
4213,7.43333672878268,1
4214,7.422933736269327,1
4215,7.41501119027985,1
4216,7.410248033803871,1
4217,7.408425809067219,1
4218,7.408992982234508,1
4219,7.411400120535671,1
4220,7.415108890463246,1
4221,7.419583741665155,1
4222,7.424288792604001,1
4223,7.428684286759475,1
4224,7.432227955722098,1
4225,7.434377551368761,1
4226,7.434695281676185,1
4227,7.433390551297848,1
4228,7.430924971494584,1
4229,7.427755004706916,1
4230,7.424313906277554,1
4231,7.421029071447227,1
4232,7.418333100595876,1
4233,7.416720015910382,1
4234,7.416723903975452,1
4235,7.4188786101402,1
4236,7.423562526499493,1
4237,7.430422941522528,1
4238,7.43884127968587,1
4239,7.448132460525931,1
4240,7.45734370344562,1
4241,7.465454155022961,1
4242,7.471558189803073,1
4243,7.476121537389023,1
4244,7.480510024944192,1
4245,7.4860861115715975,1
4246,7.493099551556092,1
4247,7.500525256370562,1
4248,7.5074307393510935,1
4249,7.511973047574838,1
4250,7.5085754880430855,1
4251,7.490705253443182,1
4252,7.452916247540242,1
4253,7.402806601335191,1
4254,7.356589539093668,1
4255,7.330568243106171,1
4256,7.336942517575212,1
4257,7.381074022875331,1
4258,7.467579467559127,1
4259,7.591688558742514,1
4260,7.709903165320239,1
4261,7.768738296912307,1
4262,7.718819898890873,1
4263,7.560544010827592,1
4264,7.327382474357814,1
4265,7.053762902869065,1
4266,6.797673755390292,1
4267,6.654948490785689,1
4268,6.724883106768036,1
4269,7.069929847466579,1
4270,7.599454061652461,1
4271,8.18306685039409,1
4272,8.690772454448155,1
4273,8.997376788971875,1
4274,8.98089671721437,1
4275,8.521424459597624,1
4276,7.63341033111925,1
4277,6.547543505948289,1
4278,5.514046778387495,1
4279,4.76490847189115,1
4280,4.455821344811492,1
4281,4.722526275068984,1
4282,5.681518753614564,1
4283,7.212250338710045,1
4284,9.034670467638596,1
4285,10.866455743564762,1
4286,12.472562303706642,1
4287,13.694592085969179,1
4288,14.381163335853863,1
4289,14.431446080503548,1
4290,13.95761555102446,1
4291,13.127940543952157,1
4292,12.108078112947585,1
4293,11.031233801644232,1
4294,10.008641235182857,1
4295,9.150355113151234,1
4296,8.513735148232671,1
4297,8.070271640877175,1
4298,7.783572456449386,1
4299,7.617626065893589,1
4300,7.636648159418488,0
4301,7.78660580081967,0
4302,8.057529215594503,0
4303,8.486223372307084,0
4304,9.109901127172325,0
4305,9.958374673373166,0
4306,10.976474662062138,0
4307,12.053910074863285,0
4308,13.079105502637322,0
4309,13.919407424771403,0
4310,14.40903185438263,0
4311,14.379290494849826,0
4312,13.713816641737406,0
4313,12.509332582209371,0
4314,10.91680088848781,0
4315,9.093633307540703,0
4316,7.272736649863688,0
4317,5.736411068060704,0
4318,4.765406298584638,0
4319,4.487485277973201,0
4320,4.78844055083276,0
4321,5.532673754399568,0
4322,6.565979438655364,0
4323,7.657838928556602,0
4324,8.55817204642353,0
4325,9.034429548259574,0
4326,9.065777879905443,0
4327,8.771493131210354,0
4328,8.273391303825536,0
4329,7.696367645270723,0
4330,7.170218201897074,0
4331,6.825175913715032,0
4332,6.754405204242458,0
4333,6.89797296995388,0
4334,7.15642696264085,0
4335,7.433457506648534,0
4336,7.669948826035301,0
4337,7.831384472992445,0
4338,7.884174693876157,0
4339,7.826443284731055,0
4340,7.707104654347796,0
4341,7.579639092637923,0
4342,7.488216281595125,0
4343,7.43828166980145,0
4344,7.425214556898242,0
4345,7.443819806605587,0
4346,7.482420048899208,0
4347,7.525085785694843,0
4348,7.555933685329863,0
4349,7.567339229388802,0
4350,7.564987781349903,0
4351,7.555771234704142,0
4352,7.545690259526357,0
4353,7.537012736202174,0
4354,7.531029431493273,0
4355,7.5289173775859055,0
4356,7.530104557022553,0
4357,7.532784445497499,0
4358,7.535139735048599,0
4359,7.536215838458091,0
4360,7.536457261718989,0
4361,7.53643639710537,0
4362,7.536662194681722,0
4363,7.537376015821824,0
4364,7.538748677126534,0
4365,7.540922348080211,0
4366,7.543880996328439,0
4367,7.547534431559378,0
4368,7.551791876721836,0
4369,7.556600948650709,0
4370,7.561971919832116,0
4371,7.567920837614599,0
4372,7.574458288783552,0
4373,7.5815716664345585,0
4374,7.58924220151663,0
4375,7.597426609341732,0
4376,7.606004693453167,0
4377,7.61484313273736,0
4378,7.623808648853932,0
4379,7.632765556737201,0
4380,7.641574219035105,0
4381,7.650094631092389,0
4382,7.658189381222591,0
4383,7.665732148801686,0
4384,7.672599576450351,0
4385,7.678653702275343,0
4386,7.683682268724031,0
4387,7.6874412957118174,0
4388,7.689687451180193,0
4389,7.690256335329557,0
4390,7.689113985745074,0
4391,7.686238662627509,0
4392,7.681480138127423,0
4393,7.6741347290296,0
4394,7.663349779885642,0
4395,7.648593975927062,0
4396,7.631722731440817,0
4397,7.615933858758094,0
4398,7.604601591179744,0
4399,7.612252269438289,0
4400,7.671957460976375,0
4401,7.818540882134913,0
4402,8.087198216150796,0
4403,8.514738645493184,0
4404,9.138408730041606,0
4405,9.988750654226939,0
4406,11.012758728461094,0
4407,12.099898781556803,0
4408,13.138209408649317,0
4409,13.995544409892421,0
4410,14.505979953255299,0
4411,14.500374577780821,0
4412,13.858308433473557,0
4413,12.672190955334106,0
4414,11.092530049181292,0
4415,9.275740099374893,0
4416,7.452641699314219,0
4417,5.905632866568013,0
4418,4.9162336738759755,0
4419,4.619487542131825,0
4420,4.9037743583114946,0
4421,5.633783696654043,0
4422,6.65688124458011,0
4423,7.744224599037396,0
4424,8.646022219080871,0
4425,9.128178336653221,0
4426,9.163611113489958,0
4427,8.87107459019849,0
4428,8.372398233459961,0
4429,7.792359190457604,0
4430,7.26072978316124,0
4431,6.9077660233265235,0
4432,6.829217649843036,0
4433,6.967972038580228,0
4434,7.224601400371051,0
4435,7.502466951329566,0
4436,7.741273411312774,0
4437,7.906336585073701,0
4438,7.963897407716329,0
4439,7.9105498612277385,0
4440,7.794649609680551,0
4441,7.669605515889852,0
4442,7.580160886666216,0
4443,7.532400389830514,0
4444,7.521632360410633,0
4445,7.542659049284642,0
4446,7.583943008280997,0
4447,7.629512910533127,0
4448,7.66340167939873,0
4449,7.6775453164088345,0
4450,7.677442339234959,0
4451,7.669926112644038,0
4452,7.661000666057609,0
4453,7.652944149399719,0
4454,7.646988835429795,0
4455,7.644281147959854,0
4456,7.644345726722338,0
4457,7.645450942491741,0
4458,7.645846752718034,0
4459,7.6446085251162526,0
4460,7.642237083589588,0
4461,7.639374691295499,0
4462,7.636604584934174,0
4463,7.63424294984186,0
4464,7.632530484292821,0
4465,7.631658258111463,0
4466,7.631547941783454,0
4467,7.632010406027003,0
4468,7.632855577277287,0
4469,7.6339301087184905,0
4470,7.635144481154762,0
4471,7.636415560101123,0
4472,7.637655131463186,0
4473,7.638751837655979,0
4474,7.63958773344079,0
4475,7.640085119701085,0
4476,7.6403448008405555,0
4477,7.6405185747669675,0
4478,7.640758306358541,0
4479,7.641213558693812,0
4480,7.642029869182859,0
4481,7.643352369279872,0
4482,7.645328602089028,0
4483,7.648117176043796,0
4484,7.651879871252734,0
4485,7.6567009724846695,0
4486,7.662297069349903,0
4487,7.668267499521977,0
4488,7.674211919561705,0
4489,7.67980546325412,0
4490,7.684856112913824,0
4491,7.689185444381889,0
4492,7.692495610884123,0
4493,7.693936681455298,0
4494,7.692499375460195,0
4495,7.687430492514582,0
4496,7.680292375028023,0
4497,7.6740723895527365,0
4498,7.671907099349714,0
4499,7.687595063670416,0
4500,7.753819284968325,0
4501,7.905198016299398,0
4502,8.176695345272973,0
4503,8.604884614654669,0
4504,9.226806890171193,0
4505,10.07360958388402,0
4506,11.09503382308754,0
4507,12.181019605992905,0
4508,13.219898302553489,0
4509,14.080707121988873,0
4510,14.598092457464134,0
4511,14.60314799341483,0
4512,13.972258082097383,0
4513,12.794043688043082,0
4514,11.219241413385987,0
4515,9.403792569931612,0
4516,7.576150437586503,0
4517,6.018378245540379,0
4518,5.012290843976686,0
4519,4.699715430884385,0
4520,4.971371821027438,0
4521,5.6918309654192525,0
4522,6.709562733905286,0
4523,7.79705285425692,0
4524,8.70439373421356,0
4525,9.195746578830866,0
4526,9.237722909799205,0
4527,8.948544141435098,0
4528,8.4501181804847,0
4529,7.86716950860778,0
4530,7.3295070868091585,0
4531,6.967473589677859,0
4532,6.879346784249789,0
4533,7.011014739206224,0
4534,7.263142043747631,0
4535,7.538840805926922,0
4536,7.776590510621664,0
4537,7.941456027162587,0
4538,7.999453028497646,0
4539,7.945594821310411,0
4540,7.82757467441454,0
4541,7.698659869298433,0
4542,7.604066679971303,0
4543,7.550478192176892,0
4544,7.533062753718729,0
4545,7.546609414633347,0
4546,7.5800684545496555,0
4547,7.6178883682929985,0
4548,7.644481440598767,0
4549,7.65180871781952,0
4550,7.645632502710014,0
4551,7.633187052020617,0
4552,7.620936241712606,0
4553,7.611630727437801,0
4554,7.606903842624729,0
4555,7.608188058999552,0
4556,7.614702135223495,0
4557,7.6241608502086375,0
4558,7.634252547328621,0
4559,7.643453827728711,0
4560,7.651691644895002,0
4561,7.659048869762237,0
4562,7.665553552754992,0
4563,7.670967640898207,0
4564,7.6749724534642985,0
4565,7.677327822038497,0
4566,7.678175756732879,0
4567,7.677754149074524,0
4568,7.67629972417577,0
4569,7.674084274232003,0
4570,7.67144452505528,0
4571,7.668724238507979,0
4572,7.666262459653474,0
4573,7.664375175728312,0
4574,7.663371339089349,0
4575,7.663494370326595,0
4576,7.664617654664944,0
4577,7.666486005067629,0
4578,7.668844171198207,0
4579,7.671434705350007,0
4580,7.6739960649451495,0
4581,7.676266260176322,0
4582,7.67798554022352,0
4583,7.678905176965029,0
4584,7.678779828599966,0
4585,7.677424493921278,0
4586,7.674988059327506,0
4587,7.6717273897519656,0
4588,7.667899557844455,0
4589,7.663833675637615,0
4590,7.6599939617245445,0
4591,7.65685950740748,0
4592,7.6547984965371185,0
4593,7.6536292379458075,0
4594,7.652999940697728,0
4595,7.652603454215947,0
4596,7.653408371407691,0
4597,7.657536813747462,0
4598,7.667238134266942,0
4599,7.694936130998662,0
4600,7.772258484189872,0
4601,7.932963557896757,0
4602,8.211130671919237,0
4603,8.642441716533549,0
4604,9.263077758416765,0
4605,10.104162230720021,0
4606,11.118371047036806,0
4607,12.196636777421334,0
4608,13.22806256471843,0
4609,14.083343151327938,0
4610,14.598205453486568,0
4611,14.604466107710863,0
4612,13.97596644846908,0
4613,12.797870978099457,0
4614,11.221623631433813,0
4615,9.40319275625686,0
4616,7.568666183304511,0
4617,5.999565312575834,0
4618,4.9777566998533676,0
4619,4.65157112453551,0
4620,4.914053401591085,0
4621,5.629476460436651,0
4622,6.647176015982819,0
4623,7.7408420359199885,0
4624,8.660274909078208,0
4625,9.16782295996853,0
4626,9.223593534310435,0
4627,8.94507641849718,0
4628,8.454139032722475,0
4629,7.875335049204022,0
4630,7.33838652974543,0
4631,6.973602608844994,0
4632,6.881550921221187,0
4633,7.011110806223992,0
4634,7.262926205298825,0
4635,7.53982688398226,0
4636,7.779326603985671,0
4637,7.9466013109092595,0
4638,8.007830670958056,0
4639,7.95684500067103,0
4640,7.8410167293788815,0
4641,7.713847722692654,0
4642,7.621373622717965,0
4643,7.571279973812151,0
4644,7.558973191313902,0
4645,7.579441249537507,0
4646,7.621473968642146,0
4647,7.668992247075197,0
4648,7.705841000133487,0
4649,7.723061928507335,0
4650,7.7257219619920265,0
4651,7.72050617228743,0
4652,7.713385342572773,0
4653,7.7066352302225924,0
4654,7.701340341559581,0
4655,7.698530191616456,0
4656,7.697872918759568,0
4657,7.697791084283182,0
4658,7.696673320105918,0
4659,7.693659613059751,0
4660,7.689363639996153,0
4661,7.6845704291805825,0
4662,7.680014189616721,0
4663,7.676164370190917,0
4664,7.67340447480657,0
4665,7.672070087182008,0
4666,7.672099456832272,0
4667,7.673223076895958,0
4668,7.675169086589072,0
4669,7.67769904411224,0
4670,7.680640477211028,0
4671,7.683828643877224,0
4672,7.6870944304133735,0
4673,7.690245785095439,0
4674,7.693083158922688,0
4675,7.695430841733875,0
4676,7.697296427810747,0
4677,7.6987733227249295,0
4678,7.699955468083363,0
4679,7.700934711798139,0
4680,7.701798742144605,0
4681,7.70263475618835,0
4682,7.703532025763972,0
4683,7.70459078651066,0
4684,7.705914882226421,0
4685,7.7075905164969685,0
4686,7.709549818697505,0
4687,7.711641500845493,0
4688,7.713713679863397,0
4689,7.715683099904014,0
4690,7.717603729996535,0
4691,7.719545869678816,0
4692,7.721477065460605,0
4693,7.722818007587198,0
4694,7.722808174220366,0
4695,7.720805408913562,0
4696,7.717965455694479,0
4697,7.716874493779329,0
4698,7.720230186228665,0
4699,7.740420856159675,0
4700,7.809337164843924,0
4701,7.961208623935263,0
4702,8.230562044744397,0
4703,8.653517776204897,0
4704,9.266727825269589,0
4705,10.102289151363339,0
4706,11.115276037649634,0
4707,12.196521689954555,0
4708,13.234766827210755,0
4709,14.101222462517018,0
4710,14.631593138178303,0
4711,14.657292324029136,0
4712,14.048653126447146,0
4713,12.886109798025473,0
4714,11.320674247859449,0
4715,9.50744598783683,0
4716,7.67028102070548,0
4717,6.090686557765583,0
4718,5.0510811950581225,0
4719,4.706746528785887,0
4720,4.953780853043533,0
4721,5.656717758642406,0
4722,6.666260005358686,0
4723,7.757913079665691,0
4724,8.681748921794838,0
4725,9.198918960261507,0
4726,9.263099968927202,0
4727,8.99090801533956,0
4728,8.504111433473078,0
4729,7.927035592056487,0
4730,7.389252442406663,0
4731,7.0209778105981195,0
4732,6.924894393933045,0
4733,7.0529179733302785,0
4734,7.3056221716796985,0
4735,7.5854906913220495,0
4736,7.828866117270278,0
4737,8.000802010109037,0
4738,8.067436065542786,0
4739,8.021221416042001,0
4740,7.908955988059658,0
4741,7.784158290970676,0
4742,7.693436368903132,0
4743,7.645286682037789,0
4744,7.635138401036311,0
4745,7.658045996727305,0
4746,7.702976980470653,0
4747,7.753800382230569,0
4748,7.794268630144064,0
4749,7.814981758724958,0
4750,7.820773295167834,0
4751,7.818250468680905,0
4752,7.813359521158834,0
4753,7.808375184833597,0
4754,7.804304741966398,0
4755,7.802104737459144,0
4756,7.801473702045899,0
4757,7.800893638386483,0
4758,7.798805890328726,0
4759,7.794366595059928,0
4760,7.7882272673423465,0
4761,7.781227193638226,0
4762,7.774158642804278,0
4763,7.767550846860552,0
4764,7.761841614393467,0
4765,7.757438777726986,0
4766,7.754417713741716,0
4767,7.752639992041225,0
4768,7.751963373556584,0
4769,7.75227740576901,0
