timestamp,value-0,is_anomaly
0,-1.6859223394534504,0.0
1,-1.5171432178364106,0.0
2,-1.053176827358316,0.0
3,-0.34317818943470857,0.0
4,0.5617955593948247,0.0
5,1.588512643529778,0.0
6,2.649405310986438,0.0
7,3.6561386354813106,0.0
8,4.4884065293417,0.0
9,4.976141168518377,0.0
10,4.944969930583573,0.0
11,4.274740151950515,0.0
12,3.0637051180893886,0.0
13,1.4651038216813115,0.0
14,-0.36152042401465856,0.0
15,-2.1825026449571316,0.0
16,-3.7159584509267725,0.0
17,-4.681673834161041,0.0
18,-4.953239503245642,0.0
19,-4.645134830377785,0.0
20,-3.89285473574743,0.0
21,-2.850840762519894,0.0
22,-1.7504076372843234,0.0
23,-0.8423641202951193,0.0
24,-0.359576496938776,0.0
25,-0.32215268369604444,0.0
26,-0.6109273090734053,0.0
27,-1.1042724745499624,0.0
28,-1.6774642864423395,0.0
29,-2.200899541567269,0.0
30,-2.5445457574730783,0.0
31,-2.6157093045121123,0.0
32,-2.4741865607408906,0.0
33,-2.218695872027693,0.0
34,-1.9448600017069728,0.0
35,-1.7112800695774428,0.0
36,-1.5521712528898681,0.0
37,-1.5008192987620443,0.0
38,-1.5585822913496807,0.0
39,-1.6761847599565651,0.0
40,-1.7998589479692038,0.0
41,-1.8853652546828772,0.0
42,-1.9276982847725372,0.0
43,-1.9319505896973856,0.0
44,-1.903738883453932,0.0
45,-1.8550023169930059,0.0
46,-1.8018705752015882,0.0
47,-1.7604204301745978,0.0
48,-1.7384138691221425,0.0
49,-1.7303439054475553,0.0
50,-1.7295164067418307,0.0
51,-1.7300998062343087,0.0
52,-1.7298188585486907,0.0
53,-1.7273142612889498,0.0
54,-1.7213807161648744,0.0
55,-1.712686616561383,0.0
56,-1.7031499884360877,0.0
57,-1.6946984637696363,0.0
58,-1.6883910823229475,0.0
59,-1.683892060724997,0.0
60,-1.6807397769501735,0.0
61,-1.6785132086827885,0.0
62,-1.6769481266926705,0.0
63,-1.6758175080756543,0.0
64,-1.6749015885034124,0.0
65,-1.674069728977072,0.0
66,-1.6732511017766052,0.0
67,-1.6723754109341888,0.0
68,-1.6713337042062932,0.0
69,-1.6699545635958084,0.0
70,-1.6680608883935804,0.0
71,-1.665520699978643,0.0
72,-1.6624166910076847,0.0
73,-1.6588954383584267,0.0
74,-1.6551030563038802,0.0
75,-1.651179783253574,0.0
76,-1.6472618898170799,0.0
77,-1.6434856074155941,0.0
78,-1.6399895907121589,0.0
79,-1.6369164347615985,0.0
80,-1.634409096080593,0.0
81,-1.632560816852822,0.0
82,-1.6312197592187818,0.0
83,-1.6301586169997122,0.0
84,-1.6291527655983054,0.0
85,-1.6280113372391007,0.0
86,-1.6265664010177119,0.0
87,-1.6246493246334825,0.0
88,-1.6220119995850313,0.0
89,-1.6182762697719348,0.0
90,-1.6130519502047629,0.0
91,-1.6061415739643528,0.0
92,-1.5982218092614227,0.0
93,-1.5902187662918281,0.0
94,-1.5829199892355739,0.0
95,-1.5753672945395414,0.0
96,-1.5654089444897823,0.0
97,-1.5507119735175865,0.0
98,-1.517714137133582,0.0
99,-1.4343629889078462,0.0
100,-1.266881611748827,0.0
101,-0.981055423809048,0.0
102,-0.5407332724192121,0.0
103,0.09077425466044686,0.0
104,0.9436435915857522,0.0
105,1.9653048693001716,0.0
106,3.0462628714760704,0.0
107,4.075620116654506,0.0
108,4.922154071734747,0.0
109,5.420964074473421,0.0
110,5.403982491997284,0.0
111,4.752368294884636,0.0
112,3.559906340691856,0.0
113,1.9777733343393016,0.0
114,0.16290039996232686,0.0
115,-1.6540425053554353,0.0
116,-3.1913415877937057,0.0
117,-4.168263649422058,0.0
118,-4.45157417495278,0.0
119,-4.153980790483876,0.0
120,-3.4115096964059095,0.0
121,-2.3776616183233403,0.0
122,-1.281909445894601,0.0
123,-0.37436353615022155,0.0
124,0.1109723299494656,0.0
125,0.14833991651126377,0.0
126,-0.14297117725468977,0.0
127,-0.6406849658145966,0.0
128,-1.2195571307750002,0.0
129,-1.7493626818609904,0.0
130,-2.0994005036902497,0.0
131,-2.1739227120374287,0.0
132,-2.030395357628178,0.0
133,-1.768258287484103,0.0
134,-1.4841743830571243,0.0
135,-1.2385707681581704,0.0
136,-1.0664788834149599,0.0
137,-1.00200660374621,0.0
138,-1.0486952156312555,0.0
139,-1.158473509448549,0.0
140,-1.2782958451541315,0.0
141,-1.3638292130414114,0.0
142,-1.4091073763061963,0.0
143,-1.4187157121339231,0.0
144,-1.397709989597377,0.0
145,-1.3573332899681771,0.0
146,-1.3131919452764418,0.0
147,-1.280881557100456,0.0
148,-1.2680388192455376,0.0
149,-1.2687767112361463,0.0
150,-1.2758941042773717,0.0
151,-1.2830678275874488,0.0
152,-1.2879376119170243,0.0
153,-1.2892658712158809,0.0
154,-1.285953312516321,0.0
155,-1.2787340353346939,0.0
156,-1.2696430507318164,0.0
157,-1.260732567047553,0.0
158,-1.2532235274028456,0.0
159,-1.2469154666854183,0.0
160,-1.241468670773602,0.0
161,-1.2365825520534959,0.0
162,-1.232096173186691,0.0
163,-1.2278745184459747,0.0
164,-1.2237889875144143,0.0
165,-1.2197981765418262,0.0
166,-1.2159229366440887,0.0
167,-1.2121850058930377,0.0
168,-1.2085691340229385,0.0
169,-1.2049964230502972,0.0
170,-1.2013816888268993,0.0
171,-1.1976505522709495,0.0
172,-1.19378789904764,0.0
173,-1.1897993077734665,0.0
174,-1.1856899655998139,0.0
175,-1.1814593117709438,0.0
176,-1.177102656327615,0.0
177,-1.1726152469276936,0.0
178,-1.1679946494907643,0.0
179,-1.1632424443435985,0.0
180,-1.1583606115234801,0.0
181,-1.153359856793056,0.0
182,-1.14831299938092,0.0
183,-1.1433191942759717,0.0
184,-1.1384800987884265,0.0
185,-1.1339303873993285,0.0
186,-1.1298286004170082,0.0
187,-1.1263329058036013,0.0
188,-1.1235254522846119,0.0
189,-1.1213559161452333,0.0
190,-1.119760676395124,0.0
191,-1.1187584549756013,0.0
192,-1.118660552816128,0.0
193,-1.1198286260841077,0.0
194,-1.1224999058412206,0.0
195,-1.1252043813801305,0.0
196,-1.1252303598265445,0.0
197,-1.1197130609222536,0.0
198,-1.095048829675629,0.0
199,-1.0188015943836353,0.0
200,-0.8566296122480344,0.0
201,-0.5739060890976357,0.0
202,-0.13484375491640443,0.0
203,0.4966169725144842,0.0
204,1.3507063275536626,0.0
205,2.376743608714633,0.0
206,3.4648373999749325,0.0
207,4.503518780807456,0.0
208,5.361884979931651,0.0
209,5.874736427873351,0.0
210,5.873374972632449,0.0
211,5.234995571502252,0.0
212,4.049675097666309,0.0
213,2.469195478202858,0.0
214,0.6504928078468231,0.0
215,-1.1774034971591034,0.0
216,-2.732379956281303,0.0
217,-3.732667876503661,0.0
218,-4.037503866513974,0.0
219,-3.7565507582213127,0.0
220,-3.0252231475844944,0.0
221,-1.9952934647785305,0.0
222,-0.8950647849830315,0.0
223,0.02477241343787462,0.0
224,0.5279267153899287,0.0
225,0.5816770632844799,0.0
226,0.30412230191902,0.0
227,-0.18305342077478115,0.0
228,-0.7553288232300283,0.0
229,-1.2831118291209815,0.0
230,-1.6362847275501027,0.0
231,-1.7171207515275342,0.0
232,-1.5799963903358365,0.0
233,-1.3238755074466253,0.0
234,-1.0452438329935165,0.0
235,-0.8051697398095559,0.0
236,-0.6383197703239669,0.0
237,-0.5784154982821509,0.0
238,-0.6299683431366252,0.0
239,-0.744950431538201,0.0
240,-0.8698439832208483,0.0
241,-0.9592937768882319,0.0
242,-1.006633525112805,0.0
243,-1.0166558445731873,0.0
244,-0.9945755166711957,0.0
245,-0.951654055413108,0.0
246,-0.9036883291540703,0.0
247,-0.8665051471877384,0.0
248,-0.8483270083529012,0.0
249,-0.8436117157532569,0.0
250,-0.8453672578139918,0.0
251,-0.8474013849239067,0.0
252,-0.8474003007171804,0.0
253,-0.8442344530236788,0.0
254,-0.8368983094062852,0.0
255,-0.8261778260194681,0.0
256,-0.8142109566030977,0.0
257,-0.8031607186628,0.0
258,-0.7943960478745107,0.0
259,-0.7878393389578087,0.0
260,-0.7832594068435551,0.0
261,-0.7804382684464912,0.0
262,-0.7790750793049234,0.0
263,-0.7787766737221243,0.0
264,-0.7791545028942282,0.0
265,-0.779905209718833,0.0
266,-0.7807901259429707,0.0
267,-0.7815718400831579,0.0
268,-0.7819776134296341,0.0
269,-0.7816699429198388,0.0
270,-0.7803043945975011,0.0
271,-0.7775817095666046,0.0
272,-0.7735695372938105,0.0
273,-0.7685162698537844,0.0
274,-0.7626712629550577,0.0
275,-0.7562782573303398,0.0
276,-0.7495767037925919,0.0
277,-0.7428059665367278,0.0
278,-0.7362076234949014,0.0
279,-0.7300273368830053,0.0
280,-0.7245112094834778,0.0
281,-0.7198708654401862,0.0
282,-0.7160244085957355,0.0
283,-0.7127402363670173,0.0
284,-0.7097876684932427,0.0
285,-0.706968273819594,0.0
286,-0.7041084117899012,0.0
287,-0.7010343756577153,0.0
288,-0.6974998805457746,0.0
289,-0.6931238814777593,0.0
290,-0.6875106816464119,0.0
291,-0.680413645736969,0.0
292,-0.6724693484142936,0.0
293,-0.6646595487248356,0.0
294,-0.6578570426771576,0.0
295,-0.65126733122633,0.0
296,-0.6428063338721134,0.0
297,-0.6302594351300245,0.0
298,-0.6011611779683033,0.0
299,-0.5238910619016511,0.0
300,-0.3647294465638915,0.0
301,-0.08958096472545163,0.0
302,0.337728234833088,0.0
303,0.9541245275373951,0.0
304,1.7913428502550173,0.0
305,2.8021112706308653,0.0
306,3.8776732069839017,0.0
307,4.90747986032091,0.0
308,5.762435252237691,0.0
309,6.27856376643434,0.0
310,6.288037215805467,0.0
311,5.665496466691428,0.0
312,4.496511470360293,0.0
313,2.9319566470087572,0.0
314,1.127307747233493,0.0
315,-0.6915726349762269,0.0
316,-2.2437083205950668,0.0
317,-3.2478691599261977,0.0
318,-3.5573715374559796,0.0
319,-3.280179385048178,0.0
320,-2.552605222353792,0.0
321,-1.526030403705521,0.0
322,-0.42707250574665634,0.0
323,0.49426840636318015,0.0
324,1.0008105851717142,0.0
325,1.0540963195975535,0.0
326,0.7722281442572925,0.0
327,0.27757230077227946,0.0
328,-0.3047983028714406,0.0
329,-0.8446551846243235,0.0
330,-1.2111914000034352,0.0
331,-1.3037213430250585,0.0
332,-1.173602043365722,0.0
333,-0.9200804304648673,0.0
334,-0.640212788856982,0.0
335,-0.39648604232948303,0.0
336,-0.22398491709499668,0.0
337,-0.15680078401597636,0.0
338,-0.2011633889336164,0.0
339,-0.3098919926985678,0.0
340,-0.4297660380338344,0.0
341,-0.5151254971962331,0.0
342,-0.558738877503171,0.0
343,-0.5655596320432733,0.0
344,-0.5409201219485646,0.0
345,-0.49605383891048366,0.0
346,-0.44690070101937823,0.0
347,-0.40947016032099126,0.0
348,-0.3925198009086275,0.0
349,-0.3908161599693406,0.0
350,-0.3975312184023552,0.0
351,-0.40653630476379515,0.0
352,-0.41514417417545535,0.0
353,-0.42168917630945607,0.0
354,-0.42461352697803073,0.0
355,-0.4241075477238492,0.0
356,-0.42176432478140935,0.0
357,-0.41921022238169325,0.0
358,-0.41731447108206765,0.0
359,-0.4154761718323956,0.0
360,-0.4129255640441928,0.0
361,-0.4089752899662862,0.0
362,-0.4035514730230827,0.0
363,-0.3968848115151142,0.0
364,-0.38921463303207166,0.0
365,-0.38086338220151816,0.0
366,-0.37222061058096717,0.0
367,-0.36367751428660183,0.0
368,-0.3555916123957845,0.0
369,-0.3482546124227765,0.0
370,-0.34195060361724633,0.0
371,-0.3369346054903291,0.0
372,-0.333095222990511,0.0
373,-0.33007727594175396,0.0
374,-0.3275210639550931,0.0
375,-0.32506140917550824,0.0
376,-0.32232868419566074,0.0
377,-0.31895314949630227,0.0
378,-0.31456717548444124,0.0
379,-0.3088072823307394,0.0
380,-0.3013104743216611,0.0
381,-0.29175713778026974,0.0
382,-0.2803630813488462,0.0
383,-0.2677016293362437,0.0
384,-0.25435443713596506,0.0
385,-0.24093461505156144,0.0
386,-0.22808098228897555,0.0
387,-0.2164325787184477,0.0
388,-0.2065592828313301,0.0
389,-0.19889407103932624,0.0
390,-0.19385382436695203,0.0
391,-0.19190002594433755,0.0
392,-0.19330377169013338,0.0
393,-0.19801620588621321,0.0
394,-0.20588095281893165,0.0
395,-0.2151156308858641,0.0
396,-0.22260072476091192,0.0
397,-0.2251035108927974,0.0
398,-0.20962488077414368,0.0
399,-0.14370884932450745,0.0
400,0.007405847419857559,0.0
401,0.27872897505465943,0.0
402,0.7061919364374886,0.0
403,1.3257857201550975,0.0
404,2.168884922282758,0.0
405,3.1898247917962212,0.0
406,4.279199159916201,0.0
407,5.3255543172603454,0.0
408,6.199769325112217,0.0
409,6.737298795108033,0.0
410,6.769367712736602,0.0
411,6.166624312765581,0.0
412,5.0103774373760785,0.0
413,3.452076471218107,0.0
414,1.6472873944117734,0.0
415,-0.17979939550264695,0.0
416,-1.7478661208295077,0.0
417,-2.7747723271170104,0.0
418,-3.1065159154160322,0.0
419,-2.8476849252088825,0.0
420,-2.133981766623959,0.0
421,-1.1151152967697333,0.0
422,-0.016144918749670514,0.0
423,0.9126269885072977,0.0
424,1.432242307689175,0.0
425,1.49746370790926,0.0
426,1.2253085185571315,0.0
427,0.7378202942380887,0.0
428,0.15961984352690173,0.0
429,-0.37943733812747854,0.0
430,-0.7488610389435759,0.0
431,-0.8460330894435362,0.0
432,-0.7192524530489095,0.0
433,-0.46765958147178077,0.0
434,-0.1884761367124856,0.0
435,0.05477046437301428,0.0
436,0.22694711246090593,0.0
437,0.2939891362941638,0.0
438,0.24835620532815417,0.0
439,0.13673072159775332,0.0
440,0.012420364555269348,0.0
441,-0.07826232684463708,0.0
442,-0.12714615842116306,0.0
443,-0.13899327103192213,0.0
444,-0.11890690963319575,0.0
445,-0.07774124916558883,0.0
446,-0.0312265075576975,0.0
447,0.004798616164912055,0.0
448,0.021397876816225507,0.0
449,0.02383692343068919,0.0
450,0.019130029381333832,0.0
451,0.013615629774107331,0.0
452,0.009854838651097758,0.0
453,0.009073969603504988,0.0
454,0.012399111235908727,0.0
455,0.01925298235714662,0.0
456,0.027605214807454398,0.0
457,0.03538352794107465,0.0
458,0.04123615351215175,0.0
459,0.04530340581228435,0.0
460,0.04791072394103274,0.0
461,0.049349791454635944,0.0
462,0.04986844972868198,0.0
463,0.04979947519830008,0.0
464,0.0494759012853405,0.0
465,0.0491497829346501,0.0
466,0.049003671884555566,0.0
467,0.04921806618403186,0.0
468,0.0500055057536408,0.0
469,0.051645315766226677,0.0
470,0.05442517103745373,0.0
471,0.05861239726865737,0.0
472,0.06418420696923538,0.0
473,0.07089108928424594,0.0
474,0.07847738591864392,0.0
475,0.08669277435171607,0.0
476,0.09529153976744895,0.0
477,0.1040281064324892,0.0
478,0.11265489152673869,0.0
479,0.12092010164115174,0.0
480,0.12857141292235041,0.0
481,0.1353695484289836,0.0
482,0.14127566041089762,0.0
483,0.14641356354450044,0.0
484,0.15091029332757025,0.0
485,0.15486224839222945,0.0
486,0.15833920891465716,0.0
487,0.16141046326084385,0.0
488,0.16421107727312104,0.0
489,0.16701500668041458,0.0
490,0.17011383798771237,0.0
491,0.17370062931256244,0.0
492,0.17738343787783376,0.0
493,0.18054406324830152,0.0
494,0.1826496505545061,0.0
495,0.1847508375041009,0.0
496,0.18928248247451857,0.0
497,0.19878018851941565,0.0
498,0.22506626924610965,0.0
499,0.299699748738149,0.0
500,0.4567641410461614,0.0
501,0.7306129499613895,0.0
502,1.1570310130357302,0.0
503,1.7722286430636516,0.0
504,2.6083457262355974,0.0
505,3.6225077610853305,0.0
506,4.705864510894935,0.0
507,5.747220972728366,0.0
508,6.618585928274541,0.0
509,7.156039096835094,0.0
510,7.191029598908763,0.0
511,6.591450002332065,0.0
512,5.434396397779692,0.0
513,3.8715873412011597,0.0
514,2.058428534968212,0.0
515,0.217136743859199,0.0
516,-1.3709508365162388,0.0
517,-2.4231286817300304,0.0
518,-2.778488008441511,0.0
519,-2.5383580542694126,0.0
520,-1.838122494599709,0.0
521,-0.8261268879926802,0.0
522,0.2741477091795669,0.0
523,1.2120844876664258,0.0
524,1.7470378628572878,0.0
525,1.826937062574343,0.0
526,1.5676002559974158,0.0
527,1.0907230973542839,0.0
528,0.5204504602429165,0.0
529,-0.013764971468570253,0.0
530,-0.3817760100025859,0.0
531,-0.47918248238545924,0.0
532,-0.35116202263731755,0.0
533,-0.09668622018593992,0.0
534,0.18693483596814717,0.0
535,0.43518554448134117,0.0
536,0.6129259871215844,0.0
537,0.6861861748491745,0.0
538,0.6461977600787701,0.0
539,0.5391650907056056,0.0
540,0.418539912773798,0.0
541,0.33129816541488744,0.0
542,0.28629241830747165,0.0
543,0.2783813918177206,0.0
544,0.30210303120624,0.0
545,0.3463987269337054,0.0
546,0.3951660892654165,0.0
547,0.4321555136052063,0.0
548,0.4476743370470304,0.0
549,0.4464262607886603,0.0
550,0.4350272960499591,0.0
551,0.41949941903417853,0.0
552,0.40276059257695995,0.0
553,0.38693284722091803,0.0
554,0.3740736946028591,0.0
555,0.36458323967688533,0.0
556,0.357358748876591,0.0
557,0.3512464488864214,0.0
558,0.3457768760486676,0.0
559,0.3419928748025548,0.0
560,0.34113968973464875,0.0
561,0.34438775788325915,0.0
562,0.3519215950261581,0.0
563,0.36309637606532363,0.0
564,0.3772305516542636,0.0
565,0.3935637904265129,0.0
566,0.4112638893375109,0.0
567,0.4294961578153773,0.0
568,0.44745633110923283,0.0
569,0.46440782579209877,0.0
570,0.47962318483085514,0.0
571,0.49239193513759255,0.0
572,0.5024902826182239,0.0
573,0.5102136355427263,0.0
574,0.5158820716765264,0.0
575,0.5198208590822562,0.0
576,0.5223600298028861,0.0
577,0.523829783629855,0.0
578,0.5245584148779863,0.0
579,0.5248699513603868,0.0
580,0.5250878412520656,0.0
581,0.5255313111001727,0.0
582,0.5263762446783664,0.0
583,0.5276390716520492,0.0
584,0.5293268563597474,0.0
585,0.5314168658845311,0.0
586,0.5338588503328522,0.0
587,0.5366018089710229,0.0
588,0.5396571759840431,0.0
589,0.543177100581307,0.0
590,0.547332992801593,0.0
591,0.5522080840545052,0.0
592,0.5573627452471496,0.0
593,0.5621726788943326,0.0
594,0.5660902746770351,0.0
595,0.5701077956971227,0.0
596,0.5766482290477357,0.0
597,0.588227343728933,0.0
598,0.6161739326745023,0.0
599,0.6918101283874875,0.0
600,0.8492152383676879,0.0
601,1.1227192527148806,0.0
602,1.5480514927059632,0.0
603,2.16134429511556,0.0
604,2.99515141130574,0.0
605,4.009089153020598,0.0
606,5.094592193116021,0.0
607,6.140410536321439,0.0
608,7.019358045004387,0.0
609,7.567857347158279,0.0
610,7.617274971111424,0.0
611,7.032596604917514,0.0
612,5.8862966428154895,0.0
613,4.330122523017531,0.0
614,2.5191463513415,0.0
615,0.6733920003552399,0.0
616,-0.9260289392406456,0.0
617,-1.9961069518094594,0.0
618,-2.3693701880734017,0.0
619,-2.1439220182929533,0.0
620,-1.455039927020794,0.0
621,-0.44995279575447134,0.0
622,0.6495887292735527,0.0
623,1.592950001573049,0.0
624,2.1381956832212694,0.0
625,2.2266907554506465,0.0
626,1.9732490836730379,0.0
627,1.4995066470824585,0.0
628,0.9294223103608594,0.0
629,0.39232955952046605,0.0
630,0.018319813378189997,0.0
631,-0.08626245648021946,0.0
632,0.036664080940773336,0.0
633,0.2882032217919077,0.0
634,0.5708666733636018,0.0
635,0.8190387083948577,0.0
636,0.997447446773722,0.0
637,1.0721185494739305,0.0
638,1.0329745448041687,0.0
639,0.925594994678942,0.0
640,0.8034667546974616,0.0
641,0.714111674056168,0.0
642,0.6673415492730146,0.0
643,0.6581788991539668,0.0
644,0.6813457114182879,0.0
645,0.72612554485836,0.0
646,0.7765927441661529,0.0
647,0.8166354862865415,0.0
648,0.8363581532425095,0.0
649,0.840438710039396,0.0
650,0.8356410262122224,0.0
651,0.8281647370774015,0.0
652,0.8207947285710478,0.0
653,0.8151531829173035,0.0
654,0.8128000540792583,0.0
655,0.8136849537334746,0.0
656,0.8162056001041511,0.0
657,0.8186989791147216,0.0
658,0.8201506937853676,0.0
659,0.8210770617728922,0.0
660,0.8222151188403759,0.0
661,0.8242565367605561,0.0
662,0.8274515394054396,0.0
663,0.8317146933861305,0.0
664,0.8369415142798574,0.0
665,0.8429509839959607,0.0
666,0.8494878781002636,0.0
667,0.8562940227200924,0.0
668,0.8631400769663089,0.0
669,0.8698651956312835,0.0
670,0.8763184833905932,0.0
671,0.882346925286118,0.0
672,0.8878292455550816,0.0
673,0.8927063141996023,0.0
674,0.8969240231561322,0.0
675,0.9004333057921746,0.0
676,0.9031900134580982,0.0
677,0.905150195831631,0.0
678,0.9062680972367999,0.0
679,0.9064936447535361,0.0
680,0.905776133678726,0.0
681,0.9040695682420458,0.0
682,0.9014668550096722,0.0
683,0.8982373208272059,0.0
684,0.8946610914368904,0.0
685,0.8909893542187893,0.0
686,0.887444894371291,0.0
687,0.8842494957458505,0.0
688,0.8816840843954123,0.0
689,0.8801719553703873,0.0
690,0.8801573921002591,0.0
691,0.881998693962344,0.0
692,0.8853333546878194,0.0
693,0.8893277132034777,0.0
694,0.8931953611881761,0.0
695,0.8976451570430599,0.0
696,0.9048624845552037,0.0
697,0.9171216849983991,0.0
698,0.9450436303365759,0.0
699,1.0194747507919866,0.0
700,1.1742652124238542,0.0
701,1.4435030559271724,0.0
702,1.8628987779062214,0.0
703,2.4688854864729906,0.0
704,3.294789956500627,0.0
705,4.303124819715377,0.0
706,5.38604904718464,0.0
707,6.432652834712173,0.0
708,7.31693674739616,0.0
709,7.8760924540511095,0.0
710,7.941804717442075,0.0
711,7.376694913922679,0.0
712,6.248489668109738,0.0
713,4.70842027928822,0.0
714,2.9107103498979803,0.0
715,1.0726351229032416,0.0
716,-0.5255059351437887,0.0
717,-1.6009948944999342,0.0
718,-1.9804909321641713,0.0
719,-1.7592389838797984,0.0
720,-1.0729627107517925,0.0
721,-0.0683743189733581,0.0
722,1.0343566880306554,0.0
723,1.9848714809199555,0.0
724,2.5403658311740123,0.0
725,2.6359470216287897,0.0
726,2.3856426190985274,0.0
727,1.9113449290963436,0.0
728,1.3371448323790265,0.0
729,0.7925680068372198,0.0
730,0.4079652410197324,0.0
731,0.2918316421306859,0.0
732,0.4057505199567142,0.0
733,0.6508588011831747,0.0
734,0.9294346505600576,0.0
735,1.1746871885208283,0.0
736,1.3511218579795203,0.0
737,1.4246950879555536,0.0
738,1.3839766659105972,0.0
739,1.2738087861736376,0.0
740,1.1476397204610305,0.0
741,1.0534339504673778,0.0
742,1.0019316818978208,0.0
743,0.9883402898491838,0.0
744,1.0075852526700746,0.0
745,1.049315072423276,0.0
746,1.0978063303891092,0.0
747,1.1371098355959235,0.0
748,1.1571575146493838,0.0
749,1.1626139714374117,0.0
750,1.1604135089005383,0.0
751,1.1569654362512534,0.0
752,1.1550428610423271,0.0
753,1.1558310518205375,0.0
754,1.1604369444705915,0.0
755,1.1684051723748201,0.0
756,1.1776802430465467,0.0
757,1.1861356013434918,0.0
758,1.192258218489179,0.0
759,1.1960822762144365,0.0
760,1.197882065484576,0.0
761,1.1978975104745666,0.0
762,1.1963104470442674,0.0
763,1.19351721559376,0.0
764,1.189940300306949,0.0
765,1.185927945945969,0.0
766,1.1817518960711726,0.0
767,1.177680451454255,0.0
768,1.1740091803224988,0.0
769,1.1711028751318828,0.0
770,1.1693371498147196,0.0
771,1.1690821269797231,0.0
772,1.170517342773004,0.0
773,1.1735322990503834,0.0
774,1.1779900734755977,0.0
775,1.183758633284782,0.0
776,1.1907110150298115,0.0
777,1.1987204863001109,0.0
778,1.2076586077091207,0.0
779,1.2173925773121181,0.0
780,1.2277889061992644,0.0
781,1.238714812331455,0.0
782,1.2499839246958442,0.0
783,1.2613047909414856,0.0
784,1.272374129103738,0.0
785,1.2828605947495206,0.0
786,1.2924035716572173,0.0
787,1.3006411966819618,0.0
788,1.307267514499161,0.0
789,1.3121204130945252,0.0
790,1.3150605967106697,0.0
791,1.3158772700969015,0.0
792,1.3141414004215926,0.0
793,1.3097398293058216,0.0
794,1.3026709566187484,0.0
795,1.294382973013153,0.0
796,1.287845575693296,0.0
797,1.2861173708485452,0.0
798,1.3001454010849545,0.0
799,1.361308869958184,0.0
800,1.5042515553762072,0.0
801,1.7638303261467456,0.0
802,2.1760610960365847,0.0
803,2.7769435660349773,0.0
804,3.5997083291127554,0.0
805,4.60893586038405,0.0
806,5.696720477149207,0.0
807,6.751658447103593,0.0
808,7.648087561940414,0.0
809,8.223165905719043,0.0
810,8.308067748359965,0.0
811,7.762380981492712,0.0
812,6.648717196997256,0.0
813,5.118307217292238,0.0
814,3.3251720119306074,0.0
815,1.4844481617535288,0.0
816,-0.12380282436224044,0.0
817,-1.2165824841715986,0.0
818,-1.6142232929229134,0.0
819,-1.4083113381614591,0.0
820,-0.7344063031503438,0.0
821,0.2618432908709909,0.0
822,1.3621331484183663,0.0
823,2.3161880863761715,0.0
824,2.8802021851249373,0.0
825,2.98279211884487,0.0
826,2.736863497707387,0.0
827,2.264331918962839,0.0
828,1.6891895914199861,0.0
829,1.1409167386469856,0.0
830,0.7498897293227949,0.0
831,0.6264214298780337,0.0
832,0.7355670694515253,0.0
833,0.9785324045613781,0.0
834,1.2574016931751417,0.0
835,1.5042313287863072,0.0
836,1.683308336830137,0.0
837,1.7605497193521449,0.0
838,1.7232269332620294,0.0
839,1.6154269106465446,0.0
840,1.4905814462121687,0.0
841,1.3970901843409307,0.0
842,1.346544672432782,0.0
843,1.3340839844626093,0.0
844,1.3545615341730328,0.0
845,1.3977181145091764,0.0
846,1.4477630420953662,0.0
847,1.4886391726815726,0.0
848,1.509841914779508,0.0
849,1.5157394503304216,0.0
850,1.5131639460577735,0.0
851,1.5084669676442284,0.0
852,1.5044984405912831,0.0
853,1.5025994357333956,0.0
854,1.5040558527375916,0.0
855,1.5086401780454461,0.0
856,1.5144774882233114,0.0
857,1.5196107565090011,0.0
858,1.52266208525465,0.0
859,1.5238152808721048,0.0
860,1.5235147538549332,0.0
861,1.5221714038224379,0.0
862,1.520046933979572,0.0
863,1.517505542615357,0.0
864,1.5149352049666056,0.0
865,1.512651990987388,0.0
866,1.5108932203799996,0.0
867,1.5098922419030856,0.0
868,1.5099081376488879,0.0
869,1.5112698525786747,0.0
870,1.5143180741924038,0.0
871,1.5193892228019061,0.0
872,1.5265662926198873,0.0
873,1.5354287213142117,0.0
874,1.5454926834372908,0.0
875,1.5562790886593096,0.0
876,1.567314064232914,0.0
877,1.578124003507876,0.0
878,1.5882336892326454,0.0
879,1.5971635019696755,0.0
880,1.6044330770110735,0.0
881,1.609564706755007,0.0
882,1.6123362514166253,0.0
883,1.6130662619402822,0.0
884,1.6121431910883586,0.0
885,1.6099283197663181,0.0
886,1.6067528053651348,0.0
887,1.602946314113941,0.0
888,1.5988912525124153,0.0
889,1.5951151565276303,0.0
890,1.592170309421392,0.0
891,1.5905394480577417,0.0
892,1.5900365516773691,0.0
893,1.5899071039058275,0.0
894,1.5894002089773644,0.0
895,1.5891685350334241,0.0
896,1.5914302994010574,0.0
897,1.5984959933789182,0.0
898,1.6201160549728184,0.0
899,1.6866528642379175,0.0
900,1.832008893636755,0.0
901,2.0902859400828433,0.0
902,2.4971744959437476,0.0
903,3.089224601982771,0.0
904,3.9006871964093137,0.0
905,4.899362234071271,0.0
906,5.978476159077498,0.0
907,7.027281752384679,0.0
908,7.921586786953174,0.0
909,8.499697512088467,0.0
910,8.593432880759998,0.0
911,8.060639237807102,0.0
912,6.9592840788816295,0.0
913,5.4400250156898995,0.0
914,3.6560444825032308,0.0
915,1.8196736418718316,0.0
916,0.2100284691188774,0.0
917,-0.8903147020021325,0.0
918,-1.2961949722738528,0.0
919,-1.0960143998231726,0.0
920,-0.42583909447672763,0.0
921,0.5690260881970004,0.0
922,1.6717698002479222,0.0
923,2.632383764750987,0.0
924,3.2064060324820733,0.0
925,3.3162224254637263,0.0
926,3.0737594011740024,0.0
927,2.601205903293925,0.0
928,2.022708192857494,0.0
929,1.4679464821851838,0.0
930,1.0675721273999024,0.0
931,0.9338648414774119,0.0
932,1.03561117791241,0.0
933,1.274106647196276,0.0
934,1.551226869511722,0.0
935,1.7978460471813,0.0
936,1.977982680896363,0.0
937,2.057489496307098,0.0
938,2.022342715752576,0.0
939,1.9158014600188535,0.0
940,1.7912496126363437,0.0
941,1.6974650679266219,0.0
942,1.6469111054753287,0.0
943,1.6347218280680946,0.0
944,1.6557359473475508,0.0
945,1.6998463885738049,0.0
946,1.7512586202122125,0.0
947,1.7938694446156827,0.0
948,1.8168070483423961,0.0
949,1.8241926158008377,0.0
950,1.822816384309295,0.0
951,1.8190286409594718,0.0
952,1.815738320838566,0.0
953,1.814317833553841,0.0
954,1.816101422065608,0.0
955,1.8209595289832248,0.0
956,1.8270689773402418,0.0
957,1.8325126633358084,0.0
958,1.8359190001606733,0.0
959,1.8374905046501102,0.0
960,1.8377119268371775,0.0
961,1.8370368149398528,0.0
962,1.8357065623077298,0.0
963,1.83394384816499,0.0
964,1.831985104869391,0.0
965,1.829997227526792,0.0
966,1.828066163750658,0.0
967,1.8262733238851137,0.0
968,1.8247243529882944,0.0
969,1.8235953036243775,0.0
970,1.8230749427933592,0.0
971,1.8233492583510702,0.0
972,1.8245166727280517,0.0
973,1.8264835912100246,0.0
974,1.829125511445263,0.0
975,1.8323225095456308,0.0
976,1.8359600240095755,0.0
977,1.8399237970597748,0.0
978,1.8440980544312673,0.0
979,1.8483625859893813,0.0
980,1.8525963748147938,0.0
981,1.8566796930873226,0.0
982,1.860517037867005,0.0
983,1.8640572036654608,0.0
984,1.8672550771030356,0.0
985,1.8700392759897702,0.0
986,1.8723074630588534,0.0
987,1.8739555633880232,0.0
988,1.8749291501028733,0.0
989,1.8753200153021776,0.0
990,1.8752467354091422,0.0
991,1.8747649980469998,0.0
992,1.8734919065243403,0.0
993,1.8710139208771415,0.0
994,1.8669981226091934,0.0
995,1.8624682976195166,0.0
996,1.860056766793192,0.0
997,1.8624945410309923,0.0
998,1.8795148983890546,0.0
999,1.941614812887234,0.0
1000,2.0831219504121674,0.0
1001,2.338545787326521,0.0
1002,2.743754072882907,0.0
1003,3.3349335153310173,0.0
1004,4.1462125139493065,0.0
1005,5.147497108741197,0.0
1006,6.232083239889529,0.0
1007,7.288770089039314,0.0
1008,8.193705426280573,0.0
1009,8.785264831853505,0.0
1010,8.894805490441097,0.0
1011,8.377466119978013,0.0
1012,7.285934667829017,0.0
1013,5.771006766178907,0.0
1014,3.985990834272787,0.0
1015,2.1413513016683425,0.0
1016,0.5161514569067112,0.0
1017,-0.6065496998956172,0.0
1018,-1.0353394414160197,0.0
1019,-0.8543027062229478,0.0
1020,-0.19907985013567364,0.0
1021,0.7862492873862943,0.0
1022,1.8869394736097789,0.0
1023,2.8528744367977197,0.0
1024,3.438502065436486,0.0
1025,3.559471496474435,0.0
1026,3.3260930444677816,0.0
1027,2.8603038873244304,0.0
1028,2.2858822185006433,0.0
1029,1.7321785152466698,0.0
1030,1.3295934691862368,0.0
1031,1.19175080994397,0.0
1032,1.2908818622612932,0.0
1033,1.5284513366592063,0.0
1034,1.8062589714827724,0.0
1035,2.054117277766469,0.0
1036,2.2358736111421234,0.0
1037,2.3174387707517696,0.0
1038,2.283647379741307,0.0
1039,2.1770053978460098,0.0
1040,2.050965675925055,0.0
1041,1.9547761622644844,0.0
1042,1.9018834148107264,0.0
1043,1.8874520183838104,0.0
1044,1.9063159739079618,0.0
1045,1.9485323853458116,0.0
1046,1.9983189183763024,0.0
1047,2.0395404182139845,0.0
1048,2.060980215555208,0.0
1049,2.0665141180670004,0.0
1050,2.0629031280430303,0.0
1051,2.0565066289867455,0.0
1052,2.0503238706380924,0.0
1053,2.0458752231892396,0.0
1054,2.0446832854831665,0.0
1055,2.046857066588806,0.0
1056,2.050766946499478,0.0
1057,2.0546766995205483,0.0
1058,2.0573628816042278,0.0
1059,2.059186366315262,0.0
1060,2.060813054350771,0.0
1061,2.0628803127623705,0.0
1062,2.065711670604176,0.0
1063,2.0692682801218947,0.0
1064,2.0734567106887494,0.0
1065,2.0781163903476867,0.0
1066,2.083003660219062,0.0
1067,2.087869716291705,0.0
1068,2.09248853024765,0.0
1069,2.096704927812316,0.0
1070,2.1003774732442446,0.0
1071,2.1033622834039596,0.0
1072,2.105558690518432,0.0
1073,2.107086743703247,0.0
1074,2.1081185073327333,0.0
1075,2.108830465787573,0.0
1076,2.1094046067800725,0.0
1077,2.1100232621595314,0.0
1078,2.1108673388824,0.0
1079,2.112113280553743,0.0
1080,2.113936659184602,0.0
1081,2.1165142065865363,0.0
1082,2.119972737257435,0.0
1083,2.1242226718457515,0.0
1084,2.1291226707180537,0.0
1085,2.1345060386296604,0.0
1086,2.1401743161429025,0.0
1087,2.1459270538233164,0.0
1088,2.1516104418841713,0.0
1089,2.1572177738708787,0.0
1090,2.1627712735066704,0.0
1091,2.1682357662559144,0.0
1092,2.173112131102305,0.0
1093,2.176800206302054,0.0
1094,2.178772208150884,0.0
1095,2.1798096834945477,0.0
1096,2.1823445248293725,0.0
1097,2.1889164193385393,0.0
1098,2.2086416575603214,0.0
1099,2.271522747131928,0.0
1100,2.4116989702857254,0.0
1101,2.663475406986416,0.0
1102,3.062608049685621,0.0
1103,3.645529313092702,0.0
1104,4.446973243435478,0.0
1105,5.439704021732153,0.0
1106,6.517895523554857,0.0
1107,7.570653146081828,0.0
1108,8.475202408096985,0.0
1109,9.070779335420742,0.0
1110,9.189042258371506,0.0
1111,8.683317924383635,0.0
1112,7.601377372307924,0.0
1113,6.09370826154511,0.0
1114,4.313221902732852,0.0
1115,2.467972082714079,0.0
1116,0.8363746361823783,0.0
1117,-0.29860460299140534,0.0
1118,-0.7400393287930171,0.0
1119,-0.5680450485798945,0.0
1120,0.08160971237989978,0.0
1121,1.0654690781344154,0.0
1122,2.170511869817247,0.0
1123,3.146597425496744,0.0
1124,3.747302711486223,0.0
1125,3.881701924272721,0.0
1126,3.6585056180286175,0.0
1127,3.1995320927319417,0.0
1128,2.6283276774265767,0.0
1129,2.0740413905170656,0.0
1130,1.6669557148723322,0.0
1131,1.522075721958163,0.0
1132,1.6152540209892143,0.0
1133,1.848311700621398,0.0
1134,2.1231824878746526,0.0
1135,2.3688172947245487,0.0
1136,2.5490668266100975,0.0
1137,2.6300991335930575,0.0
1138,2.595841042632687,0.0
1139,2.488196830204323,0.0
1140,2.3608831339043412,0.0
1141,2.2637886697430223,0.0
1142,2.2114852610372835,0.0
1143,2.198973899293338,0.0
1144,2.220779180698189,0.0
1145,2.2668193217828874,0.0
1146,2.321025542211635,0.0
1147,2.3669297052201763,0.0
1148,2.392678404209517,0.0
1149,2.401588569797376,0.0
1150,2.4000898337255347,0.0
1151,2.3942463119671307,0.0
1152,2.386900444406126,0.0
1153,2.379788363424868,0.0
1154,2.3747959610711957,0.0
1155,2.3724462305195506,0.0
1156,2.371479852464952,0.0
1157,2.37051729519836,0.0
1158,2.368660041740093,0.0
1159,2.366601829424924,0.0
1160,2.3653654120228986,0.0
1161,2.3659475879820167,0.0
1162,2.368963785083541,0.0
1163,2.374260346854467,0.0
1164,2.381498416179279,0.0
1165,2.3902743978234327,0.0
1166,2.400099534011102,0.0
1167,2.4104792690704198,0.0
1168,2.420940407697154,0.0
1169,2.431080952971648,0.0
1170,2.4405137241703523,0.0
1171,2.448849312092723,0.0
1172,2.4557449945714347,0.0
1173,2.461164890592104,0.0
1174,2.4651666554271725,0.0
1175,2.4678122171149175,0.0
1176,2.4691691437146885,0.0
1177,2.4693053908393887,0.0
1178,2.4682875780270535,0.0
1179,2.466177840442617,0.0
1180,2.463037373466585,0.0
1181,2.458928428043466,0.0
1182,2.4539632410357948,0.0
1183,2.4484528640368914,0.0
1184,2.4427661546438197,0.0
1185,2.4372475481008578,0.0
1186,2.432208931072061,0.0
1187,2.4279599384428736,0.0
1188,2.4248539286644397,0.0
1189,2.423392034236659,0.0
1190,2.424106575346171,0.0
1191,2.427477697416684,0.0
1192,2.4333899548623283,0.0
1193,2.44096969688676,0.0
1194,2.44922136395925,0.0
1195,2.458410911848569,0.0
1196,2.4704951592003317,0.0
1197,2.487550150214753,0.0
1198,2.5178160899921846,0.0
1199,2.590511483494191,0.0
1200,2.739313578139315,0.0
1201,2.9980502842572974,0.0
1202,3.4020439378032017,0.0
1203,3.9876461592684387,0.0
1204,4.789877017950852,0.0
1205,5.784057491661051,0.0
1206,6.865000050209088,0.0
1207,7.921827198051968,0.0
1208,8.832528839415541,0.0
1209,9.43694363724699,0.0
1210,9.566744307513233,0.0
1211,9.073287949987398,0.0
1212,7.99917330822274,0.0
1213,6.494758904068073,0.0
1214,4.712904061992568,0.0
1215,2.8595812101226805,0.0
1216,1.2128321371418422,0.0
1217,0.055828851049705364,0.0
1218,-0.4088678153019001,0.0
1219,-0.2568764534232568,0.0
1220,0.3762221663540668,0.0
1221,1.3478659561718715,0.0
1222,2.447102275243456,0.0
1223,3.424111777171937,0.0
1224,4.032014251022673,0.0
1225,4.17367936909324,0.0
1226,3.9564288152922145,0.0
1227,3.5022940631080273,0.0
1228,2.9349252674586115,0.0
1229,2.383597428328276,0.0
1230,1.97880654741655,0.0
1231,1.8371786517102522,0.0
1232,1.9383778504062872,0.0
1233,2.183778018806369,0.0
1234,2.4743353196285134,0.0
1235,2.7370201165916543,0.0
1236,2.9345394412176464,0.0
1237,3.0321959656835453,0.0
1238,3.011924057624144,0.0
1239,2.9138559818133904,0.0
1240,2.7908462891236248,0.0
1241,2.692275342920012,0.0
1242,2.633074008989295,0.0
1243,2.609046263027865,0.0
1244,2.6159079718820717,0.0
1245,2.644940637791335,0.0
1246,2.681296054371471,0.0
1247,2.7096773087354973,0.0
1248,2.7191084798259877,0.0
1249,2.71383935160002,0.0
1250,2.7014715716080526,0.0
1251,2.6892751528386447,0.0
1252,2.681071623594376,0.0
1253,2.6780502649621534,0.0
1254,2.681089534972082,0.0
1255,2.689755646860164,0.0
1256,2.701790269970345,0.0
1257,2.7148002541490452,0.0
1258,2.726842757131104,0.0
1259,2.7375727587523557,0.0
1260,2.7469994705048806,0.0
1261,2.7551085619191618,0.0
1262,2.7617210545519537,0.0
1263,2.7669622259252105,0.0
1264,2.771119228348581,0.0
1265,2.7744172044612654,0.0
1266,2.776994128555135,0.0
1267,2.778981475993292,0.0
1268,2.7805307149725738,0.0
1269,2.7818647501230163,0.0
1270,2.78322243486492,0.0
1271,2.784840601992095,0.0
1272,2.786904042626049,0.0
1273,2.789390708983854,0.0
1274,2.792203976586588,0.0
1275,2.7952511700246574,0.0
1276,2.7984453859469443,0.0
1277,2.801700155194344,0.0
1278,2.804927758316191,0.0
1279,2.808035977184835,0.0
1280,2.8109315822307943,0.0
1281,2.813522300689088,0.0
1282,2.8157390251688046,0.0
1283,2.81760337619122,0.0
1284,2.8191698970233174,0.0
1285,2.8204697018952736,0.0
1286,2.821500599081402,0.0
1287,2.8222578702623724,0.0
1288,2.8227777054161525,0.0
1289,2.823244517148184,0.0
1290,2.8238762777469613,0.0
1291,2.824843681515546,0.0
1292,2.8258335438947375,0.0
1293,2.8262826481708023,0.0
1294,2.825665146856198,0.0
1295,2.824668749645411,0.0
1296,2.825711134595523,0.0
1297,2.83134259995203,0.0
1298,2.8498795893447535,0.0
1299,2.9106772850602276,0.0
1300,3.0478878667019527,0.0
1301,3.2957999922185626,0.0
1302,3.6900883929860964,0.0
1303,4.267007613789862,0.0
1304,5.06154317687225,0.0
1305,6.05126450710925,0.0
1306,7.131381941506494,0.0
1307,8.190743455021927,0.0
1308,9.107785253831413,0.0
1309,9.722688301031887,0.0
1310,9.866849679157097,0.0
1311,9.389491785150856,0.0
1312,8.327693380847752,0.0
1313,6.831554107158489,0.0
1314,5.053933682930515,0.0
1315,3.1987659463414366,0.0
1316,1.5437005927710543,0.0
1317,0.37213068767142543,0.0
1318,-0.10792789359638988,0.0
1319,0.03264620088975123,0.0
1320,0.6584860979280847,0.0
1321,1.6279050301627944,0.0
1322,2.7320053878981345,0.0
1323,3.7208211440135646,0.0
1324,4.346412890296441,0.0
1325,4.5048136906056735,0.0
1326,4.301150421363762,0.0
1327,3.8569874947459057,0.0
1328,3.295402616676394,0.0
1329,2.7451119210689106,0.0
1330,2.3361444756036596,0.0
1331,2.1859776011589984,0.0
1332,2.277727950178371,0.0
1333,2.513415670334391,0.0
1334,2.794610165261105,0.0
1335,3.047888379174807,0.0
1336,3.236370246743383,0.0
1337,3.326073746601294,0.0
1338,3.29856277715518,0.0
1339,3.193730576182439,0.0
1340,3.065148160879109,0.0
1341,2.9632436027224114,0.0
1342,2.904475698113766,0.0
1343,2.8843522186852266,0.0
1344,2.8978986704152008,0.0
1345,2.935877882422106,0.0
1346,2.98278553419103,0.0
1347,3.022616002021493,0.0
1348,3.043401806261584,0.0
1349,3.048433174049564,0.0
1350,3.04460330574956,0.0
1351,3.038505487154954,0.0
1352,3.0334751691846322,0.0
1353,3.0309016322598223,0.0
1354,3.032149478184509,0.0
1355,3.037322840468531,0.0
1356,3.0446606552034012,0.0
1357,3.052251358997471,0.0
1358,3.058604141232363,0.0
1359,3.063829120612603,0.0
1360,3.068417119187759,0.0
1361,3.0728376759703613,0.0
1362,3.0773186726415056,0.0
1363,3.0818794609355122,0.0
1364,3.0865053409089516,0.0
1365,3.0911215701845762,0.0
1366,3.0955643080454247,0.0
1367,3.0996624621790194,0.0
1368,3.103263617460825,0.0
1369,3.1062869228591317,0.0
1370,3.108668665023264,0.0
1371,3.110343304483116,0.0
1372,3.111245211522727,0.0
1373,3.111462436934088,0.0
1374,3.1111648806417773,0.0
1375,3.1105269563708284,0.0
1376,3.1097289768936163,0.0
1377,3.1089517392530412,0.0
1378,3.108374872691136,0.0
1379,3.108173500444817,0.0
1380,3.1085216590988067,0.0
1381,3.109594249643337,0.0
1382,3.111553492451246,0.0
1383,3.114377609577223,0.0
1384,3.1179484616769586,0.0
1385,3.1221245899032226,0.0
1386,3.126730501371513,0.0
1387,3.1315878851627184,0.0
1388,3.13655663269577,0.0
1389,3.141645075962393,0.0
1390,3.1468975959528884,0.0
1391,3.1523158760589056,0.0
1392,3.157429940271807,0.0
1393,3.161546072665658,0.0
1394,3.164027376290433,0.0
1395,3.1654026064738163,0.0
1396,3.1679680623490616,0.0
1397,3.174167659207214,0.0
1398,3.1918290747407427,0.0
1399,3.249846314533783,0.0
1400,3.382265325210189,0.0
1401,3.623255266635682,0.0
1402,4.0083935351856335,0.0
1403,4.574229627034205,0.0
1404,5.35641502389367,0.0
1405,6.335476265809438,0.0
1406,7.4078034673837685,0.0
1407,8.462699932109196,0.0
1408,9.379749387714472,0.0
1409,10.00023625528099,0.0
1410,10.15601272906611,0.0
1411,9.695018147444573,0.0
1412,8.649344222760211,0.0
1413,7.16835754189527,0.0
1414,5.404044716380298,0.0
1415,3.5574182910751695,0.0
1416,1.904786837647126,0.0
1417,0.7288553134358233,0.0
1418,0.24197512767135354,0.0
1419,0.37732655440463336,0.0
1420,0.99885338572791,0.0
1421,1.9647977889639856,0.0
1422,3.067596676532778,0.0
1423,4.057658134685319,0.0
1424,4.6871439775239985,0.0
1425,4.846399647591165,0.0
1426,4.639318265267494,0.0
1427,4.188088648740536,0.0
1428,3.616311806955497,0.0
1429,3.0532318634335196,0.0
1430,2.6295022993254458,0.0
1431,2.464456780065902,0.0
1432,2.545615031908372,0.0
1433,2.775274436132565,0.0
1434,3.054656366661331,0.0
1435,3.3089781407302694,0.0
1436,3.500773359820427,0.0
1437,3.595799892444994,0.0
1438,3.5743203965788775,0.0
1439,3.4749659670209216,0.0
1440,3.351047652546993,0.0
1441,3.25304304466514,0.0
1442,3.1981430933789445,0.0
1443,3.1817760723527924,0.0
1444,3.1988563982376137,0.0
1445,3.240208211781749,0.0
1446,3.290256757758303,0.0
1447,3.332869702276185,0.0
1448,3.3556817705971222,0.0
1449,3.3615931588177648,0.0
1450,3.357370383004168,0.0
1451,3.3495096749645854,0.0
1452,3.341334838877368,0.0
1453,3.3343785156968018,0.0
1454,3.3302993200266746,0.0
1455,3.329549044966827,0.0
1456,3.3306753364540755,0.0
1457,3.3320585156681886,0.0
1458,3.3324713443471,0.0
1459,3.3322880692722006,0.0
1460,3.33229139880127,0.0
1461,3.333244867968989,0.0
1462,3.3356514665402037,0.0
1463,3.3395199938768596,0.0
1464,3.344644545763258,0.0
1465,3.350758740562872,0.0
1466,3.3575052501218523,0.0
1467,3.3645186870372914,0.0
1468,3.371451081380713,0.0
1469,3.3780260405690163,0.0
1470,3.3839855562007872,0.0
1471,3.3890699753745106,0.0
1472,3.393025102363697,0.0
1473,3.3958679789409283,0.0
1474,3.397794559984268,0.0
1475,3.3990073710533157,0.0
1476,3.399714958298852,0.0
1477,3.400126405877229,0.0
1478,3.4004497090906716,0.0
1479,3.4008883571319832,0.0
1480,3.4016446736990313,0.0
1481,3.4029217606433595,0.0
1482,3.4049146585326633,0.0
1483,3.407621074257844,0.0
1484,3.4109071239378097,0.0
1485,3.414615087130316,0.0
1486,3.418552512851358,0.0
1487,3.422523820517526,0.0
1488,3.4263690433495393,0.0
1489,3.430076634526288,0.0
1490,3.433673705312494,0.0
1491,3.4371489440316103,0.0
1492,3.4400324348465925,0.0
1493,3.441686559986887,0.0
1494,3.4415823550343,0.0
1495,3.4403096517910283,0.0
1496,3.4402617529627393,0.0
1497,3.4439958338825645,0.0
1498,3.459087201047906,0.0
1499,3.5141711524999044,0.0
1500,3.6434068753884525,0.0
1501,3.8810644152501625,0.0
1502,4.262778458006588,0.0
1503,4.825038655037528,0.0
1504,5.603531929509508,0.0
1505,6.581110733837911,0.0
1506,7.654792619334175,0.0
1507,8.713730623076135,0.0
1508,9.638019805495528,0.0
1509,10.269473632386552,0.0
1510,10.43979408945521,0.0
1511,9.99514891146267,0.0
1512,8.962091572595172,0.0
1513,7.489577284465029,0.0
1514,5.729527163317016,0.0
1515,3.8808420414024933,0.0
1516,2.2192286850943876,0.0
1517,1.0274900221399856,0.0
1518,0.5228753029600255,0.0
1519,0.6436367937281755,0.0
1520,1.253816952875808,0.0
1521,2.212332568577759,0.0
1522,3.3136445725684283,0.0
1523,4.308328736360922,0.0
1524,4.948085345243877,0.0
1525,5.1170072826212145,0.0
1526,4.916986793882755,0.0
1527,4.4702050158897855,0.0
1528,3.900158711546323,0.0
1529,3.3359833306533617,0.0
1530,2.9083246671150222,0.0
1531,2.73765729779428,0.0
1532,2.8153810207518273,0.0
1533,3.044001551053044,0.0
1534,3.324465280285886,0.0
1535,3.5807021540718753,0.0
1536,3.774696190052859,0.0
1537,3.8720056652135835,0.0
1538,3.8516995526242512,0.0
1539,3.751160097558986,0.0
1540,3.6234985198993193,0.0
1541,3.5192812933412476,0.0
1542,3.456521140187517,0.0
1543,3.431020052090609,0.0
1544,3.4383148030642094,0.0
1545,3.4700313759165553,0.0
1546,3.511271229727159,0.0
1547,3.546517938109645,0.0
1548,3.5637633655101335,0.0
1549,3.566247979775139,0.0
1550,3.561354123882791,0.0
1551,3.556221548385564,0.0
1552,3.5548171717133523,0.0
1553,3.558348238654458,0.0
1554,3.5675208197700035,0.0
1555,3.5818718914135936,0.0
1556,3.5989971627078505,0.0
1557,3.616306985406692,0.0
1558,3.631577132295245,0.0
1559,3.6441828365637745,0.0
1560,3.6539368264414014,0.0
1561,3.660634632909293,0.0
1562,3.6638915861948416,0.0
1563,3.663838168439802,0.0
1564,3.6611257160145105,0.0
1565,3.6563645466503787,0.0
1566,3.6500722711997655,0.0
1567,3.6427575758261552,0.0
1568,3.6349453622171524,0.0
1569,3.627232007553061,0.0
1570,3.6202335764063602,0.0
1571,3.6145646585900892,0.0
1572,3.6107920287140614,0.0
1573,3.6090182002841256,0.0
1574,3.608985182234938,0.0
1575,3.61042852297286,0.0
1576,3.613089907197764,0.0
1577,3.6167116151827425,0.0
1578,3.621034913659912,0.0
1579,3.625796570376993,0.0
1580,3.6307321051939394,0.0
1581,3.6355777357659216,0.0
1582,3.6400916000539114,0.0
1583,3.6442467104164478,0.0
1584,3.648186493158337,0.0
1585,3.65203867450219,0.0
1586,3.65589558748395,0.0
1587,3.659846101856158,0.0
1588,3.664012232172939,0.0
1589,3.668664154860764,0.0
1590,3.674113429733262,0.0
1591,3.6806371747546343,0.0
1592,3.688039657869143,0.0
1593,3.695589877503531,0.0
1594,3.702389813099653,0.0
1595,3.708604977270989,0.0
1596,3.7162385139850573,0.0
1597,3.7274748504245823,0.0
1598,3.7491678468458294,0.0
1599,3.8091914238138718,0.0
1600,3.941331721089429,0.0
1601,4.179474517450811,0.0
1602,4.558860460949286,0.0
1603,5.115948346236468,0.0
1604,5.886823792362902,0.0
1605,6.857033517831314,0.0
1606,7.92467534590426,0.0
1607,8.979149969635927,0.0
1608,9.901430983564332,0.0
1609,10.53428896994993,0.0
1610,10.709674204755974,0.0
1611,10.272493512199087,0.0
1612,9.244086336982322,0.0
1613,7.773056487084587,0.0
1614,6.011229303937627,0.0
1615,4.155363552040101,0.0
1616,2.4804574693344636,0.0
1617,1.2693536097095515,0.0
1618,0.7439166583270169,0.0
1619,0.8476304782908612,0.0
1620,1.444581809877333,0.0
1621,2.394262717347499,0.0
1622,3.493125176616388,0.0
1623,4.49194536193658,0.0
1624,5.142071088540116,0.0
1625,5.321466481348267,0.0
1626,5.129930325526266,0.0
1627,4.689683239186761,0.0
1628,4.124169407286437,0.0
1629,3.5624583684375617,0.0
1630,3.1352352745108445,0.0
1631,2.964082309836123,0.0
1632,3.044363205547553,0.0
1633,3.278824599949762,0.0
1634,3.568039550338076,0.0
1635,3.8345485578810656,0.0
1636,4.039646000970516,0.0
1637,4.148574962800486,0.0
1638,4.139141620117677,0.0
1639,4.047318484359534,0.0
1640,3.9259001354572725,0.0
1641,3.8254060512511807,0.0
1642,3.7645301724543887,0.0
1643,3.73903957852997,0.0
1644,3.7445917167291474,0.0
1645,3.773118445127005,0.0
1646,3.8099080128255323,0.0
1647,3.839566277825734,0.0
1648,3.8499607508385254,0.0
1649,3.844166763414957,0.0
1650,3.829688517058231,0.0
1651,3.8138137104116434,0.0
1652,3.8007494297141564,0.0
1653,3.792061078048598,0.0
1654,3.7888873548190674,0.0
1655,3.7912454084826135,0.0
1656,3.7971759557692693,0.0
1657,3.804515072270348,0.0
1658,3.8114385046419708,0.0
1659,3.8177169354641896,0.0
1660,3.8235887668224584,0.0
1661,3.8292770797913436,0.0
1662,3.834791093291183,0.0
1663,3.840094930093491,0.0
1664,3.845264966918688,0.0
1665,3.850330032131843,0.0
1666,3.8552245806741565,0.0
1667,3.8598732175187713,0.0
1668,3.8642156178213916,0.0
1669,3.868262719052411,0.0
1670,3.8720465021093187,0.0
1671,3.8755976327475246,0.0
1672,3.8789292384359713,0.0
1673,3.8820733915552834,0.0
1674,3.8850953942978976,0.0
1675,3.88806549161921,0.0
1676,3.89106017423248,0.0
1677,3.8941565899585453,0.0
1678,3.89743094483499,0.0
1679,3.9009549600231486,0.0
1680,3.9047990231037892,0.0
1681,3.909034144692087,0.0
1682,3.9137334632996,0.0
1683,3.9188073662040086,0.0
1684,3.9239905503022925,0.0
1685,3.9289897907636573,0.0
1686,3.933475843067977,0.0
1687,3.9371156428140877,0.0
1688,3.939606918233626,0.0
1689,3.9407950721677203,0.0
1690,3.940569723998754,0.0
1691,3.9387897521507416,0.0
1692,3.934880150671824,0.0
1693,3.928341532219697,0.0
1694,3.9191187313534708,0.0
1695,3.9081988255831344,0.0
1696,3.89843879927366,0.0
1697,3.892895522065911,0.0
1698,3.898963138182288,0.0
1699,3.944983519150504,0.0
1700,4.0656142705217775,0.0
1701,4.2956029219570535,0.0
1702,4.670984984284724,0.0
1703,5.228220175259732,0.0
1704,6.002690380001766,0.0
1705,6.981477796362093,0.0
1706,8.062691833955608,0.0
1707,9.134855371355036,0.0
1708,10.07866507153966,0.0
1709,10.736751853392919,0.0
1710,10.940190117271008,0.0
1711,10.531609011057757,0.0
1712,9.525994906109716,0.0
1713,8.071175178691346,0.0
1714,6.319309392388502,0.0
1715,4.465489896277121,0.0
1716,2.784401162529782,0.0
1717,1.5593715766924348,0.0
1718,1.0171105335354058,0.0
1719,1.1069897070872385,0.0
1720,1.693598448380596,0.0
1721,2.6374135983831053,0.0
1722,3.737329119287998,0.0
1723,4.744375775212527,0.0
1724,5.40917766782831,0.0
1725,5.603202741535965,0.0
1726,5.4235583085849415,0.0
1727,4.992050938380466,0.0
1728,4.431623105848955,0.0
1729,3.8708207243222392,0.0
1730,3.4399145599359153,0.0
1731,3.261063348843881,0.0
1732,3.333196046038612,0.0
1733,3.5595394367717987,0.0
1734,3.8411304827266726,0.0
1735,4.099990827588384,0.0
1736,4.297555335899123,0.0
1737,4.399607301332613,0.0
1738,4.383590886063077,0.0
1739,4.284881216637355,0.0
1740,4.15680931515031,0.0
1741,4.050683530911841,0.0
1742,3.986716202667325,0.0
1743,3.960810364052449,0.0
1744,3.9682097041204085,0.0
1745,4.000586449872782,0.0
1746,4.042857100523447,0.0
1747,4.079186918410011,0.0
1748,4.096768019463763,0.0
1749,4.097936516344038,0.0
1750,4.0897549525672945,0.0
1751,4.079094218507249,0.0
1752,4.06983234508041,0.0
1753,4.0634107682845535,0.0
1754,4.061096877405908,0.0
1755,4.06309596193153,0.0
1756,4.067603796592542,0.0
1757,4.07259093808789,0.0
1758,4.0763431032257476,0.0
1759,4.078734012063394,0.0
1760,4.080136427984835,0.0
1761,4.080909605418477,0.0
1762,4.08120157625285,0.0
1763,4.081085453878619,0.0
1764,4.080747418609681,0.0
1765,4.080331010681804,0.0
1766,4.079883830180104,0.0
1767,4.079442640102719,0.0
1768,4.07905818353205,0.0
1769,4.078852145458292,0.0
1770,4.078968659061629,0.0
1771,4.079550693682418,0.0
1772,4.080720360980689,0.0
1773,4.0824959851583245,0.0
1774,4.084781461544202,0.0
1775,4.087476519159027,0.0
1776,4.090487235611262,0.0
1777,4.093720411250158,0.0
1778,4.097081972929989,0.0
1779,4.100473383462146,0.0
1780,4.103794683342587,0.0
1781,4.106946466640815,0.0
1782,4.1098395319302155,0.0
1783,4.112446642111918,0.0
1784,4.114812587377206,0.0
1785,4.116968167064822,0.0
1786,4.118907572746439,0.0
1787,4.1206207958405265,0.0
1788,4.122126382231502,0.0
1789,4.123589844468894,0.0
1790,4.125223844154835,0.0
1791,4.1272137360217185,0.0
1792,4.129305255936173,0.0
1793,4.130872577039633,0.0
1794,4.131264476024056,0.0
1795,4.1308013509906285,0.0
1796,4.1317037791445665,0.0
1797,4.13641205593468,0.0
1798,4.151387730633458,0.0
1799,4.203936550640425,0.0
1800,4.328097491353564,0.0
1801,4.557991612888623,0.0
1802,4.929017336347481,0.0
1803,5.477607826163082,0.0
1804,6.239859025506865,0.0
1805,7.205860579112496,0.0
1806,8.275301171232927,0.0
1807,9.33733489618325,0.0
1808,10.273861250971839,0.0
1809,10.928907750799564,0.0
1810,11.134183985804295,0.0
1811,10.731655097618383,0.0
1812,9.731387429376618,0.0
1813,8.28080183693811,0.0
1814,6.531768977215055,0.0
1815,4.6770547299580665,0.0
1816,2.99028375860554,0.0
1817,1.754576671923533,0.0
1818,1.2005804416135155,0.0
1819,1.2830563039334217,0.0
1820,1.866415213529097,0.0
1821,2.8113849716702606,0.0
1822,3.918637393389845,0.0
1823,4.939194241166927,0.0
1824,5.623034389316614,0.0
1825,5.83525412961127,0.0
1826,5.670149033860936,0.0
1827,5.249140572893187,0.0
1828,4.694702751969445,0.0
1829,4.134882840418584,0.0
1830,3.699565847387608,0.0
1831,3.511441406074113,0.0
1832,3.5730416453012457,0.0
1833,3.7880773332162962,0.0
1834,4.058186739323164,0.0
1835,4.305051952115969,0.0
1836,4.490384687678812,0.0
1837,4.580670919504703,0.0
1838,4.553199509598991,0.0
1839,4.442869799535583,0.0
1840,4.30370824538126,0.0
1841,4.187955697134216,0.0
1842,4.117527055449363,0.0
1843,4.088703999994151,0.0
1844,4.096346936828795,0.0
1845,4.131861183486252,0.0
1846,4.179791601247666,0.0
1847,4.223858487295424,0.0
1848,4.250585741104523,0.0
1849,4.261555266787968,0.0
1850,4.263382652731385,0.0
1851,4.262515806464056,0.0
1852,4.26248918546839,0.0
1853,4.2645024081609675,0.0
1854,4.269835173742024,0.0
1855,4.278775647263519,0.0
1856,4.289571603354875,0.0
1857,4.300223686631368,0.0
1858,4.309024399322985,0.0
1859,4.315844997689651,0.0
1860,4.321088112844854,0.0
1861,4.325144650476262,0.0
1862,4.328198131229487,0.0
1863,4.330325092188585,0.0
1864,4.331705077234753,0.0
1865,4.332479609632509,0.0
1866,4.33269281158805,0.0
1867,4.332376917261571,0.0
1868,4.331577104677017,0.0
1869,4.330409070226756,0.0
1870,4.329012407887629,0.0
1871,4.327525692591914,0.0
1872,4.326069165426106,0.0
1873,4.324726468651951,0.0
1874,4.323546085332387,0.0
1875,4.322576449251258,0.0
1876,4.321872438579089,0.0
1877,4.321489724091458,0.0
1878,4.321483167973739,0.0
1879,4.321903195669112,0.0
1880,4.3227987187862835,0.0
1881,4.324219138048927,0.0
1882,4.326221701623769,0.0
1883,4.328815858005513,0.0
1884,4.331919304246768,0.0
1885,4.335423074799358,0.0
1886,4.3391810489778875,0.0
1887,4.343042501236161,0.0
1888,4.3468831334971485,0.0
1889,4.350724694218593,0.0
1890,4.354639104283905,0.0
1891,4.358674158391254,0.0
1892,4.362450452802131,0.0
1893,4.365278319501288,0.0
1894,4.366558867936945,0.0
1895,4.3666286931319,0.0
1896,4.367752719907851,0.0
1897,4.372436694638929,0.0
1898,4.386907332634612,0.0
1899,4.438102027572165,0.0
1900,4.560121668655629,0.0
1901,4.787143636985014,0.0
1902,5.154589420487985,0.0
1903,5.698930186133894,0.0
1904,6.456360280728766,0.0
1905,7.419304871999696,0.0
1906,8.488461335314863,0.0
1907,9.55298386594189,0.0
1908,10.495315146065252,0.0
1909,11.16027394073867,0.0
1910,11.379576680829693,0.0
1911,10.993993961975747,0.0
1912,10.008027356939511,0.0
1913,8.568304963927432,0.0
1914,6.826399909149378,0.0
1915,4.972771442787288,0.0
1916,3.279913251425198,0.0
1917,2.0307212260457588,0.0
1918,1.459555656091644,0.0
1919,1.5267380530794252,0.0
1920,2.0965067217945297,0.0
1921,3.029790125495624,0.0
1922,4.129035895988646,0.0
1923,5.145610866013063,0.0
1924,5.829797988841111,0.0
1925,6.0413792659807255,0.0
1926,5.872636890987306,0.0
1927,5.445559550870255,0.0
1928,4.883109278580547,0.0
1929,4.3137832606317685,0.0
1930,3.868032634918121,0.0
1931,3.669958562303979,0.0
1932,3.7266517287686325,0.0
1933,3.942444766282574,0.0
1934,4.218400110767632,0.0
1935,4.474591308668353,0.0
1936,4.671692526077106,0.0
1937,4.77560494637205,0.0
1938,4.762217850319111,0.0
1939,4.664628804357255,0.0
1940,4.536267763733966,0.0
1941,4.429002633953983,0.0
1942,4.365182752036086,0.0
1943,4.340994143763278,0.0
1944,4.351578678172253,0.0
1945,4.38882936081481,0.0
1946,4.4376818267979505,0.0
1947,4.4821691971533815,0.0
1948,4.508916200528133,0.0
1949,4.519498283713213,0.0
1950,4.520840650124363,0.0
1951,4.519724279594379,0.0
1952,4.520091620596128,0.0
1953,4.523267951787217,0.0
1954,4.530301666529224,0.0
1955,4.541263999978684,0.0
1956,4.554157254460502,0.0
1957,4.566713313249908,0.0
1958,4.576933792653644,0.0
1959,4.584387588894108,0.0
1960,4.589208220630374,0.0
1961,4.591519271756246,0.0
1962,4.591243292223668,0.0
1963,4.588385661232631,0.0
1964,4.583481435363554,0.0
1965,4.5770852835560945,0.0
1966,4.56965312460411,0.0
1967,4.561627872455971,0.0
1968,4.553464401215601,0.0
1969,4.545687580779948,0.0
1970,4.538847668560029,0.0
1971,4.533494043018746,0.0
1972,4.530156611931743,0.0
1973,4.529046298336358,0.0
1974,4.529742961622542,0.0
1975,4.531750821246175,0.0
1976,4.534580629421313,0.0
1977,4.53774400519452,0.0
1978,4.540751820629417,0.0
1979,4.543110544557511,0.0
1980,4.544325037930551,0.0
1981,4.5439005910612655,0.0
1982,4.541352968075935,0.0
1983,4.536572399131647,0.0
1984,4.530231623272221,0.0
1985,4.523086775641367,0.0
1986,4.515856331865675,0.0
1987,4.509253732807024,0.0
1988,4.504016828137928,0.0
1989,4.501028390244877,0.0
1990,4.501224469679273,0.0
1991,4.505519931485989,0.0
1992,4.514410567976691,0.0
1993,4.527478774388707,0.0
1994,4.54312981668672,0.0
1995,4.560493957366895,0.0
1996,4.580655699562721,0.0
1997,4.604962781044166,0.0
1998,4.638198957633147,0.0
1999,4.70569635877294,0.0
2000,4.840392444921472,0.0
2001,5.075298193235518,0.0
2002,5.444637630300747,0.0
2003,5.984301114393798,0.0
2004,6.731273743450128,0.0
2005,7.681159860058504,0.0
2006,8.736616142550332,0.0
2007,9.787685094522175,0.0
2008,10.718212987220271,0.0
2009,11.374722350108073,0.0
2010,11.589828158469489,0.0
2011,11.204091179558443,0.0
2012,10.217318139234418,0.0
2013,8.775935051825618,0.0
2014,7.031315640891184,0.0
2015,5.171644731228012,0.0
2016,3.468221210054092,0.0
2017,2.203708328118403,0.0
2018,1.6159696430091093,0.0
2019,1.671055017448292,0.0
2020,2.23304749345178,0.0
2021,3.163032396990088,0.0
2022,4.265223846782749,0.0
2023,5.291063167930597,0.0
2024,5.990497842298143,0.0
2025,6.217400133397985,0.0
2026,6.061170203858121,0.0
2027,5.643653991691843,0.0
2028,5.087595667316946,0.0
2029,4.5212288309631035,0.0
2030,4.074860247430223,0.0
2031,3.8732238767095017,0.0
2032,3.9272803615173424,0.0
2033,4.141850414522637,0.0
2034,4.418056282463297,0.0
2035,4.675089845297304,0.0
2036,4.873266702848482,0.0
2037,4.978609987494304,0.0
2038,4.966358156214007,0.0
2039,4.86847732345435,0.0
2040,4.738501978500915,0.0
2041,4.628616459328586,0.0
2042,4.562307627153795,0.0
2043,4.53597618555829,0.0
2044,4.54466749454244,0.0
2045,4.580313319142355,0.0
2046,4.627799377948194,0.0
2047,4.671026161437349,0.0
2048,4.696284738457769,0.0
2049,4.704689188677229,0.0
2050,4.703027366103036,0.0
2051,4.697966205837816,0.0
2052,4.693414267776395,0.0
2053,4.690723807021892,0.0
2054,4.691272819706172,0.0
2055,4.695553651232835,0.0
2056,4.701963630917448,0.0
2057,4.708604960971737,0.0
2058,4.713828599417271,0.0
2059,4.717539176831201,0.0
2060,4.720240018217445,0.0
2061,4.722426347262258,0.0
2062,4.724396205366343,0.0
2063,4.726265115713676,0.0
2064,4.728154205326641,0.0
2065,4.730143764887543,0.0
2066,4.732214103666674,0.0
2067,4.734331341448535,0.0
2068,4.736472625611834,0.0
2069,4.738684481813273,0.0
2070,4.741040349591945,0.0
2071,4.743612926744593,0.0
2072,4.746457823870621,0.0
2073,4.7495890235386975,0.0
2074,4.752951940443955,0.0
2075,4.756483539633777,0.0
2076,4.760127399461316,0.0
2077,4.763828043835028,0.0
2078,4.767529308076133,0.0
2079,4.7711706637353295,0.0
2080,4.774689878169923,0.0
2081,4.77802509275111,0.0
2082,4.781122599299422,0.0
2083,4.783952661571296,0.0
2084,4.786530264892036,0.0
2085,4.788861814696117,0.0
2086,4.790915597793915,0.0
2087,4.79265441037,0.0
2088,4.794063544267421,0.0
2089,4.795271895027492,0.0
2090,4.796464815966345,0.0
2091,4.797809188964836,0.0
2092,4.799067468428215,0.0
2093,4.799624854984187,0.0
2094,4.798894519682686,0.0
2095,4.797130179973275,0.0
2096,4.79656334662253,0.0
2097,4.799712527326856,0.0
2098,4.812262229091538,0.0
2099,4.860255448403449,0.0
2100,4.977792710617706,0.0
2101,5.199048071270275,0.0
2102,5.5593713284983215,0.0
2103,6.095205827722363,0.0
2104,6.842757033708338,0.0
2105,7.798834566942267,0.0
2106,8.86619309134781,0.0
2107,9.933837823803414,0.0
2108,10.885065956650521,0.0
2109,11.566201034753524,0.0
2110,11.808835209646949,0.0
2111,11.451486270577817,0.0
2112,10.487332332775566,0.0
2113,9.061302456066402,0.0
2114,7.325067077011997,0.0
2115,5.465311774885187,0.0
2116,3.7528147718873965,0.0
2117,2.470738385881466,0.0
2118,1.8609843479478356,0.0
2119,1.8962280391042685,0.0
2120,2.44116036292577,0.0
2121,3.3577227069352364,0.0
2122,4.452631565564051,0.0
2123,5.478030864063493,0.0
2124,6.183796101055158,0.0
2125,6.418171701502853,0.0
2126,6.26767028684855,0.0
2127,5.85415295826752,0.0
2128,5.300307903116867,0.0
2129,4.73425972448989,0.0
2130,4.286328081945937,0.0
2131,4.081971804172478,0.0
2132,4.13618577992577,0.0
2133,4.354336383086608,0.0
2134,4.637205932313815,0.0
2135,4.902658532367562,0.0
2136,5.11015473908879,0.0
2137,5.225371737894793,0.0
2138,5.222470190048923,0.0
2139,5.131782713623342,0.0
2140,5.006473660375443,0.0
2141,4.898559322596058,0.0
2142,4.832197795994692,0.0
2143,4.80379564347054,0.0
2144,4.808771057577887,0.0
2145,4.839683186445947,0.0
2146,4.881965117869328,0.0
2147,4.919977092124576,0.0
2148,4.940279572855217,0.0
2149,4.944108779944258,0.0
2150,4.938705797117841,0.0
2151,4.93121430369831,0.0
2152,4.9261004899715,0.0
2153,4.924990075695426,0.0
2154,4.9288908417228585,0.0
2155,4.9378498396353185,0.0
2156,4.949795606717756,0.0
2157,4.962335384113434,0.0
2158,4.973305308365591,0.0
2159,4.982079539616412,0.0
2160,4.98866573718266,0.0
2161,4.9930653709543815,0.0
2162,4.995088565850261,0.0
2163,4.994544040331938,0.0
2164,4.99188537526301,0.0
2165,4.9876643807311165,0.0
2166,4.9823317779680405,0.0
2167,4.976322844238285,0.0
2168,4.970083001620558,0.0
2169,4.964126342113366,0.0
2170,4.958995430308212,0.0
2171,4.955232225177477,0.0
2172,4.953362134192616,0.0
2173,4.953732054286251,0.0
2174,4.956122963321556,0.0
2175,4.960195096818943,0.0
2176,4.965615375931768,0.0
2177,4.972051750719017,0.0
2178,4.979171537922569,0.0
2179,4.986637735668954,0.0
2180,4.99411153956724,0.0
2181,5.001254468002516,0.0
2182,5.007735927718071,0.0
2183,5.013305078054106,0.0
2184,5.017968797523681,0.0
2185,5.021776421086551,0.0
2186,5.0247387535270045,0.0
2187,5.026860626424322,0.0
2188,5.028167556538662,0.0
2189,5.0288271586133515,0.0
2190,5.029066750151574,0.0
2191,5.029097678083339,0.0
2192,5.028738960654031,0.0
2193,5.027406058178005,0.0
2194,5.024499219549757,0.0
2195,5.020207116615661,0.0
2196,5.016717290757791,0.0
2197,5.016529431224804,0.0
2198,5.025053738106907,0.0
2199,5.067842643036548,0.0
2200,5.17896746113993,0.0
2201,5.392576410939713,0.0
2202,5.74395810955961,0.0
2203,6.269590876353611,0.0
2204,7.005952705917093,0.0
2205,7.952304919862128,0.0
2206,9.012864790140512,0.0
2207,10.076898718467776,0.0
2208,11.02842694748943,0.0
2209,11.714893893917608,0.0
2210,11.96817231454736,0.0
2211,11.626123872786351,0.0
2212,10.676592519487361,0.0
2213,9.263693208625071,0.0
2214,7.538777405197555,0.0
2215,5.686215175636974,0.0
2216,3.9753417454832105,0.0
2217,2.6889554140060707,0.0
2218,2.071941523207537,0.0
2219,2.1028926961552403,0.0
2220,2.646281279676207,0.0
2221,3.564010088881659,0.0
2222,4.664435500540572,0.0
2223,5.699774890958986,0.0
2224,6.419820228002059,0.0
2225,6.667391676939786,0.0
2226,6.526016282414965,0.0
2227,6.117640430489434,0.0
2228,5.564970306858303,0.0
2229,4.996088531473195,0.0
2230,4.541397028432834,0.0
2231,4.327086695030812,0.0
2232,4.372257866898782,0.0
2233,4.583054748788941,0.0
2234,4.860339043652347,0.0
2235,5.121122443298569,0.0
2236,5.324432975679915,0.0
2237,5.436053802824908,0.0
2238,5.429559524519778,0.0
2239,5.334069264335617,0.0
2240,5.202821271103261,0.0
2241,5.08809987253543,0.0
2242,5.015185995171529,0.0
2243,4.980741032486667,0.0
2244,4.980214391430621,0.0
2245,5.00635806393804,0.0
2246,5.044727049317667,0.0
2247,5.079710825868649,0.0
2248,5.0977191226500205,0.0
2249,5.099671496697662,0.0
2250,5.092829656609086,0.0
2251,5.08438199331932,0.0
2252,5.078921988821203,0.0
2253,5.078136061444695,0.0
2254,5.082983987557444,0.0
2255,5.093455358470576,0.0
2256,5.107400461018611,0.0
2257,5.122320613907773,0.0
2258,5.135927257096437,0.0
2259,5.1474522552380115,0.0
2260,5.156796418016736,0.0
2261,5.163856391680695,0.0
2262,5.168343379828673,0.0
2263,5.169926563256325,0.0
2264,5.168965964320859,0.0
2265,5.165978359980166,0.0
2266,5.161378468929535,0.0
2267,5.155564239573942,0.0
2268,5.148942930768457,0.0
2269,5.141989676182999,0.0
2270,5.135209669036922,0.0
2271,5.129107633779332,0.0
2272,5.124172271069086,0.0
2273,5.120780825467812,0.0
2274,5.1188785940513615,0.0
2275,5.118290066686239,0.0
2276,5.1188464727025496,0.0
2277,5.120380158446014,0.0
2278,5.1227228891757655,0.0
2279,5.125702162126449,0.0
2280,5.1291435719386325,0.0
2281,5.132872988602598,0.0
2282,5.136723920859179,0.0
2283,5.14056805644473,0.0
2284,5.144418035958703,0.0
2285,5.148313369221636,0.0
2286,5.152254679739112,0.0
2287,5.156236107753524,0.0
2288,5.160270768053251,0.0
2289,5.164512189490886,0.0
2290,5.169176905543509,0.0
2291,5.174467780166324,0.0
2292,5.1802076754304895,0.0
2293,5.185765908341795,0.0
2294,5.190309380890578,0.0
2295,5.193693717152172,0.0
2296,5.1977918806877295,0.0
2297,5.20481556193922,0.0
2298,5.219645602133984,0.0
2299,5.267063647896423,0.0
2300,5.380839535148443,0.0
2301,5.594827107211994,0.0
2302,5.943984606505088,0.0
2303,6.464565900763545,0.0
2304,7.193230870869697,0.0
2305,8.131638629491409,0.0
2306,9.185539002729627,0.0
2307,10.244461499172756,0.0
2308,11.193125722032054,0.0
2309,11.880118805650362,0.0
2310,12.137601722145938,0.0
2311,11.802866246923884,0.0
2312,10.858429669974328,0.0
2313,9.447610212992249,0.0
2314,7.721814344925084,0.0
2315,5.863534025517122,0.0
2316,4.14098776533941,0.0
2317,2.8369970456373257,0.0
2318,2.1996318681845053,0.0
2319,2.213933457844979,0.0
2320,2.744584797808413,0.0
2321,3.6538072795302234,0.0
2322,4.751982058730572,0.0
2323,5.79170777337077,0.0
2324,6.522621458068995,0.0
2325,6.782078234247402,0.0
2326,6.650262937074368,0.0
2327,6.249023497080917,0.0
2328,5.700904109917004,0.0
2329,5.133758779526385,0.0
2330,4.677887094545252,0.0
2331,4.459968279415554,0.0
2332,4.503019253180267,0.0
2333,4.713863262414854,0.0
2334,4.993392206332639,0.0
2335,5.257776396967219,0.0
2336,5.4655670951807265,0.0
2337,5.582639433609904,0.0
2338,5.582006641865536,0.0
2339,5.491530648042038,0.0
2340,5.364500589708273,0.0
2341,5.253439720069029,0.0
2342,5.184736365885527,0.0
2343,5.155276431325817,0.0
2344,5.1602584750345155,0.0
2345,5.192257177485289,0.0
2346,5.236588778885754,0.0
2347,5.277306151783777,0.0
2348,5.300312540045454,0.0
2349,5.3058372871427135,0.0
2350,5.300794500468567,0.0
2351,5.292049991153127,0.0
2352,5.283958505407144,0.0
2353,5.278028393699224,0.0
2354,5.275634214568159,0.0
2355,5.277394268314365,0.0
2356,5.281769611914399,0.0
2357,5.286843117316105,0.0
2358,5.29089005928392,0.0
2359,5.293686680075398,0.0
2360,5.295714162294359,0.0
2361,5.297451700854933,0.0
2362,5.2991990675933485,0.0
2363,5.301049343065035,0.0
2364,5.303073855940071,0.0
2365,5.305303926041156,0.0
2366,5.307667959518764,0.0
2367,5.31007619206813,0.0
2368,5.3124473825208804,0.0
2369,5.314767286768214,0.0
2370,5.317053331356637,0.0
2371,5.319322613445029,0.0
2372,5.321576728944896,0.0
2373,5.323799967361608,0.0
2374,5.325978674508965,0.0
2375,5.32810270414392,0.0
2376,5.330168715985762,0.0
2377,5.332174579771206,0.0
2378,5.334117633427261,0.0
2379,5.335991002625092,0.0
2380,5.33778580887054,0.0
2381,5.339493405106706,0.0
2382,5.34111253277698,0.0
2383,5.342662484452862,0.0
2384,5.344237429694247,0.0
2385,5.34594640345207,0.0
2386,5.347859296573077,0.0
2387,5.350038978342786,0.0
2388,5.352565678968674,0.0
2389,5.355658189095147,0.0
2390,5.359601654239783,0.0
2391,5.364669665037121,0.0
2392,5.37076831652427,0.0
2393,5.377330132420865,0.0
2394,5.383470179725463,0.0
2395,5.388888593721433,0.0
2396,5.39531835610777,0.0
2397,5.4048592219901215,0.0
2398,5.422052463749837,0.0
2399,5.471074770408215,0.0
2400,5.585567071672107,0.0
2401,5.7992655104944895,0.0
2402,6.146974115376699,0.0
2403,6.664826681524664,0.0
2404,7.389524209770556,0.0
2405,8.324907028982087,0.0
2406,9.378170889223298,0.0
2407,10.438951878479678,0.0
2408,11.392487551849564,0.0
2409,12.08836969643573,0.0
2410,12.358897390801818,0.0
2411,12.040716245864184,0.0
2412,11.110874009399375,0.0
2413,9.711646863615904,0.0
2414,7.9943014195650886,0.0
2415,6.139246628060829,0.0
2416,4.413262688202536,0.0
2417,3.0989352585232197,0.0
2418,2.447079169302948,0.0
2419,2.449058751409949,0.0
2420,2.969555937391746,0.0
2421,3.870823094344463,0.0
2422,4.965001973773356,0.0
2423,6.00491921886979,0.0
2424,6.740340080522464,0.0
2425,7.0037387092061865,0.0
2426,6.872212393048939,0.0
2427,6.467942915543235,0.0
2428,5.91374843517964,0.0
2429,5.337683971217716,0.0
2430,4.870378118098137,0.0
2431,4.639373655636538,0.0
2432,4.6720254210145535,0.0
2433,4.876257848541197,0.0
2434,5.152865855205196,0.0
2435,5.416888757851924,0.0
2436,5.626053256694851,0.0
2437,5.746009720339388,0.0
2438,5.748930857523686,0.0
2439,5.661077197978962,0.0
2440,5.535461917677799,0.0
2441,5.424516095587416,0.0
2442,5.3554158003704115,0.0
2443,5.3250659797708195,0.0
2444,5.328680832321709,0.0
2445,5.359084964436289,0.0
2446,5.401793297403858,0.0
2447,5.4409542015038195,0.0
2448,5.46240633890601,0.0
2449,5.4661138164437535,0.0
2450,5.459072564445953,0.0
2451,5.448256528280141,0.0
2452,5.4382135132596705,0.0
2453,5.430567619120186,0.0
2454,5.426794078028922,0.0
2455,5.427661705183205,0.0
2456,5.4317671378618755,0.0
2457,5.43729802453575,0.0
2458,5.4426177232192225,0.0
2459,5.44756933556913,0.0
2460,5.452737356713932,0.0
2461,5.458706655251034,0.0
2462,5.465888772285615,0.0
2463,5.474435969772718,0.0
2464,5.48410718863812,0.0
2465,5.494448833228567,0.0
2466,5.504902673624735,0.0
2467,5.514890833444845,0.0
2468,5.523843217814745,0.0
2469,5.531255772610681,0.0
2470,5.536657745523069,0.0
2471,5.539578198579264,0.0
2472,5.539531221558816,0.0
2473,5.536105619316014,0.0
2474,5.52963495648459,0.0
2475,5.520813693780369,0.0
2476,5.51034542587374,0.0
2477,5.498935055478339,0.0
2478,5.4872869999072975,0.0
2479,5.476101524906412,0.0
2480,5.466076789248205,0.0
2481,5.4579111424461555,0.0
2482,5.452310069239292,0.0
2483,5.4498985542353555,0.0
2484,5.450564704263124,0.0
2485,5.45382029405363,0.0
2486,5.459135086845749,0.0
2487,5.465971257018325,0.0
2488,5.473806820427146,0.0
2489,5.482256338524846,0.0
2490,5.4910041177744775,0.0
2491,5.499724851380701,0.0
2492,5.507738391017212,0.0
2493,5.513971199840061,0.0
2494,5.517708733540657,0.0
2495,5.519089811314457,0.0
2496,5.520300814493837,0.0
2497,5.523924451289333,0.0
2498,5.534770638359468,0.0
2499,5.5769965632274205,0.0
2500,5.6847052454804885,0.0
2501,5.892110596695138,0.0
2502,6.234457478789595,0.0
2503,6.74827303647262,0.0
2504,7.470148948020162,0.0
2505,8.405600279000032,0.0
2506,9.462896148714258,0.0
2507,10.531334899325993,0.0
2508,11.49620356197153,0.0
2509,12.207671252752476,0.0
2510,12.497737980629749,0.0
2511,12.202035052989872,0.0
2512,11.291718125951506,0.0
2513,9.90754427342994,0.0
2514,8.200742740019209,0.0
2515,6.349986766586106,0.0
2516,4.620844494019544,0.0
2517,3.295956276156195,0.0
2518,2.6289967883581236,0.0
2519,2.6180668441279695,0.0
2520,3.12819048621031,0.0
2521,4.021914435138511,0.0
2522,5.113423466145352,0.0
2523,6.156032255422331,0.0
2524,6.899521849129807,0.0
2525,7.17140613968676,0.0
2526,7.045271974302429,0.0
2527,6.643394483082044,0.0
2528,6.088628833557705,0.0
2529,5.508988107864543,0.0
2530,5.03518834082985,0.0
2531,4.795341217597632,0.0
2532,4.8208821876232575,0.0
2533,5.020725222564144,0.0
2534,5.2956764926970985,0.0
2535,5.55985374320646,0.0
2536,5.770307474464549,0.0
2537,5.892643536494253,0.0
2538,5.898410833189272,0.0
2539,5.812423499844459,0.0
2540,5.687587767227195,0.0
2541,5.576409159261885,0.0
2542,5.507027330607283,0.0
2543,5.476526567085327,0.0
2544,5.480055351608662,0.0
2545,5.5105242779982335,0.0
2546,5.5534934790041754,0.0
2547,5.593047882421171,0.0
2548,5.614812137982522,0.0
2549,5.618319632255863,0.0
2550,5.610486220076095,0.0
2551,5.598233756460354,0.0
2552,5.5861437507485,0.0
2553,5.575805273002434,0.0
2554,5.568708526798621,0.0
2555,5.5657268923030845,0.0
2556,5.565550337859754,0.0
2557,5.566427410381296,0.0
2558,5.5667666676637,0.0
2559,5.566433512295248,0.0
2560,5.566071559621843,0.0
2561,5.566327380685443,0.0
2562,5.5676803753161375,0.0
2563,5.570372526766243,0.0
2564,5.5744029140700615,0.0
2565,5.57960149620751,0.0
2566,5.585692206983324,0.0
2567,5.592377779889968,0.0
2568,5.599368032618211,0.0
2569,5.606437792842595,0.0
2570,5.613396837167246,0.0
2571,5.620054906407862,0.0
2572,5.626207303260618,0.0
2573,5.631644650370133,0.0
2574,5.636309621222927,0.0
2575,5.640241231836712,0.0
2576,5.643486757162932,0.0
2577,5.646094883378256,0.0
2578,5.648113854886338,0.0
2579,5.649587829873987,0.0
2580,5.650558755767941,0.0
2581,5.651068732958118,0.0
2582,5.651166741395878,0.0
2583,5.650904907247906,0.0
2584,5.650270214611298,0.0
2585,5.6491962493400525,0.0
2586,5.647576295984014,0.0
2587,5.64529545317254,0.0
2588,5.642253232914094,0.0
2589,5.6384835252566425,0.0
2590,5.634093386788803,0.0
2591,5.629182042849644,0.0
2592,5.6235066473940964,0.0
2593,5.616397534549328,0.0
2594,5.607420530749436,0.0
2595,5.596930504357616,0.0
2596,5.58734122738347,0.0
2597,5.581493898566039,0.0
2598,5.584255539081971,0.0
2599,5.619530743772851,0.0
2600,5.721655865319789,0.0
2601,5.9250986710874285,0.0
2602,6.26532061434713,0.0
2603,6.7790569317149405,0.0
2604,7.502640240926628,0.0
2605,8.44294138438534,0.0
2606,9.509119439111252,0.0
2607,10.589877946226467,0.0
2608,11.570272937629053,0.0
2609,12.300809343514592,0.0
2610,12.612938927766121,0.0
2611,12.341093760388567,0.0
2612,11.450310256021734,0.0
2613,10.079472472171432,0.0
2614,8.379836789118782,0.0
2615,6.528732696318669,0.0
2616,4.790788023602329,0.0
2617,3.4490355049556083,0.0
2618,2.760177169373073,0.0
2619,2.7295002061683156,0.0
2620,3.2227664210939464,0.0
2621,4.1031288885448784,0.0
2622,5.1871420906600685,0.0
2623,6.228964357474352,0.0
2624,6.978461915130442,0.0
2625,7.2582404473156705,0.0
2626,7.138067866598852,0.0
2627,6.740191083834008,0.0
2628,6.187383860571954,0.0
2629,5.607493189410657,0.0
2630,5.131199457252734,0.0
2631,4.887010110046,0.0
2632,4.9102966468538165,0.0
2633,5.11091909698978,0.0
2634,5.389598370137617,0.0
2635,5.65944729143607,0.0
2636,5.876692245781964,0.0
2637,6.006779359343398,0.0
2638,6.020553883114467,0.0
2639,5.94124533788501,0.0
2640,5.821525461524852,0.0
2641,5.713846130225955,0.0
2642,5.647189500344465,0.0
2643,5.618738564420341,0.0
2644,5.623670908134405,0.0
2645,5.655212473353691,0.0
2646,5.699212113777453,0.0
2647,5.739929212301626,0.0
2648,5.763021522093662,0.0
2649,5.767823645902643,0.0
2650,5.761405999583853,0.0
2651,5.750874999055957,0.0
2652,5.741083162420595,0.0
2653,5.733798443417134,0.0
2654,5.730424721887871,0.0
2655,5.7316276770481895,0.0
2656,5.735877627865409,0.0
2657,5.741169368443328,0.0
2658,5.745642969171829,0.0
2659,5.748870863032728,0.0
2660,5.751240789562842,0.0
2661,5.753146282946881,0.0
2662,5.754819907813179,0.0
2663,5.756277283849944,0.0
2664,5.757576859361093,0.0
2665,5.758792047055225,0.0
2666,5.759892830839255,0.0
2667,5.7608263606149945,0.0
2668,5.761546216127239,0.0
2669,5.762069885976865,0.0
2670,5.762451466669912,0.0
2671,5.762745176756841,0.0
2672,5.762991334597532,0.0
2673,5.763210955404645,0.0
2674,5.763422017456925,0.0
2675,5.763643187150412,0.0
2676,5.763900007116106,0.0
2677,5.764219539680523,0.0
2678,5.764628446328921,0.0
2679,5.765149372084256,0.0
2680,5.76580264670172,0.0
2681,5.766608717742704,0.0
2682,5.7675946549117265,0.0
2683,5.768795550903977,0.0
2684,5.770228489698905,0.0
2685,5.771884388001267,0.0
2686,5.773713949977321,0.0
2687,5.775659066289852,0.0
2688,5.777674701398241,0.0
2689,5.779847886022297,0.0
2690,5.7823422618501885,0.0
2691,5.785315275111876,0.0
2692,5.788595155180927,0.0
2693,5.791549527721707,0.0
2694,5.79350676786764,0.0
2695,5.794369092464975,0.0
2696,5.796101561089306,0.0
2697,5.801129345710797,0.0
2698,5.813714575679578,0.0
2699,5.856826910980444,0.0
2700,5.964356824016024,0.0
2701,6.170351939572703,0.0
2702,6.50981606711053,0.0
2703,7.019099210138543,0.0
2704,7.734668510699917,0.0
2705,8.665736263993695,0.0
2706,9.723495369859187,0.0
2707,10.797122916575038,0.0
2708,11.772489595512429,0.0
2709,12.501518578330296,0.0
2710,12.816190342345973,0.0
2711,12.550874124936,0.0
2712,11.665593482479235,0.0
2713,10.298241037071705,0.0
2714,8.600180458085573,0.0
2715,6.746954470061548,0.0
2716,5.001666549447706,0.0
2717,3.647225378685629,0.0
2718,2.9426790575535473,0.0
2719,2.9000862775322385,0.0
2720,3.385493468794704,0.0
2721,4.262119399279579,0.0
2722,5.348357913076978,0.0
2723,6.398756726971238,0.0
2724,7.1629691858341005,0.0
2725,7.458641357065144,0.0
2726,7.351297812606383,0.0
2727,6.962924856542479,0.0
2728,6.415986353908642,0.0
2729,5.83792975319806,0.0
2730,5.359167146358118,0.0
2731,5.108322065310828,0.0
2732,5.124442203434967,0.0
2733,5.318201908300651,0.0
2734,5.590442679697687,0.0
2735,5.853849494687707,0.0
2736,6.064345989698079,0.0
2737,6.187773470132327,0.0
2738,6.194862681028808,0.0
2739,6.107792643690931,0.0
2740,5.979542050397903,0.0
2741,5.863051884117968,0.0
2742,5.788694349295097,0.0
2743,5.754290531090508,0.0
2744,5.755019096174801,0.0
2745,5.783955899026743,0.0
2746,5.826772537975516,0.0
2747,5.867431121489984,0.0
2748,5.891159703736781,0.0
2749,5.896616995398753,0.0
2750,5.890552695449188,0.0
2751,5.879784887135394,0.0
2752,5.868964644334698,0.0
2753,5.859606441440404,0.0
2754,5.853139215559998,0.0
2755,5.85055349331967,0.0
2756,5.850647570519178,0.0
2757,5.8517084018884375,0.0
2758,5.852154417359469,0.0
2759,5.851810435554927,0.0
2760,5.851353858311955,0.0
2761,5.851471013448452,0.0
2762,5.852693490936971,0.0
2763,5.855316184114295,0.0
2764,5.859383356534156,0.0
2765,5.864686639596314,0.0
2766,5.8709037076051205,0.0
2767,5.877687685323661,0.0
2768,5.884697514591173,0.0
2769,5.8916548787106935,0.0
2770,5.898319735629688,0.0
2771,5.904452332939274,0.0
2772,5.909799558441592,0.0
2773,5.914096964545208,0.0
2774,5.917265272065974,0.0
2775,5.919411591377766,0.0
2776,5.920657813065792,0.0
2777,5.92112746130154,0.0
2778,5.920943697737235,0.0
2779,5.920225741463494,0.0
2780,5.919090391332468,0.0
2781,5.917654531168659,0.0
2782,5.916041408402314,0.0
2783,5.914383006567517,0.0
2784,5.912796303255206,0.0
2785,5.911371835904912,0.0
2786,5.910159560717494,0.0
2787,5.909199961523903,0.0
2788,5.908545342052682,0.0
2789,5.908377624787504,0.0
2790,5.908958802010071,0.0
2791,5.910546173516034,0.0
2792,5.913080729453875,0.0
2793,5.916028270000652,0.0
2794,5.91870132529765,0.0
2795,5.920833189952442,0.0
2796,5.92421833943894,0.0
2797,5.931145672538699,0.0
2798,5.9455642994437365,0.0
2799,5.9897816777137,0.0
2800,6.097517055113499,0.0
2801,6.302678155552326,0.0
2802,6.640091242012433,0.0
2803,7.145959800391477,0.0
2804,7.856661849379797,0.0
2805,8.783170241093472,0.0
2806,9.83827926421731,0.0
2807,10.911129730104898,0.0
2808,11.887875206605882,0.0
2809,12.621359900785972,0.0
2810,12.943592520203161,0.0
2811,12.688433637268284,0.0
2812,11.810430290660863,0.0
2813,10.445896743745612,0.0
2814,8.746327839328405,0.0
2815,6.885970803960265,0.0
2816,5.126772828696183,0.0
2817,3.75195589599445,0.0
2818,3.023192001964047,0.0
2819,2.9598395995795648,0.0
2820,3.4287357132435994,0.0
2821,4.293579383172251,0.0
2822,5.375024342111901,0.0
2823,6.428479905207801,0.0
2824,7.203605405182241,0.0
2825,7.513213458327961,0.0
2826,7.418308362287673,0.0
2827,7.040535385897748,0.0
2828,6.501970903639427,0.0
2829,5.9295795764917285,0.0
2830,5.453422135704856,0.0
2831,5.202111107078494,0.0
2832,5.2182543434257065,0.0
2833,5.413319439882615,0.0
2834,5.688028857120495,0.0
2835,5.9544294112651075,0.0
2836,6.167872881376802,0.0
2837,6.29436100500179,0.0
2838,6.304308404621752,0.0
2839,6.218590293615184,0.0
2840,6.090243002432527,0.0
2841,5.972450463980978,0.0
2842,5.896731349327532,0.0
2843,5.861354746754408,0.0
2844,5.861599424436467,0.0
2845,5.890677717646903,0.0
2846,5.934382799979261,0.0
2847,5.976672441593623,0.0
2848,6.00264656967618,0.0
2849,6.010576142625086,0.0
2850,6.007179239084611,0.0
2851,5.999277452930959,0.0
2852,5.991612484024668,0.0
2853,5.985716591758486,0.0
2854,5.982911270543676,0.0
2855,5.984043303839627,0.0
2856,5.987763906171202,0.0
2857,5.992175380002947,0.0
2858,5.995498582010515,0.0
2859,5.997333323594618,0.0
2860,5.998169357518322,0.0
2861,5.9985088218956095,0.0
2862,5.998705363442122,0.0
2863,5.99888211462811,0.0
2864,5.9991489182442175,0.0
2865,5.999597617392097,0.0
2866,6.000215677103595,0.0
2867,6.000964213489898,0.0
2868,6.001809587194418,0.0
2869,6.002779670763907,0.0
2870,6.003942281796086,0.0
2871,6.005365706706095,0.0
2872,6.0071054136663085,0.0
2873,6.009195986248569,0.0
2874,6.0116400677668755,0.0
2875,6.01440424534965,0.0
2876,6.01745965201504,0.0
2877,6.020779173810434,0.0
2878,6.024335370062263,0.0
2879,6.02809693532429,0.0
2880,6.03203003873602,0.0
2881,6.03610090360089,0.0
2882,6.040281857806794,0.0
2883,6.04455299400231,0.0
2884,6.048825989661442,0.0
2885,6.052914039364435,0.0
2886,6.0565846481041605,0.0
2887,6.059595157602992,0.0
2888,6.061713558430987,0.0
2889,6.062834885177364,0.0
2890,6.062937706965455,0.0
2891,6.061997283983855,0.0
2892,6.0596854949652315,0.0
2893,6.055201414832389,0.0
2894,6.047998111968956,0.0
2895,6.038421005161739,0.0
2896,6.028908999153675,0.0
2897,6.022431396243361,0.0
2898,6.023452681730673,0.0
2899,6.054428570373043,0.0
2900,6.149718262536036,0.0
2901,6.343906715604699,0.0
2902,6.6724597284994385,0.0
2903,7.172235452012061,0.0
2904,7.879763886145527,0.0
2905,8.807216731506777,0.0
2906,9.868536660024866,0.0
2907,10.952296068054903,0.0
2908,11.944378000800327,0.0
2909,12.698026686831692,0.0
2910,13.044756964623337,0.0
2911,12.817448497770146,0.0
2912,11.964693930734562,0.0
2913,10.620579805485766,0.0
2914,8.936280566772941,0.0
2915,7.08457250740719,0.0
2916,5.3259529819662115,0.0
2917,3.9437344702494253,0.0
2918,3.2018359131731793,0.0
2919,3.1267730320405738,0.0
2920,3.5860246382216263,0.0
2921,4.443525976529591,0.0
2922,5.52194818126656,0.0
2923,6.577396521033158,0.0
2924,7.3596899627143735,0.0
2925,7.677487433379203,0.0
2926,7.5875625322627895,0.0
2927,7.21170941515118,0.0
2928,6.672110299586857,0.0
2929,6.095736005059285,0.0
2930,5.612785199861376,0.0
2931,5.3523076814285275,0.0
2932,5.360922008922316,0.0
2933,5.551449797531642,0.0
2934,5.824630674895433,0.0
2935,6.091687141792541,0.0
2936,6.30712811291952,0.0
2937,6.436879685780643,0.0
2938,6.450836368423951,0.0
2939,6.368317222676436,0.0
2940,6.242164525645619,0.0
2941,6.125558480263316,0.0
2942,6.050917903168628,0.0
2943,6.016747675558112,0.0
2944,6.018280185952717,0.0
2945,6.048794892048797,0.0
2946,6.094150652618791,0.0
2947,6.138239035945684,0.0
2948,6.165978307792659,0.0
2949,6.17518558116569,0.0
2950,6.172481304470063,0.0
2951,6.1646276814659755,0.0
2952,6.1563941504800805,0.0
2953,6.149277518596678,0.0
2954,6.1446269381578515,0.0
2955,6.143515850045287,0.0
2956,6.144839114411392,0.0
2957,6.146903337390191,0.0
2958,6.14812167007896,0.0
2959,6.148257595957252,0.0
2960,6.1480019170273525,0.0
2961,6.148061643706208,0.0
2962,6.149001540875828,0.0
2963,6.1511480836874615,0.0
2964,6.15462478957152,0.0
2965,6.159250504314817,0.0
2966,6.164715182527753,0.0
2967,6.170680546315868,0.0
2968,6.176813028220742,0.0
2969,6.182839285055068,0.0
2970,6.188527588659917,0.0
2971,6.193646872250204,0.0
2972,6.197953792160912,0.0
2973,6.201186881310711,0.0
2974,6.203230809934758,0.0
2975,6.204206947747003,0.0
2976,6.204264478127611,0.0
2977,6.203554462473006,0.0
2978,6.202227668854316,0.0
2979,6.200431081989272,0.0
2980,6.198309056058386,0.0
2981,6.196005970325418,0.0
2982,6.193672049768532,0.0
2983,6.1914672237272415,0.0
2984,6.189546404574926,0.0
2985,6.188045714293862,0.0
2986,6.187060548313263,0.0
2987,6.186675416108339,0.0
2988,6.186984384716304,0.0
2989,6.188205871722425,0.0
2990,6.190645291393041,0.0
2991,6.19460602658856,0.0
2992,6.200100996187262,0.0
2993,6.206651470550822,0.0
2994,6.2135791065650325,0.0
2995,6.2204201342249625,0.0
2996,6.228750930955483,0.0
2997,6.240715884984519,0.0
2998,6.259800870770215,0.0
2999,6.307099145269046,0.0
3000,6.416098658469997,0.0
3001,6.620556726425944,0.0
3002,6.9550738496807565,0.0
3003,7.455682348197602,0.0
3004,8.15868469953168,0.0
3005,9.078500645323004,0.0
3006,10.131538648016772,0.0
3007,11.207042676471762,0.0
3008,12.19184381379159,0.0
3009,12.940835064103489,0.0
3010,13.286287257146702,0.0
3011,13.061394068136412,0.0
3012,12.210095229521713,0.0
3013,10.865358580738429,0.0
3014,9.178665100859561,0.0
3015,7.321163146426965,0.0
3016,5.551538981397245,0.0
3017,4.152903046562871,0.0
3018,3.3909807934807925,0.0
3019,3.299223260550625,0.0
3020,3.7455387562042675,0.0
3021,4.593787310184448,0.0
3022,5.668343251869548,0.0
3023,6.725756893864702,0.0
3024,7.515775164553918,0.0
3025,7.843003470031598,0.0
3026,7.759700511623665,0.0
3027,7.387718340652148,0.0
3028,6.849260232013612,0.0
3029,6.271213966994296,0.0
3030,5.783826670230192,0.0
3031,5.516458236454394,0.0
3032,5.519604620832153,0.0
3033,5.707443917354076,0.0
3034,5.9806950846356,0.0
3035,6.249763445479939,0.0
3036,6.468250895891856,0.0
3037,6.601977197740058,0.0
3038,6.620317591439473,0.0
3039,6.540990822404746,0.0
3040,6.416598261564083,0.0
3041,6.300276392836437,0.0
3042,6.2253023317497655,0.0
3043,6.19040807910881,0.0
3044,6.1908390712047225,0.0
3045,6.220170067383131,0.0
3046,6.264582826146773,0.0
3047,6.308154244078775,0.0
3048,6.335880386027102,0.0
3049,6.34537229502233,0.0
3050,6.343399774271141,0.0
3051,6.3369160940410065,0.0
3052,6.330968687296227,0.0
3053,6.327267992257279,0.0
3054,6.32709035163987,0.0
3055,6.331046812262309,0.0
3056,6.337533789061917,0.0
3057,6.344318425350189,0.0
3058,6.349263178381262,0.0
3059,6.351550938683026,0.0
3060,6.351329190656324,0.0
3061,6.3487658495404515,0.0
3062,6.343892838653465,0.0
3063,6.336504997888975,0.0
3064,6.326689944756683,0.0
3065,6.315140204010894,0.0
3066,6.302517523919051,0.0
3067,6.289453457388075,0.0
3068,6.276583769013577,0.0
3069,6.264603106054737,0.0
3070,6.254249396250937,0.0
3071,6.246261436462651,0.0
3072,6.241366286521846,0.0
3073,6.240267126574738,0.0
3074,6.243227810775029,0.0
3075,6.2496268925162735,0.0
3076,6.258742476802236,0.0
3077,6.269854676837658,0.0
3078,6.282243343700595,0.0
3079,6.29518462990743,0.0
3080,6.307951952625046,0.0
3081,6.319818726453001,0.0
3082,6.3300639536215515,0.0
3083,6.337978768555077,0.0
3084,6.343194985699045,0.0
3085,6.3460422821217515,0.0
3086,6.346898680098428,0.0
3087,6.3461305635703456,0.0
3088,6.34411285897566,0.0
3089,6.341342039589844,0.0
3090,6.338405026431764,0.0
3091,6.335887894018962,0.0
3092,6.334099127943774,0.0
3093,6.332847808687489,0.0
3094,6.331713664609594,0.0
3095,6.330333843519014,0.0
3096,6.330355044132301,0.0
3097,6.334031116442516,0.0
3098,6.3448146674772605,0.0
3099,6.383366316347846,0.0
3100,6.483230889050282,0.0
3101,6.6782728859124205,0.0
3102,7.003162467632589,0.0
3103,7.494025962392199,0.0
3104,8.187233826033657,0.0
3105,9.098813178630524,0.0
3106,10.147089525619586,0.0
3107,11.221357676263892,0.0
3108,12.2087534959844,0.0
3109,12.965203510671664,0.0
3110,13.323122585547345,0.0
3111,13.115446716371427,0.0
3112,12.280909788704797,0.0
3113,10.9506227570356,0.0
3114,9.276003594952734,0.0
3115,7.426520604386035,0.0
3116,5.658865550317423,0.0
3117,4.2558272129503845,0.0
3118,3.4846770112140595,0.0
3119,3.385743264845266,0.0
3120,3.8273313803314672,0.0
3121,4.673090774231173,0.0
3122,5.7489564186821385,0.0
3123,6.811848308698724,0.0
3124,7.6113855950263325,0.0
3125,7.948502343618871,0.0
3126,7.870983461729275,0.0
3127,7.5009591153491355,0.0
3128,6.960884660856849,0.0
3129,6.377791804347323,0.0
3130,5.882202513570638,0.0
3131,5.60397801026276,0.0
3132,5.597666962397848,0.0
3133,5.779120541223802,0.0
3134,6.049216695376178,0.0
3135,6.317580100921673,0.0
3136,6.536845901987958,0.0
3137,6.672698779766117,0.0
3138,6.6939972151061715,0.0
3139,6.616820473504948,0.0
3140,6.493483828142337,0.0
3141,6.377043568353366,0.0
3142,6.3015945588288185,0.0
3143,6.2660889200889365,0.0
3144,6.265676545894258,0.0
3145,6.294027639464522,0.0
3146,6.337456150029981,0.0
3147,6.380028332817333,0.0
3148,6.406629579985174,0.0
3149,6.414465581297427,0.0
3150,6.41025454752061,0.0
3151,6.400943702188615,0.0
3152,6.391660945531294,0.0
3153,6.384140763465474,0.0
3154,6.379762227953781,0.0
3155,6.379499887882535,0.0
3156,6.382149489111151,0.0
3157,6.385834938555967,0.0
3158,6.388764954638448,0.0
3159,6.390437664841439,0.0
3160,6.391352882135982,0.0
3161,6.3920355077411415,0.0
3162,6.392880626038743,0.0
3163,6.394039565619668,0.0
3164,6.395607935560609,0.0
3165,6.397586835745949,0.0
3166,6.39986173550209,0.0
3167,6.402285872668886,0.0
3168,6.404716230010507,0.0
3169,6.407067281468263,0.0
3170,6.409298438293472,0.0
3171,6.411370205604786,0.0
3172,6.413231888504316,0.0
3173,6.414811676754794,0.0
3174,6.416057021455229,0.0
3175,6.4169732487338385,0.0
3176,6.417581677205436,0.0
3177,6.417905768671723,0.0
3178,6.417968752027415,0.0
3179,6.417790245511803,0.0
3180,6.417387027771026,0.0
3181,6.416775848365714,0.0
3182,6.415978787824997,0.0
3183,6.415028091241767,0.0
3184,6.413974110343467,0.0
3185,6.412904874587359,0.0
3186,6.4118764162789565,0.0
3187,6.410932349596112,0.0
3188,6.41012388877624,0.0
3189,6.40962088943925,0.0
3190,6.409687086430596,0.0
3191,6.410586473773154,0.0
3192,6.412318257505175,0.0
3193,6.41437490777143,0.0
3194,6.416144478652756,0.0
3195,6.4172890883048845,0.0
3196,6.419497562559418,0.0
3197,6.425106427921713,0.0
3198,6.4375188438808655,0.0
3199,6.476932293733471,0.0
3200,6.57691508234687,0.0
3201,6.77141256746649,0.0
3202,7.095138468441793,0.0
3203,7.584286208231861,0.0
3204,8.275227372537508,0.0
3205,9.185307907322416,0.0
3206,10.234602595338353,0.0
3207,11.312222955614828,0.0
3208,12.305351839136563,0.0
3209,13.070717306876706,0.0
3210,13.440651762586091,0.0
3211,13.247642494939688,0.0
3212,12.425057465614966,0.0
3213,11.10178672976858,0.0
3214,9.429190496482457,0.0
3215,7.575696411790987,0.0
3216,5.796593472231071,0.0
3217,4.374999295901665,0.0
3218,3.5802478439818346,0.0
3219,3.4602478245111237,0.0
3220,3.884446461171529,0.0
3221,4.71692040802623,0.0
3222,5.785791609066446,0.0
3223,6.849048046749329,0.0
3224,7.6565083486155805,0.0
3225,8.005218121921404,0.0
3226,7.937799188649871,0.0
3227,7.576135448799985,0.0
3228,7.042425391843159,0.0
3229,6.463331962100519,0.0
3230,5.969138410429295,0.0
3231,5.689661909819821,0.0
3232,5.682934948223561,0.0
3233,5.866064104970459,0.0
3234,6.139740992673211,0.0
3235,6.412831563377438,0.0
3236,6.637003220790694,0.0
3237,6.77783308786252,0.0
3238,6.803721373783121,0.0
3239,6.7291280205508395,0.0
3240,6.606092991865139,0.0
3241,6.487613738941951,0.0
3242,6.408617941435658,0.0
3243,6.368330589185951,0.0
3244,6.361911485178798,0.0
3245,6.383513014600617,0.0
3246,6.42004179165373,0.0
3247,6.456009067719933,0.0
3248,6.476652265164197,0.0
3249,6.479224485436333,0.0
3250,6.470842574291048,0.0
3251,6.458902132375465,0.0
3252,6.449065323221093,0.0
3253,6.443547185350124,0.0
3254,6.443949481743877,0.0
3255,6.450799418766342,0.0
3256,6.462317610815717,0.0
3257,6.476008842215206,0.0
3258,6.489452862423927,0.0
3259,6.501486772295391,0.0
3260,6.511986174402335,0.0
3261,6.520856887647693,0.0
3262,6.527881066292309,0.0
3263,6.532593401376385,0.0
3264,6.534691830394614,0.0
3265,6.534493396754266,0.0
3266,6.532343673400022,0.0
3267,6.528553845971493,0.0
3268,6.523438394558112,0.0
3269,6.517367853157553,0.0
3270,6.510759337188873,0.0
3271,6.504031299491814,0.0
3272,6.497591525734105,0.0
3273,6.491826301430633,0.0
3274,6.487024283618168,0.0
3275,6.483151961415886,0.0
3276,6.48011392175886,0.0
3277,6.4778170341597,0.0
3278,6.476167962682938,0.0
3279,6.475069851500552,0.0
3280,6.4744229017742505,0.0
3281,6.474127259896739,0.0
3282,6.474088148623705,0.0
3283,6.474221084025944,0.0
3284,6.474463409126605,0.0
3285,6.474817131872037,0.0
3286,6.47526064482125,0.0
3287,6.475759117480798,0.0
3288,6.476284446014539,0.0
3289,6.476924169265467,0.0
3290,6.477863108708556,0.0
3291,6.479287384847415,0.0
3292,6.481131025325813,0.0
3293,6.482813663448958,0.0
3294,6.48369085925142,0.0
3295,6.4834875206873495,0.0
3296,6.483964182140503,0.0
3297,6.487570918687155,0.0
3298,6.497702557050883,0.0
3299,6.534121447218764,0.0
3300,6.630443270674881,0.0
3301,6.820725581660061,0.0
3302,7.139757315037494,0.0
3303,7.623829454650366,0.0
3304,8.309390309966327,0.0
3305,9.215149467691038,0.0
3306,10.263110193921595,0.0
3307,11.342319178136812,0.0
3308,12.34009990881993,0.0
3309,13.11409925231694,0.0
3310,13.496692102644808,0.0
3311,13.320072667067421,0.0
3312,12.512441754122339,0.0
3313,11.200449552784645,0.0
3314,9.53539276421104,0.0
3315,7.684494687234958,0.0
3316,5.901335951438429,0.0
3317,4.4691111634440706,0.0
3318,3.6588380517824217,0.0
3319,3.5257974945618056,0.0
3320,3.9404279020215163,0.0
3321,4.766971797298141,0.0
3322,5.835460838818797,0.0
3323,6.904752378831037,0.0
3324,7.724707588304115,0.0
3325,8.08862252252399,0.0
3326,8.033728174728067,0.0
3327,7.6815851412182505,0.0
3328,7.154078066409955,0.0
3329,6.5774407394275975,0.0
3330,6.0816561044674735,0.0
3331,5.796406838692371,0.0
3332,5.783085951035085,0.0
3333,5.960089286202299,0.0
3334,6.227963658136439,0.0
3335,6.495355655029575,0.0
3336,6.713566721226226,0.0
3337,6.848694236307216,0.0
3338,6.869338630502613,0.0
3339,6.788964023614473,0.0
3340,6.659945862924602,0.0
3341,6.535845974988635,0.0
3342,6.4530395607101045,0.0
3343,6.4116792743787485,0.0
3344,6.407228477118883,0.0
3345,6.433445436172674,0.0
3346,6.476709034327891,0.0
3347,6.520850709846364,0.0
3348,6.55034173891045,0.0
3349,6.561355393897578,0.0
3350,6.560276503694222,0.0
3351,6.5538229530406555,0.0
3352,6.547064234259679,0.0
3353,6.541573065112928,0.0
3354,6.538540317098033,0.0
3355,6.539049087701378,0.0
3356,6.542096094120975,0.0
3357,6.545916934826641,0.0
3358,6.5488129106083806,0.0
3359,6.550309674178252,0.0
3360,6.5510078291650755,0.0
3361,6.5515438299287485,0.0
3362,6.552436556520327,0.0
3363,6.553953850184088,0.0
3364,6.556280551916843,0.0
3365,6.559363532101494,0.0
3366,6.562987222073446,0.0
3367,6.56689955253569,0.0
3368,6.570851348072437,0.0
3369,6.574648008221189,0.0
3370,6.578143141237359,0.0
3371,6.581191956965672,0.0
3372,6.583639525427877,0.0
3373,6.585309125354976,0.0
3374,6.586060912244903,0.0
3375,6.58593316566758,0.0
3376,6.5850202308704,0.0
3377,6.583418881151257,0.0
3378,6.58122571027623,0.0
3379,6.578533885480415,0.0
3380,6.575433528655971,0.0
3381,6.572014681779578,0.0
3382,6.568372211277175,0.0
3383,6.564611419410698,0.0
3384,6.560845493987848,0.0
3385,6.557210769075768,0.0
3386,6.553813084760351,0.0
3387,6.550744230986404,0.0
3388,6.5481019163961545,0.0
3389,6.546096408854555,0.0
3390,6.545038625693748,0.0
3391,6.545241770696509,0.0
3392,6.546779512395334,0.0
3393,6.549203990111466,0.0
3394,6.5519467354557746,0.0
3395,6.5545403955483215,0.0
3396,6.558467383339595,0.0
3397,6.565942655108114,0.0
3398,6.580013917727138,0.0
3399,6.619657694115421,0.0
3400,6.7181810382614,0.0
3401,6.9094055091758015,0.0
3402,7.227847475725244,0.0
3403,7.7095459833671995,0.0
3404,8.39077948939919,0.0
3405,9.29171322971946,0.0
3406,10.336612380678927,0.0
3407,11.414737114840914,0.0
3408,12.413803919441914,0.0
3409,13.19265225409509,0.0
3410,13.583983164138612,0.0
3411,13.420007315036717,0.0
3412,12.624123241301188,0.0
3413,11.320876714212671,0.0
3414,9.661696172961557,0.0
3415,7.812544801751812,0.0
3416,6.0250410988203855,0.0
3417,4.582251634522456,0.0
3418,3.7565529525035215,0.0
3419,3.610427729942683,0.0
3420,4.015208755662114,0.0
3421,4.835093006758051,0.0
3422,5.901790184601921,0.0
3423,6.974877916250865,0.0
3424,7.804166098058258,0.0
3425,8.179679186272761,0.0
3426,8.133479206054785,0.0
3427,7.78716176909056,0.0
3428,7.262680680656644,0.0
3429,6.686220488245316,0.0
3430,6.18784222369032,0.0
3431,5.8974466337256555,0.0
3432,5.880098296949672,0.0
3433,6.055960111490702,0.0
3434,6.325621253656852,0.0
3435,6.597050791912851,0.0
3436,6.820528141216437,0.0
3437,6.962038452631731,0.0
3438,6.989780282467135,0.0
3439,6.9155881820570775,0.0
3440,6.79152328766696,0.0
3441,6.671076279188428,0.0
3442,6.591423633088038,0.0
3443,6.553041851966444,0.0
3444,6.551334042023872,0.0
3445,6.580185782146268,0.0
3446,6.626159065657277,0.0
3447,6.673112290132518,0.0
3448,6.705463558393203,0.0
3449,6.71901109577051,0.0
3450,6.72010821163677,0.0
3451,6.7155004934336135,0.0
3452,6.710369125713589,0.0
3453,6.706352913039879,0.0
3454,6.704638660229399,0.0
3455,6.70625923908875,0.0
3456,6.7101748891779724,0.0
3457,6.714538333023456,0.0
3458,6.717559243694685,0.0
3459,6.718637796554816,0.0
3460,6.718285108398518,0.0
3461,6.71705432312742,0.0
3462,6.715387023486073,0.0
3463,6.713470514054396,0.0
3464,6.711457976114087,0.0
3465,6.709492456590426,0.0
3466,6.7076173464159865,0.0
3467,6.705837319685546,0.0
3468,6.704159553364697,0.0
3469,6.70264428282777,0.0
3470,6.70140155831368,0.0
3471,6.700543317164104,0.0
3472,6.700171877118564,0.0
3473,6.7003674864512615,0.0
3474,6.7011888564297015,0.0
3475,6.702587642813672,0.0
3476,6.704482959328805,0.0
3477,6.706796437203754,0.0
3478,6.709449552727078,0.0
3479,6.712360451358748,0.0
3480,6.715444132225455,0.0
3481,6.718615489631293,0.0
3482,6.721793993742825,0.0
3483,6.724909682334863,0.0
3484,6.727900883373706,0.0
3485,6.730740712627996,0.0
3486,6.7333788619271875,0.0
3487,6.735750149887856,0.0
3488,6.737794567713695,0.0
3489,6.73956150611723,0.0
3490,6.741204327046623,0.0
3491,6.7428796272917895,0.0
3492,6.744516856787215,0.0
3493,6.74551742323932,0.0
3494,6.745222602866916,0.0
3495,6.743383780693619,0.0
3496,6.741791125467394,0.0
3497,6.743011495689951,0.0
3498,6.750342017258512,0.0
3499,6.782559223817602,0.0
3500,6.873240863706569,0.0
3501,7.056560005994245,0.0
3502,7.3673484614842915,0.0
3503,7.8419795220458015,0.0
3504,8.517008090019747,0.0
3505,9.41372182935942,0.0
3506,10.458215088672041,0.0
3507,11.5394790285168,0.0
3508,12.545113545782037,0.0
3509,13.334660339169371,0.0
3510,13.740668316037741,0.0
3511,13.594907393923057,0.0
3512,12.81558416111963,0.0
3513,11.52450861738759,0.0
3514,9.872847891934754,0.0
3515,8.025474078546184,0.0
3516,6.232267454213629,0.0
3517,4.776434598233726,0.0
3518,3.93186598520803,0.0
3519,3.7685398130453343,0.0
3520,4.159066509253007,0.0
3521,4.967862288507242,0.0
3522,6.0285550549747855,0.0
3523,7.101769864570396,0.0
3524,7.937488421910105,0.0
3525,8.322627596899247,0.0
3526,8.283839614039623,0.0
3527,7.94263611096489,0.0
3528,7.420950378492242,0.0
3529,6.844825277729729,0.0
3530,6.344305641209284,0.0
3531,6.049393197811431,0.0
3532,6.028656729339214,0.0
3533,6.204034234216288,0.0
3534,6.47607323395857,0.0
3535,6.751934318450447,0.0
3536,6.980638538328302,0.0
3537,7.127844114279291,0.0
3538,7.1611632229856514,0.0
3539,7.090588030387931,0.0
3540,6.967633156393522,0.0
3541,6.845502053682563,0.0
3542,6.761943453545552,0.0
3543,6.7175732802083035,0.0
3544,6.707580608905293,0.0
3545,6.726314231789034,0.0
3546,6.7610890230925875,0.0
3547,6.796357161940406,0.0
3548,6.817056167917288,0.0
3549,6.819174492211402,0.0
3550,6.809594039338261,0.0
3551,6.795653497770067,0.0
3552,6.783209873769075,0.0
3553,6.774536508576099,0.0
3554,6.771308000911312,0.0
3555,6.774379066752683,0.0
3556,6.782262990950094,0.0
3557,6.792616949243784,0.0
3558,6.803146754663845,0.0
3559,6.812714114398848,0.0
3560,6.821327117251615,0.0
3561,6.829042633139052,0.0
3562,6.83581189147172,0.0
3563,6.841328915416845,0.0
3564,6.845309307519936,0.0
3565,6.847907094231741,0.0
3566,6.849382849808128,0.0
3567,6.849957230692851,0.0
3568,6.849853023709713,0.0
3569,6.849344524053526,0.0
3570,6.848757423399735,0.0
3571,6.848419612428791,0.0
3572,6.848649874897707,0.0
3573,6.8497446740405925,0.0
3574,6.851953294438739,0.0
3575,6.855184739356219,0.0
3576,6.859194621731818,0.0
3577,6.86374035776403,0.0
3578,6.8685792321966,0.0
3579,6.873465296729972,0.0
3580,6.8781493573412105,0.0
3581,6.882382090219333,0.0
3582,6.885918502791115,0.0
3583,6.888524288831296,0.0
3584,6.890001067102584,0.0
3585,6.890419881381617,0.0
3586,6.889945763987948,0.0
3587,6.888728824196174,0.0
3588,6.886923656014606,0.0
3589,6.884791025484525,0.0
3590,6.882698938088998,0.0
3591,6.881019556911407,0.0
3592,6.87991008566042,0.0
3593,6.878993826412321,0.0
3594,6.877787799371102,0.0
3595,6.8758974946373,0.0
3596,6.874810858700365,0.0
3597,6.8768367497477945,0.0
3598,6.884920965586207,0.0
3599,6.917029807984955,0.0
3600,7.00639375549216,0.0
3601,7.186927977588391,0.0
3602,7.493170912444096,0.0
3603,7.961219368698873,0.0
3604,8.627430574475538,0.0
3605,9.514522809503767,0.0
3606,10.551189275908811,0.0
3607,11.62687907662483,0.0
3608,12.629774235926007,0.0
3609,13.42083445254245,0.0
3610,13.833186513388803,0.0
3611,13.698905893395878,0.0
3612,12.931833268334808,0.0
3613,11.651615023636818,0.0
3614,10.00974249543532,0.0
3615,8.169703722961872,0.0
3616,6.378822596657606,0.0
3617,4.919664314589658,0.0
3618,4.066745960859068,0.0
3619,3.8967765630408735,0.0
3620,4.28298501013259,0.0
3621,5.089225231368945,0.0
3622,6.150232819529668,0.0
3623,7.226961106874542,0.0
3624,8.068886899469375,0.0
3625,8.460124123572024,0.0
3626,8.42230930096612,0.0
3627,8.07737479932281,0.0
3628,7.547772040487081,0.0
3629,6.959938398159255,0.0
3630,6.444436539437846,0.0
3631,6.131883437147089,0.0
3632,6.094807296734235,0.0
3633,6.257560613013855,0.0
3634,6.5211848164422905,0.0
3635,6.792410292117154,0.0
3636,7.019178831369764,0.0
3637,7.1670167677769845,0.0
3638,7.203174082752275,0.0
3639,7.13599964841813,0.0
3640,7.016637931396444,0.0
3641,6.898199497221493,0.0
3642,6.819184515372638,0.0
3643,6.780574325628245,0.0
3644,6.777421598032132,0.0
3645,6.803869386330505,0.0
3646,6.847047754368893,0.0
3647,6.891061430392687,0.0
3648,6.920431453713826,0.0
3649,6.930394160693468,0.0
3650,6.927411678486454,0.0
3651,6.9184730701814185,0.0
3652,6.909166954807427,0.0
3653,6.901461535415651,0.0
3654,6.896745588266226,0.0
3655,6.896089797374938,0.0
3656,6.898456123053064,0.0
3657,6.901902866537815,0.0
3658,6.904529019112015,0.0
3659,6.905554191224245,0.0
3660,6.905379173138768,0.0
3661,6.9044609035286175,0.0
3662,6.903156493390583,0.0
3663,6.9015632459981475,0.0
3664,6.899754641308683,0.0
3665,6.897973237636796,0.0
3666,6.896469011102785,0.0
3667,6.8954499925095964,0.0
3668,6.895125985703274,0.0
3669,6.895756723466383,0.0
3670,6.8976548873354755,0.0
3671,6.901135694715472,0.0
3672,6.906505758982308,0.0
3673,6.9140491503763775,0.0
3674,6.9239939189879856,0.0
3675,6.936016210814334,0.0
3676,6.94946702073199,0.0
3677,6.963695710246478,0.0
3678,6.97805153200565,0.0
3679,6.991880605224335,0.0
3680,7.0045257058620525,0.0
3681,7.015329454768776,0.0
3682,7.023638564004774,0.0
3683,7.028810537050296,0.0
3684,7.030274267900181,0.0
3685,7.028212155404994,0.0
3686,7.0232351779277655,0.0
3687,7.015944466414898,0.0
3688,7.006945003357241,0.0
3689,6.996944656536315,0.0
3690,6.986761739323751,0.0
3691,6.9772196332158325,0.0
3692,6.968938715201251,0.0
3693,6.962000286543949,0.0
3694,6.956344629723124,0.0
3695,6.9515900535288475,0.0
3696,6.9489430616668715,0.0
3697,6.950471788708917,0.0
3698,6.958796774061788,0.0
3699,6.991091867417845,0.0
3700,7.080249130197135,0.0
3701,7.259943610505456,0.0
3702,7.564438839599996,0.0
3703,8.029571601109533,0.0
3704,8.691469659013936,0.0
3705,9.573942411982026,0.0
3706,10.608016804015286,0.0
3707,11.68329874920276,0.0
3708,12.688221888706925,0.0
3709,13.484848262278266,0.0
3710,13.906583325690551,0.0
3711,13.785520392977595,0.0
3712,13.030938431900555,0.0
3713,11.759858347138197,0.0
3714,10.123873646335923,0.0
3715,8.285534554620517,0.0
3716,6.490180940898582,0.0
3717,5.020342056578464,0.0
3718,4.151668096625254,0.0
3719,3.9682120746146596,0.0
3720,4.344555986660412,0.0
3721,5.144599907011476,0.0
3722,6.204762188963862,0.0
3723,7.286995242089197,0.0
3724,8.140777757812433,0.0
3725,8.547284775114159,0.0
3726,8.522353565473146,0.0
3727,8.187646726843688,0.0
3728,7.665481881021977,0.0
3729,7.082036859634309,0.0
3730,6.567735621650449,0.0
3731,6.253137097485979,0.0
3732,6.213987826200244,0.0
3733,6.376506646944701,0.0
3734,6.641636838080314,0.0
3735,6.915594766706054,0.0
3736,7.145324716895074,0.0
3737,7.296320198626322,0.0
3738,7.335598811703008,0.0
3739,7.269975184700967,0.0
3740,7.150306768727565,0.0
3741,7.0297142091343625,0.0
3742,6.9475347073428235,0.0
3743,6.90524963950892,0.0
3744,6.897910671241973,0.0
3745,6.9198076941747955,0.0
3746,6.958364327442997,0.0
3747,6.997815212403755,0.0
3748,7.022747174980213,0.0
3749,7.028121133516958,0.0
3750,7.020449229224824,0.0
3751,7.006846699733086,0.0
3752,6.993107880553528,0.0
3753,6.9813746880187475,0.0
3754,6.973157149125123,0.0
3755,6.969612697902529,0.0
3756,6.969769523664889,0.0
3757,6.9717017540911925,0.0
3758,6.973516553155999,0.0
3759,6.974405853798645,0.0
3760,6.97477683334501,0.0
3761,6.975100833768256,0.0
3762,6.975755059055205,0.0
3763,6.976854645907719,0.0
3764,6.978462789120587,0.0
3765,6.98053442746547,0.0
3766,6.982854884933188,0.0
3767,6.985162140414903,0.0
3768,6.987195600295885,0.0
3769,6.988742995163117,0.0
3770,6.98964652343034,0.0
3771,6.989751284090906,0.0
3772,6.988894264196066,0.0
3773,6.986889714821884,0.0
3774,6.9835697801702095,0.0
3775,6.979089712091364,0.0
3776,6.973857005441689,0.0
3777,6.968288374277728,0.0
3778,6.962800445725281,0.0
3779,6.957806814654501,0.0
3780,6.953717637264357,0.0
3781,6.950942888669067,0.0
3782,6.949896400398054,0.0
3783,6.9510028861699125,0.0
3784,6.954655618945611,0.0
3785,6.960733270281467,0.0
3786,6.96867905397509,0.0
3787,6.9779080695220355,0.0
3788,6.987838685844442,0.0
3789,6.997988819641922,0.0
3790,7.007989968799164,0.0
3791,7.017479611013952,0.0
3792,7.025903910030546,0.0
3793,7.032165496787499,0.0
3794,7.0351010656511095,0.0
3795,7.034268314775922,0.0
3796,7.031539564159124,0.0
3797,7.029711703811184,0.0
3798,7.032057924355435,0.0
3799,7.055930448724787,0.0
3800,7.134843613799929,0.0
3801,7.3032023355053886,0.0
3802,7.5959660073155035,0.0
3803,8.04968005704693,0.0
3804,8.701157126603967,0.0
3805,9.575367828921566,0.0
3806,10.605286401473036,0.0
3807,11.680243682344063,0.0
3808,12.68846252051739,0.0
3809,13.492657547468625,0.0
3810,13.926081778563598,0.0
3811,13.820421954693188,0.0
3812,13.080075040601756,0.0
3813,11.818837899838005,0.0
3814,10.187981459965897,0.0
3815,8.349144264868439,0.0
3816,6.545919469138126,0.0
3817,5.06107410650818,0.0
3818,4.171573276665307,0.0
3819,3.969086452589883,0.0
3820,4.329958675630943,0.0
3821,5.118416018656413,0.0
3822,6.172801723139417,0.0
3823,7.256409500078515,0.0
3824,8.118998348355019,0.0
3825,8.538960543272024,0.0
3826,8.525940287285295,0.0
3827,8.201007674162105,0.0
3828,7.686066987138159,0.0
3829,7.1067551765853,0.0
3830,6.5930733432140824,0.0
3831,6.275224509658177,0.0
3832,6.231799117214665,0.0
3833,6.390709618296977,0.0
3834,6.65253408023778,0.0
3835,6.923099395864132,0.0
3836,7.148766998390373,0.0
3837,7.2954372452683405,0.0
3838,7.330363466610155,0.0
3839,7.259274348261008,0.0
3840,7.133158306684454,0.0
3841,7.00558557954014,0.0
3842,6.917150322963461,0.0
3843,6.870305115840286,0.0
3844,6.860519311064946,0.0
3845,6.8822133757533415,0.0
3846,6.922737467004424,0.0
3847,6.966075968707049,0.0
3848,6.996505793210521,0.0
3849,7.008332044158057,0.0
3850,7.00772870116402,0.0
3851,7.00155537167119,0.0
3852,6.995428393059188,0.0
3853,6.991284641761768,0.0
3854,6.99038466547768,0.0
3855,6.9937627802416475,0.0
3856,7.000431655453429,0.0
3857,7.008402096308432,0.0
3858,7.015710511526973,0.0
3859,7.021441745034167,0.0
3860,7.025929124432701,0.0
3861,7.029578842811161,0.0
3862,7.03270850650193,0.0
3863,7.035371752228651,0.0
3864,7.0375754096289125,0.0
3865,7.0393589767981535,0.0
3866,7.040706621115941,0.0
3867,7.041556111802164,0.0
3868,7.041846308443973,0.0
3869,7.041562768891525,0.0
3870,7.040747000597506,0.0
3871,7.03944380596147,0.0
3872,7.037690355392172,0.0
3873,7.035500921584543,0.0
3874,7.032888223415466,0.0
3875,7.029924563173609,0.0
3876,7.026745433372863,0.0
3877,7.023491830568057,0.0
3878,7.020304679972786,0.0
3879,7.017321938321249,0.0
3880,7.014678014995134,0.0
3881,7.012507111321066,0.0
3882,7.010947056113294,0.0
3883,7.010146636206456,0.0
3884,7.01025086194489,0.0
3885,7.011268895311656,0.0
3886,7.0130431046433985,0.0
3887,7.015391875358236,0.0
3888,7.018136327661704,0.0
3889,7.021193749748229,0.0
3890,7.024598067543401,0.0
3891,7.0283901130367665,0.0
3892,7.0324307988059145,0.0
3893,7.036033796252662,0.0
3894,7.03841214327068,0.0
3895,7.039075098195551,0.0
3896,7.039511584709487,0.0
3897,7.042174784261463,0.0
3898,7.049926142822439,0.0
3899,7.079225981991959,0.0
3900,7.163129301214816,0.0
3901,7.335698938996972,0.0
3902,7.631519078159986,0.0
3903,8.08677052547627,0.0
3904,8.737939575275153,0.0
3905,9.610943605291155,0.0
3906,10.641242866310531,0.0
3907,11.718421239709524,0.0
3908,12.730987237042374,0.0
3909,13.542815004317163,0.0
3910,13.987532871043957,0.0
3911,13.89695066116048,0.0
3912,13.171229304257157,0.0
3913,11.921297130810764,0.0
3914,10.298576551349637,0.0
3915,8.463794301513836,0.0
3916,6.658289751495253,0.0
3917,5.164572652753694,0.0
3918,4.26034300805322,0.0
3919,4.044381452257582,0.0
3920,4.394444214568355,0.0
3921,5.174597555231353,0.0
3922,6.224581699320286,0.0
3923,7.308608218529933,0.0
3924,8.176278011760783,0.0
3925,8.603592870507217,0.0
3926,8.594696517260163,0.0
3927,8.2708435454097,0.0
3928,7.754349726680004,0.0
3929,7.171134479489634,0.0
3930,6.651596261720144,0.0
3931,6.3263917168248955,0.0
3932,6.277679388617482,0.0
3933,6.436000005673272,0.0
3934,6.702337881119803,0.0
3935,6.981973914151087,0.0
3936,7.219619123646718,0.0
3937,7.380491629738706,0.0
3938,7.431020516125906,0.0
3939,7.3747745222362076,0.0
3940,7.261767683839095,0.0
3941,7.144938526560304,0.0
3942,7.0650351028228275,0.0
3943,7.024431595906257,0.0
3944,7.017982642570929,0.0
3945,7.040126634357065,0.0
3946,7.078920798409207,0.0
3947,7.118915336429705,0.0
3948,7.144897360372677,0.0
3949,7.151332449432811,0.0
3950,7.144864059339256,0.0
3951,7.132910538402702,0.0
3952,7.121722473357668,0.0
3953,7.1138491233403265,0.0
3954,7.111094753974599,0.0
3955,7.114624883428926,0.0
3956,7.1231132526575625,0.0
3957,7.134153438190664,0.0
3958,7.145357335777177,0.0
3959,7.155348550701153,0.0
3960,7.164031494286129,0.0
3961,7.171392864436559,0.0
3962,7.177336169751476,0.0
3963,7.1814994194548625,0.0
3964,7.183482517755888,0.0
3965,7.183351689666041,0.0
3966,7.181646527911628,0.0
3967,7.178889529391584,0.0
3968,7.175603949301543,0.0
3969,7.172358098053982,0.0
3970,7.169777676046227,0.0
3971,7.168492104453926,0.0
3972,7.169123638949603,0.0
3973,7.172271508182356,0.0
3974,7.178512805383004,0.0
3975,7.187829839575145,0.0
3976,7.199483833156025,0.0
3977,7.212695122896675,0.0
3978,7.226684001353347,0.0
3979,7.240667934851033,0.0
3980,7.253860767591602,0.0
3981,7.265476107589909,0.0
3982,7.274730967923522,0.0
3983,7.280853379948488,0.0
3984,7.283092026187319,0.0
3985,7.281350497750707,0.0
3986,7.276320206737729,0.0
3987,7.268725184784922,0.0
3988,7.259291707563008,0.0
3989,7.248838805163176,0.0
3990,7.2383051144094495,0.0
3991,7.228637132401431,0.0
3992,7.220612503656377,0.0
3993,7.214458703556008,0.0
3994,7.210277462005862,0.0
3995,7.207852649565518,0.0
3996,7.208176570493609,0.0
3997,7.213206360508411,0.0
3998,7.225247089460123,0.0
3999,7.259717873035351,0.0
4000,7.349052524746975,0.0
4001,7.526819995900057,0.0
4002,7.827078413678855,0.0
4003,8.285490834034398,0.0
4004,8.938055347157619,0.0
4005,9.811384823722488,0.0
4006,10.843368057441522,0.0
4007,11.923777823773372,0.0
4008,12.941311340462335,0.0
4009,13.760913588007055,0.0
4010,14.216522553481354,0.0
4011,14.14000259354333,0.0
4012,13.427338558410044,0.0
4013,12.186347547028113,0.0
4014,10.56852992803097,0.0
4015,8.733882545781043,0.0
4016,6.921765927675945,0.0
4017,5.41473262810833,0.0
4018,4.49143969916127,0.0
4019,4.258059812523079,0.0
4020,4.594210675751059,0.0
4021,5.364111203769778,0.0
4022,6.409164611827458,0.0
4023,7.494875170126327,0.0
4024,8.37098379331069,0.0
4025,8.811099628932158,0.0
4026,8.813147343614292,0.0
4027,8.497877081827436,0.0
4028,7.987379605761526,0.0
4029,7.407219149032288,0.0
4030,6.887550417050811,0.0
4031,6.558834906034276,0.0
4032,6.506056403612443,0.0
4033,6.661860280765107,0.0
4034,6.927029707627794,0.0
4035,7.206428064171375,0.0
4036,7.443911532322702,0.0
4037,7.604851514470919,0.0
4038,7.6557170318170416,0.0
4039,7.59876930073401,0.0
4040,7.4838636074321405,0.0
4041,7.364147267988662,0.0
4042,7.281338816509956,0.0
4043,7.238606355148113,0.0
4044,7.231000767426825,0.0
4045,7.252997883886349,0.0
4046,7.292580169308859,0.0
4047,7.334044118806129,0.0
4048,7.3618711249316595,0.0
4049,7.369868374074287,0.0
4050,7.364320403605115,0.0
4051,7.352383003990852,0.0
4052,7.340117375362251,0.0
4053,7.329866912392879,0.0
4054,7.323184088018911,0.0
4055,7.321292655119644,0.0
4056,7.323256365025036,0.0
4057,7.327020435900026,0.0
4058,7.330541196771985,0.0
4059,7.332749660273215,0.0
4060,7.333888958859065,0.0
4061,7.334294688573479,0.0
4062,7.334224484506841,0.0
4063,7.333669340485203,0.0
4064,7.332565036397088,0.0
4065,7.330935784344472,0.0
4066,7.328860169294775,0.0
4067,7.326376274933121,0.0
4068,7.32352261286123,0.0
4069,7.320381093840458,0.0
4070,7.317092413509472,0.0
4071,7.313801447389042,0.0
4072,7.310646357192845,0.0
4073,7.307742182058597,0.0
4074,7.305198712012955,0.0
4075,7.303109873012764,0.0
4076,7.301550225551033,0.0
4077,7.300595638865834,0.0
4078,7.3003219592057595,0.0
4079,7.3008023109193365,0.0
4080,7.3021061087117225,0.0
4081,7.304302501378628,0.0
4082,7.307463825613951,0.0
4083,7.311673465419231,0.0
4084,7.317014796467327,0.0
4085,7.323413921165864,0.0
4086,7.330517292834724,0.0
4087,7.3379293915428265,0.0
4088,7.345256490933271,0.0
4089,7.352194180216877,0.0
4090,7.358560528299027,0.0
4091,7.364182459931388,0.0
4092,7.368728754701481,0.0
4093,7.371315907211304,0.0
4094,7.3709440914257405,0.0
4095,7.367085358678168,0.0
4096,7.361522969181349,0.0
4097,7.357139392938021,0.0
4098,7.357112046963075,0.0
4099,7.377244096798234,0.0
4100,7.450759676282298,0.0
4101,7.612155765545397,0.0
4102,7.896387409388702,0.0
4103,8.340020508973026,0.0
4104,8.979970989797412,0.0
4105,9.84412244505153,0.0
4106,10.872343515011188,0.0
4107,11.954042135492967,0.0
4108,12.977516546899334,0.0
4109,13.80820096531047,0.0
4110,14.279786651633035,0.0
4111,14.223628422385062,0.0
4112,13.53111167609114,0.0
4113,12.306204059175744,0.0
4114,10.69991033915486,0.0
4115,8.871193469293173,0.0
4116,7.0574379942742365,0.0
4117,5.5412953519854256,0.0
4118,4.602364783502243,0.0
4119,4.354238890287283,0.0
4120,4.678610142188532,0.0
4121,5.43992170019795,0.0
4122,6.4812605330084665,0.0
4123,7.569557571228797,0.0
4124,8.454772844058313,0.0
4125,8.908328915896117,0.0
4126,8.921753887434729,0.0
4127,8.61512908320809,0.0
4128,8.110212962655785,0.0
4129,7.532106449468684,0.0
4130,7.010608591752537,0.0
4131,6.675869203653263,0.0
4132,6.61547792881556,0.0
4133,6.764193380086938,0.0
4134,7.022484632543595,0.0
4135,7.2948192004645325,0.0
4136,7.524502578206835,0.0
4137,7.677413662134558,0.0
4138,7.720443999365839,0.0
4139,7.654921600939636,0.0
4140,7.530877944428886,0.0
4141,7.4020314188804175,0.0
4142,7.311406644753732,0.0
4143,7.263358752385325,0.0
4144,7.253502466196222,0.0
4145,7.2765572526013775,0.0
4146,7.320206883500306,0.0
4147,7.368211540951629,0.0
4148,7.404467464546147,0.0
4149,7.421841938526714,0.0
4150,7.425968672876891,0.0
4151,7.423456449368645,0.0
4152,7.419890079751896,0.0
4153,7.417125694933708,0.0
4154,7.416172374577399,0.0
4155,7.418006333382204,0.0
4156,7.421949628659611,0.0
4157,7.426201261701038,0.0
4158,7.428964139738882,0.0
4159,7.42937861906913,0.0
4160,7.427927389366715,0.0
4161,7.425196572471802,0.0
4162,7.421699373204367,0.0
4163,7.417681616427375,0.0
4164,7.41332789757548,0.0
4165,7.408818921175882,0.0
4166,7.4042524012265485,0.0
4167,7.3996718292903765,0.0
4168,7.3951207927913645,0.0
4169,7.390684613341336,0.0
4170,7.386508742735602,0.0
4171,7.3827433068358115,0.0
4172,7.3795321532729234,0.0
4173,7.376995946634454,0.0
4174,7.375249486857773,0.0
4175,7.374341471387194,0.0
4176,7.374194767806849,0.0
4177,7.374720411437332,0.0
4178,7.375829436037423,0.0
4179,7.377430258332511,0.0
4180,7.379427501032041,0.0
4181,7.381725489369149,0.0
4182,7.384231530838407,0.0
4183,7.386864022469127,0.0
4184,7.389544167213714,0.0
4185,7.392222452460395,0.0
4186,7.394880378973351,0.0
4187,7.397486221820168,0.0
4188,7.400009635883069,0.0
4189,7.40250613597048,0.0
4190,7.405156485011634,0.0
4191,7.408151352110162,0.0
4192,7.411533577512912,0.0
4193,7.414792444440415,0.0
4194,7.417287623892568,0.0
4195,7.418536502941595,0.0
4196,7.419847015770429,0.0
4197,7.423629027153683,0.0
4198,7.432541342598168,0.0
4199,7.461377956904343,0.0
4200,7.542745148536518,0.0
4201,7.710670531572076,0.0
4202,7.99960982320999,0.0
4203,8.445633054948214,0.0
4204,9.08519072060224,0.0
4205,9.946825954373319,0.0
4206,10.973159331345084,0.0
4207,12.05410961543977,0.0
4208,13.078416645026627,0.0
4209,13.91284833998218,0.0
4210,14.391721110155485,0.0
4211,14.346739622521,0.0
4212,13.665702109482504,0.0
4213,12.449412007407156,0.0
4214,10.849224431364565,0.0
4215,9.02349085893299,0.0
4216,7.207164956943741,0.0
4217,5.682474160687652,0.0
4218,4.72937307133693,0.0
4219,4.46831416908514,0.0
4220,4.782706001436717,0.0
4221,5.536711728926574,0.0
4222,6.574542631657849,0.0
4223,7.664114424631638,0.0
4224,8.555108677687707,0.0
4225,9.016811237444893,0.0
4226,9.034905252574164,0.0
4227,8.729453528994975,0.0
4228,8.22259422979965,0.0
4229,7.639676466172409,0.0
4230,7.110851023698,0.0
4231,6.76666182764946,0.0
4232,6.697898555597082,0.0
4233,6.842263989753064,0.0
4234,7.1006166872724945,0.0
4235,7.377162539660878,0.0
4236,7.613687474236138,0.0
4237,7.7755011508777425,0.0
4238,7.828869001217339,0.0
4239,7.773132258950266,0.0
4240,7.657402251971361,0.0
4241,7.5349012439276155,0.0
4242,7.448864639191277,0.0
4243,7.403800060422214,0.0
4244,7.394829103188209,0.0
4245,7.416535757970718,0.0
4246,7.457154903240919,0.0
4247,7.5008885274186,0.0
4248,7.532028576948419,0.0
4249,7.543482091539738,0.0
4250,7.541200338137734,0.0
4251,7.532221294765351,0.0
4252,7.522626825131589,0.0
4253,7.514765052869591,0.0
4254,7.510072654332647,0.0
4255,7.5097686019116585,0.0
4256,7.5130460378716295,0.0
4257,7.5178740263960515,0.0
4258,7.522218263608057,0.0
4259,7.5249445431910855,0.0
4260,7.526290013886533,0.0
4261,7.526607052402885,0.0
4262,7.526179962623745,0.0
4263,7.525025348299205,0.0
4264,7.523094264091563,0.0
4265,7.520419915004841,0.0
4266,7.517168510641161,0.0
4267,7.513482639743331,0.0
4268,7.509504649818568,0.0
4269,7.505416952771916,0.0
4270,7.501463382315355,0.0
4271,7.497892977300081,0.0
4272,7.494948916475305,0.0
4273,7.492851171492431,0.0
4274,7.491813668288608,0.0
4275,7.491923280877134,0.0
4276,7.492947853530671,0.0
4277,7.494608059152218,0.0
4278,7.496624590931145,0.0
4279,7.498715630167646,0.0
4280,7.500595483179008,0.0
4281,7.5019781250971995,0.0
4282,7.502580314209568,0.0
4283,7.50212990806607,0.0
4284,7.500357874949644,0.0
4285,7.4971629966548665,0.0
4286,7.492856156587355,0.0
4287,7.487798195373725,0.0
4288,7.482350983943848,0.0
4289,7.476958789576428,0.0
4290,7.472193783066235,0.0
4291,7.468639159865948,0.0
4292,7.466740180069827,0.0
4293,7.466388150211739,0.0
4294,7.4673349796510395,0.0
4295,7.4692761359625806,0.0
4296,7.473125620430946,0.0
4297,7.480857655235936,0.0
4298,7.494656015418888,0.0
4299,7.528348049751801,0.0
4300,7.613948545339475,0.0
4301,7.7850532661184815,0.0
4302,8.075657359606987,0.0
4303,8.52137118359707,0.0
4304,9.15821362563317,0.0
4305,10.015257377016408,0.0
4306,11.037845081299574,0.0
4307,12.116411279832358,0.0
4308,13.140106123201111,0.0
4309,13.977001650518632,0.0
4310,14.462039434627657,0.0
4311,14.427256738632652,0.0
4312,13.757012417823665,0.0
4313,12.548754319090342,0.0
4314,10.954170263615342,0.0
4315,9.131128798928929,0.0
4316,7.312234720359966,0.0
4317,5.77935303398711,0.0
4318,4.812798329737981,0.0
4319,4.539898397625011,0.0
4320,4.846010635729295,0.0
4321,5.595101534761811,0.0
4322,6.632530498179025,0.0
4323,7.727343704412117,0.0
4324,8.629025987600752,0.0
4325,9.104763002104518,0.0
4326,9.133949068632615,0.0
4327,8.836177064922063,0.0
4328,8.333579780511894,0.0
4329,7.751369250809645,0.0
4330,7.219658310054275,0.0
4331,6.86899668614403,0.0
4332,6.7928655904845705,0.0
4333,6.931648707438232,0.0
4334,7.186210515457183,0.0
4335,7.460474779836132,0.0
4336,7.6953110399691695,0.0
4337,7.856142162495675,0.0
4338,7.909317708219928,0.0
4339,7.852900787634633,0.0
4340,7.735745123978536,0.0
4341,7.611270321611267,0.0
4342,7.5235853769746015,0.0
4343,7.478075053098674,0.0
4344,7.470057903957566,0.0
4345,7.494230121960582,0.0
4346,7.538659434092863,0.0
4347,7.587133580821144,0.0
4348,7.623486469033785,0.0
4349,7.6398108188663105,0.0
4350,7.641509232347959,0.0
4351,7.635190841520695,0.0
4352,7.62657355501035,0.0
4353,7.617642491753543,0.0
4354,7.609405718362462,0.0
4355,7.602902624231926,0.0
4356,7.597879197495815,0.0
4357,7.59293615337209,0.0
4358,7.586663423422288,0.0
4359,7.578513659952318,0.0
4360,7.569338608478882,0.0
4361,7.56011790079973,0.0
4362,7.551767726503031,0.0
4363,7.54493668648624,0.0
4364,7.540202790013464,0.0
4365,7.537961353710499,0.0
4366,7.53795256714568,0.0
4367,7.539742450878413,0.0
4368,7.5428964387287545,0.0
4369,7.547018358402843,0.0
4370,7.551774693258046,0.0
4371,7.556837701514149,0.0
4372,7.561874180827794,0.0
4373,7.56652773516581,0.0
4374,7.570435831540112,0.0
4375,7.573331993150807,0.0
4376,7.575272293188262,0.0
4377,7.5763822958954465,0.0
4378,7.576787608288524,0.0
4379,7.576611430658362,0.0
4380,7.5759730110094345,0.0
4381,7.574991230043042,0.0
4382,7.5737875614292625,0.0
4383,7.572494569900615,0.0
4384,7.571247779894286,0.0
4385,7.570141876560586,0.0
4386,7.5691079749631145,0.0
4387,7.568026495246799,0.0
4388,7.566778505582659,0.0
4389,7.56532400640062,0.0
4390,7.563753435515376,0.0
4391,7.56216945335722,0.0
4392,7.560546232306239,0.0
4393,7.558304489376743,0.0
4394,7.554715959085551,0.0
4395,7.549245585492607,0.0
4396,7.543297168785734,0.0
4397,7.5395191075140815,0.0
4398,7.54073622119646,0.0
4399,7.560925436783356,0.0
4400,7.6326089079353725,0.0
4401,7.790060937211391,0.0
4402,8.06792779406625,0.0
4403,8.50246924718708,0.0
4404,9.130382451516436,0.0
4405,9.98187034244813,0.0
4406,11.004342584464577,0.0
4407,12.087849666510621,0.0
4408,13.121014843853622,0.0
4409,13.972276576779471,0.0
4410,14.476295693389462,0.0
4411,14.464515392858576,0.0
4412,13.817100485323483,0.0
4413,12.6270450659169,0.0
4414,11.045441696940513,0.0
4415,9.229089192510273,0.0
