timestamp,value-0,is_anomaly
0,0.41621971865035073,0
1,4.726729432812424,0
2,5.139207684706552,0
3,-2.9513104708673326,0
4,1.5858173095087842,0
5,-0.5407641381175757,0
6,0.3712261075765575,0
7,0.010241868699704941,0
8,0.06319209409392604,0
9,0.062252620819655366,0
10,0.021290768699821862,0
11,0.09980420218163921,0
12,0.024698622591833433,0
13,0.09464958609797502,0
14,-0.00564952756066836,0
15,0.09163436060350671,0
16,0.12327542016868136,0
17,1.088865274296967,0
18,6.481186544712513,0
19,1.6551474696498532,0
20,-1.8492627067676852,0
21,1.3187113813323683,0
22,-0.5587266069771106,0
23,0.470070741154638,0
24,0.02809885162717725,0
25,-0.014484369720011839,0
26,0.005648729020644186,0
27,0.05472231576146072,0
28,0.168140582270845,0
29,0.026487333079232185,0
30,0.03654883858228557,0
31,-0.01527400426787729,0
32,0.006118082372505371,0
33,-0.024038061833577387,0
34,2.5469168765093593,0
35,6.9403332731346055,0
36,-1.7723013362718214,0
37,0.1764826444937712,0
38,0.2670367430434925,0
39,-0.004624364185279534,0
40,0.1220993718483018,0
41,0.09421553913219133,0
42,0.08539644357504671,0
43,0.025587140192891468,0
44,0.04526372818358991,0
45,0.02971362030237836,0
46,0.03249720651748166,0
47,-0.00018657677889268032,0
48,0.11288043288229482,0
49,0.07748083290883685,0
50,0.3462415021932891,0
51,4.624817245239805,0
52,5.065128800091361,0
53,-3.011104490165404,0
54,1.6015923033198958,0
55,-0.6325584521729126,0
56,0.29624764910753504,0
57,-0.05858318973298426,0
58,-0.01889179293986812,0
59,0.09971615707618678,0
60,0.07604254715329509,0
61,0.06877890433881259,0
62,0.13080277755536177,0
63,0.06053645154794542,0
64,-0.06735760645058395,0
65,0.055986038317419884,0
66,0.1228161575298465,0
67,1.0247821467609932,0
68,6.445986697261331,0
69,1.5564124438836293,0
70,-1.9649863349775771,0
71,1.2735249528155352,0
72,-0.7085926138642406,0
73,0.38694338222154145,0
74,-0.1241788235120553,0
75,-0.05006881241088525,0
76,0.08564315857821792,0
77,-0.06867633423427444,0
78,0.11589520146873741,0
79,-0.009308312104299103,0
80,0.037176813089148025,0
81,0.04153849702291866,0
82,-0.06297828160368503,0
83,0.12564857514160152,0
84,2.4538676304196465,0
85,6.8613442341309625,0
86,-1.85214289167767,0
87,0.11160345105928172,0
88,0.09407664891454527,0
89,-0.12746323738898035,0
90,0.11219046595442295,0
91,0.03590623130977795,0
92,-0.02246435253268905,0
93,-0.019164586326024392,0
94,-0.009755142857341055,0
95,-0.007692447237926822,0
96,0.012895194827266719,0
97,-0.0009979781215421688,0
98,0.10055161643558541,0
99,0.08563771885248428,0
100,0.3027829219268004,0
101,4.670471827549764,0
102,4.943249119192071,0
103,-2.9247520587359346,0
104,1.6081964405683007,0
105,-0.6696781559146836,0
106,0.3343801806334806,0
107,-0.10875331571432253,0
108,0.05173420560629608,0
109,0.035028015751342886,0
110,-0.0071713969818925985,0
111,0.025060488471148983,0
112,0.007218940315135307,0
113,0.025060562652208018,0
114,-0.009010780918595973,0
115,0.08415895299335896,0
116,-0.057453998575337416,0
117,1.0081995193058806,0
118,6.498911333659315,0
119,1.4793718995981304,0
120,-1.8812783877145836,0
121,1.3596247305079532,0
122,-0.5890819811825585,0
123,0.2715932495063416,0
124,-0.08277885493507549,0
125,0.10835682387163867,0
126,0.05090631201844058,0
127,0.06235836603954571,0
128,0.06534791650098191,0
129,0.011480136340030603,0
130,0.17541561961476157,0
131,0.10129428140358727,0
132,0.17812425213968627,0
133,0.05190223973031936,0
134,2.615997655653151,0
135,6.894923424586023,0
136,-1.7437178771798785,0
137,0.29675543781956315,0
138,0.2292359402177088,0
139,-0.12060389814928134,0
140,-0.015976615962199334,0
141,0.004801029457362174,0
142,-0.03894648277980132,0
143,0.016913298678199264,0
144,0.012805628726174589,0
145,0.08834853933903694,0
146,0.02681023540293041,0
147,0.02334807151094308,0
148,0.06967354490837886,0
149,0.119600683490603,0
150,0.2940591671661478,0
151,4.686927062032334,0
152,4.957908577574024,0
153,-3.025889906931263,0
154,1.5844769497876492,0
155,-0.6816073389870775,0
156,0.2703400756625021,0
157,0.07045889494632507,0
158,0.15330965596590077,0
159,-0.03838083883722155,0
160,-0.003894615039803581,0
161,0.040489861778458765,0
162,0.15636033539615854,0
163,0.04583524394525021,0
164,0.027040302562143605,0
165,0.08765591140692515,0
166,0.09033100998283292,0
167,1.035213716789951,0
168,6.502181626295629,0
169,1.5531027634420436,0
170,-1.8161361657052852,0
171,1.2557888139333382,0
172,-0.5699355359498205,0
173,0.31675674126962045,0
174,-0.10916041486272324,0
175,0.03215641256790501,0
176,0.12875623912023415,0
177,0.09411149523711218,0
178,0.06084552972301032,0
179,0.059162820675785564,0
180,0.058075590954603934,0
181,0.029899252301073966,0
182,0.04165975847955292,0
183,0.11384747352589486,0
184,2.577071085981339,0
185,6.947653147398455,0
186,-1.7455330542581158,0
187,0.17890278297294696,0
188,0.1794478316162847,0
189,-0.003657987001711993,0
190,0.025200175476943962,0
191,0.15442480572687345,0
192,0.017672233546903362,0
193,0.0327074682624034,0
194,-0.0004748658884435597,0
195,0.02901289490789189,0
196,0.08588425828704392,0
197,0.05639618981265749,0
198,0.11698845443557437,0
199,0.0291003588200639,0
200,0.2940924453891995,0
201,4.702828670159642,0
202,4.984647793741222,0
203,-2.931891600801698,0
204,1.517193549213474,0
205,-0.7851590279216468,0
206,0.25361046080589633,0
207,-0.05743416662949308,0
208,-0.004479405341183386,0
209,-0.0613839816737239,0
210,0.07562190908042306,0
211,0.026704862337503917,0
212,0.11070488473896674,0
213,-0.009777951096555288,0
214,0.035161832381209776,0
215,-0.008626071583866933,0
216,0.0026214670088225978,0
217,0.9902951143989812,0
218,6.4448519978558485,0
219,1.5372190515978879,0
220,-1.9551254184141122,0
221,1.25456648260458,0
222,-0.6535219371113108,0
223,0.34860009534097486,0
224,-0.055562281169349165,0
225,0.0026672601160628306,0
226,-0.05281444362567228,0
227,0.09475705198325893,0
228,0.07692955194904817,0
229,0.045542113622805774,0
230,0.10388629071240862,0
231,0.03580722882034697,0
232,-0.04667302600829307,0
233,0.19022464058101624,0
234,2.5733788078762094,0
235,6.849174227967834,0
236,-1.7593144975786772,0
237,0.2786175846644985,0
238,0.21057294092802648,0
239,-0.17140776767953148,0
240,0.06285354799500256,0
241,0.036204822264411726,0
242,0.02387754110852253,0
243,0.026707364845423763,0
244,0.001999426257541067,0
245,-0.0056539501499999305,0
246,0.045678322145382,0
247,-0.01982874047665672,0
248,0.04606279807228297,0
249,-0.07229148067320369,0
250,0.4074403338609918,0
251,4.602373133231178,0
252,4.842993062660152,0
253,-2.969427406988442,0
254,1.5474261472718867,0
255,-0.7229939505344816,0
256,0.23472163627470077,0
257,-0.13696658242049448,0
258,0.06708340677167987,0
259,0.027806911421678238,0
260,-0.05188069355611996,0
261,-0.06493810901498678,0
262,0.1507995539137711,0
263,-0.02510884076618038,0
264,-0.03543187496018459,0
265,-0.06049886014371505,0
266,0.03599689029774676,0
267,1.1038563591740513,0
268,6.534485157700182,0
269,1.464242942921563,0
270,-1.9136139667274876,0
271,1.281856209987037,0
272,-0.6502856094624447,0
273,0.22892255040356901,0
274,-0.140610856562785,0
275,-0.06190069599380071,0
276,-0.03565121555682366,0
277,0.04528055088617683,0
278,-0.023140959129254065,0
279,-0.08165955555102937,0
280,-0.01582562827521073,0
281,-0.0340815414147293,0
282,-0.03351330161865543,0
283,-0.0046435546220042374,0
284,2.535986694875624,0
285,6.834762040551682,0
286,-1.749664446255841,0
287,0.3253484750086144,0
288,0.20243820821009034,0
289,-0.10365762617393309,0
290,-0.005622075461860124,0
291,-0.04723205602161932,0
292,0.024844745328589123,0
293,0.07778164030448143,0
294,0.02530481996997072,0
295,0.10509951398377036,0
296,0.004306253398032478,0
297,-0.0344721644926118,0
298,-0.04003070423951245,0
299,-0.0552661691427619,0
300,0.2663533963149148,0
301,4.6362879349170685,0
302,4.944732311322442,0
303,-2.9979827399178056,0
304,1.568090110858048,0
305,-0.8130940638096353,0
306,0.1929562884916923,0
307,-0.1438624403326988,0
308,0.02015287799436392,0
309,-0.033415896988859835,0
310,-0.017330424502121043,0
311,-0.0462626064904672,0
312,-0.0828836742182561,0
313,-0.10891411664862802,0
314,-0.11135072456270831,0
315,-0.053047219526161496,0
316,-0.09080340974328721,0
317,0.9696926264291712,0
318,6.484609120232822,0
319,1.3919192437427592,0
320,-1.8024934309050642,0
321,1.0786957653373337,0
322,-0.6663489501754984,0
323,0.23488403311527903,0
324,-0.08917440832132685,0
325,0.004134671572672392,0
326,-0.046069158634716244,0
327,0.01007682313379898,0
328,0.0448192069653416,0
329,0.028104508855315832,0
330,-0.015513515859163664,0
331,-0.005129063872695152,0
332,0.008625054705219643,0
333,0.023679726593437513,0
334,2.5391642943763633,0
335,6.8292898934968305,0
336,-1.8798632334012002,0
337,0.3180626410074107,0
338,0.13516716499013615,0
339,-0.021896214646967158,0
340,0.013055876790358424,0
341,-0.02657296949791865,0
342,-0.057293022147813635,0
343,0.048329262892902076,0
344,-0.006838430006811299,0
345,-0.05826814320113005,0
346,0.01404729779071329,0
347,-0.010390388863038337,0
348,0.03884581282277386,0
349,-0.05291320970467501,0
350,0.28361003901509985,0
351,4.728551617186661,0
352,4.821645240249804,0
353,-2.9354087241209816,0
354,1.5914930602854231,0
355,-0.766840025993727,0
356,0.33784431152279637,0
357,-0.10565623311121224,0
358,0.046847944936539335,0
359,0.0757440418858723,0
360,-0.029107782248948624,0
361,0.00868650872156398,0
362,0.06438341690878083,0
363,0.018086401137963976,0
364,0.019648551345029106,0
365,-0.018901747241837207,0
366,0.0387236206277754,0
367,1.0696254557996803,0
368,6.478536319487164,0
369,1.4167966587736818,0
370,-1.8732754335884605,0
371,1.1873048535003297,0
372,-0.5485086047457371,0
373,0.264813660616531,0
374,-0.0837966729049227,0
375,0.025171987919330674,0
376,-0.03746161986130182,0
377,0.05190844916767805,0
378,0.08239993796336731,0
379,-0.02704564727272573,0
380,0.07737904123781648,0
381,-0.04334434285676611,0
382,-0.028797829592655245,0
383,0.048239743074936337,0
384,2.6866589570957484,0
385,6.80461682774646,0
386,-1.846264552018437,0
387,0.29550085069721366,0
388,0.13489807573565468,0
389,-0.09169362528874228,0
390,0.03006371866927976,0
391,0.06351517059734248,0
392,0.04041475676676287,0
393,-0.008433474405732062,0
394,0.06696853394957197,0
395,-0.03000423668147597,0
396,-0.053145619624290284,0
397,0.0722675215299487,0
398,0.02218017904999095,0
399,0.02863234783668637,0
400,0.331041511787139,0
401,4.720492476715501,0
402,4.958389555064287,0
403,-3.0076012130806693,0
404,1.5786351172508377,0
405,-0.8013775066026957,0
406,0.28366978420650824,0
407,-0.11713281788444205,0
408,0.07965121718164103,0
409,0.06600521068807351,0
410,0.06328575068296785,0
411,0.05437713318454434,0
412,0.03373002843434377,0
413,0.03916571657797499,0
414,0.07605988742109673,0
415,0.012430193382567192,0
416,-0.025982965509688073,0
417,1.0154842644673143,0
418,6.500879047417889,0
419,1.4403023889455697,0
420,-1.8624873035714349,0
421,1.2019557311497535,0
422,-0.5531984321495784,0
423,0.23091847853773068,0
424,-0.1559159501768277,0
425,-0.008748591978575491,0
426,0.021786222696906474,0
427,0.14677991688406763,0
428,0.05319850593237825,0
429,-0.11627107835764884,0
430,0.06764493345220572,0
431,0.12045002992237575,0
432,0.03690689305730488,0
433,0.09880211062160979,0
434,2.5982757426521093,0
435,6.880487421256652,0
436,-1.9217428623391946,0
437,0.2721512436284183,0
438,0.11547110807332066,0
439,0.030742754578483245,0
440,-0.009999081618360176,0
441,-0.012153272060316758,0
442,0.09121655188936505,0
443,0.13683031246095398,0
444,0.007581868276474224,0
445,0.06901756273820907,0
446,0.0509094963302799,0
447,0.02333595774900717,0
448,-0.017268889198580613,0
449,0.04545268713488087,0
450,0.31008743648740555,0
451,4.803849438221267,0
452,4.921319712848251,0
453,-2.938270347542676,0
454,1.5279228063571544,0
455,-0.6919734540230592,0
456,0.40829201226087813,0
457,-0.09869698761360393,0
458,0.09518653341389628,0
459,-0.0038254115133966662,0
460,0.042747128855209565,0
461,0.010589300915693739,0
462,0.08191475331681553,0
463,0.011265136128561924,0
464,-0.025406442875931134,0
465,0.07407025638567322,0
466,0.024648391722103834,0
467,1.1221709712625396,0
468,6.529452109618919,0
469,1.3503667583361816,0
470,-1.7751738934273746,0
471,1.117484287329367,0
472,-0.5982774169308607,0
473,0.2842105087089399,0
474,-0.023519423786864793,0
475,0.09240758793617329,0
476,0.14180108619065643,0
477,0.016333506487174587,0
478,0.06670113327744664,0
479,0.10651380794681756,0
480,0.02250426095832653,0
481,-0.0098952080443377,0
482,0.0017205517576707949,0
483,0.043215413515525124,0
484,2.6370801659930923,0
485,6.834351896935249,0
486,-1.9200956312216337,0
487,0.29678663808857053,0
488,0.06932555348839356,0
489,-0.11675201256569755,0
490,-0.006249569805765815,0
491,0.03076771904211664,0
492,0.04032762927951516,0
493,0.005662925012210723,0
494,0.007466679133211606,0
495,0.0033188186674421773,0
496,0.03639601368354052,0
497,0.12666626679252677,0
498,0.05701775780999259,0
499,-0.03181986951891268,0
500,0.302425527382881,0
501,4.776413266845218,0
502,4.850159493768506,0
503,-2.980253033345955,0
504,1.5981885450660949,0
505,-0.6587763853858883,0
506,0.26284920905053677,0
507,-0.08360254927951094,0
508,0.05745178201235693,0
509,-0.08379459462519101,0
510,0.0010109245241441073,0
511,0.03993878744493441,0
512,0.022566984924569166,0
513,-0.06621936511686874,0
514,0.0945752393102718,0
515,-0.016521453895194743,0
516,0.02377282918229691,0
517,1.0112131181543869,0
518,6.513321751831162,0
519,1.2306956918843797,0
520,-1.7994880605956434,0
521,1.2054944148834905,0
522,-0.6270359712781258,0
523,0.22928188484249534,0
524,-0.10035339940934176,0
525,0.10105336990997638,0
526,0.1156468167173378,0
527,-0.06907323490917286,0
528,-0.028597240785276288,0
529,-0.06731425630650731,0
530,0.08076544021755207,0
531,-0.04264951752391368,0
532,0.03799562199527458,0
533,0.04729601824393368,0
534,2.655728207938027,0
535,6.849630418575447,0
536,-1.9753492391492125,0
537,0.380409610101402,0
538,0.10164102973794922,0
539,0.023274150326561105,0
540,0.06069278910139259,0
541,-0.04037409901559065,0
542,0.023052422149329618,0
543,-0.060675254749199145,0
544,0.042172718992369865,0
545,0.031250466812526835,0
546,-0.026276443360298062,0
547,0.05237471015679846,0
548,-0.06484440909735288,0
549,0.07720784655872834,0
550,0.25651227169538465,0
551,4.789247142968954,0
552,4.73757192840395,0
553,-3.08112713227445,0
554,1.5607492618665328,0
555,-0.7606337725839388,0
556,0.2897579799023688,0
557,-0.10782915318740884,0
558,0.09495394285133367,0
559,0.004598215183536522,0
560,0.06554791751330052,0
561,0.01727204326700947,0
562,0.054238677998566645,0
563,0.0038296418359958506,0
564,0.16379370211354508,0
565,-0.0065482757044669215,0
566,0.1165968464089138,0
567,1.1051636566910576,0
568,6.703475394295317,0
569,1.4178999620188195,0
570,-1.7102221657674714,0
571,1.2084302755577552,0
572,-0.5380264663888031,0
573,0.2730280725544767,0
574,-0.07577821320760109,0
575,0.12311785411447033,0
576,-0.018040564867392327,0
577,0.019207450147653432,0
578,-0.12399150295008311,0
579,-0.05334115837229067,0
580,0.11146599403239979,0
581,0.028187676249649376,0
582,-0.07089378008092806,0
583,0.07086688939593164,0
584,2.6275429929521956,0
585,6.844570540462334,0
586,-1.880448823382224,0
587,0.3245490223825886,0
588,0.11516446630896954,0
589,-0.0016629453111277545,0
590,0.00926351926820762,0
591,0.07418349734014693,0
592,0.015694361913529832,0
593,0.007262776145823026,0
594,0.02418272952196414,0
595,0.11782926974073792,0
596,0.18226970946163423,0
597,0.15632028085827318,0
598,0.11211394064689864,0
599,0.05434273228046675,0
600,0.4477512434183548,0
601,4.8146146076802365,0
602,4.847551388451558,0
603,-2.879942920250661,0
604,1.6908606553308339,0
605,-0.6814047360522033,0
606,0.40970779919452016,0
607,-0.06037330349554482,0
608,0.11778861877991774,0
609,0.06983035771556544,0
610,-0.0010129250165625686,0
611,0.09670602480387097,0
612,0.01865610779663813,0
613,-0.0008623081789674442,0
614,0.024086017558953243,0
615,0.03247311539660179,0
616,0.06493022554062705,0
617,1.1221802398176675,0
618,6.5196390838824865,0
619,1.2749661429497128,0
620,-1.7695359223962777,0
621,1.2368562980905677,0
622,-0.4737498747454976,0
623,0.3343317086477777,0
624,-0.07954501511123259,0
625,0.07105951396093285,0
626,-0.014395731134502647,0
627,-0.010522484735870655,0
628,0.04294722038235134,0
629,0.040104823950665426,0
630,0.06471752775870815,0
631,0.04686876187921329,0
632,0.030939363612112216,0
633,0.18412396125130231,0
634,2.73575508090219,0
635,6.883814331322736,0
636,-1.8802932677992321,0
637,0.46958635195786097,0
638,0.18598306832403633,0
639,-0.00956425499639315,0
640,0.13121800710051584,0
641,0.0625450652590697,0
642,0.12001531126244841,0
643,0.06237515652803626,0
644,0.11818256462536442,0
645,0.08091058378177444,0
646,0.03814553762317223,0
647,0.023755037784256514,0
648,0.048412119560111655,0
649,-0.006873113617118766,0
650,0.31100760610251665,0
651,4.810059374350617,0
652,4.811182786174815,0
653,-3.033861049622428,0
654,1.6841276965973007,0
655,-0.6686306458768125,0
656,0.33530742903662697,0
657,-0.09048668401571672,0
658,0.03524666095402514,0
659,0.015618935814892883,0
660,-0.006356834423827069,0
661,0.0981140983877678,0
662,-0.015841023747518473,0
663,-0.07362137208006936,0
664,0.091777750699541,0
665,0.055276710528724196,0
666,0.04992150169574486,0
667,1.0170461027052387,0
668,6.572042488949083,0
669,1.2733284481615155,0
670,-1.7769422261642447,0
671,1.1735972935178907,0
672,-0.5529658750113067,0
673,0.25364046815131136,0
674,-0.01610398088327273,0
675,0.09437962683027787,0
676,0.010885024775452808,0
677,0.09334729001952626,0
678,0.11323163948444141,0
679,-0.03262055485901781,0
680,-0.027505988824284604,0
681,-0.02446428447306879,0
682,-0.0023738452925233,0
683,0.08356142910312693,0
684,2.6943057353261395,0
685,6.866782234600568,0
686,-1.979081568327614,0
687,0.4541081850653844,0
688,0.034263706751586284,0
689,0.032485658925356986,0
690,-0.017483739949966298,0
691,0.06643370723237865,0
692,0.09015024840312304,0
693,0.014668800356524405,0
694,-0.02178956291990009,0
695,0.09851114085910825,0
696,0.08686042311140608,0
697,-0.05947655663631096,0
698,0.04259351984312671,0
699,0.05486149699701029,0
700,0.35664212853985927,0
701,4.886774120424796,0
702,4.771507760781039,0
703,-2.949392010387732,0
704,1.7138565989007117,0
705,-0.7173117501762087,0
706,0.2834332133029901,0
707,-0.09200524851237935,0
708,0.09195112011782124,0
709,-0.05395007599911858,0
710,0.10176898993895472,0
711,0.10866635951887835,0
712,0.05438890274973963,0
713,0.007022838786340305,0
714,-0.09558487103619608,0
715,0.048131302531864324,0
716,0.04690296581231239,0
717,1.1441752301133592,0
718,6.54529290963979,0
719,1.2572038463237447,0
720,-1.7864243463714045,0
721,1.1897052029570214,0
722,-0.684945570245308,0
723,0.2695722779959199,0
724,-0.0639794556571062,0
725,0.05089155209262801,0
726,-0.040231568363092655,0
727,-0.008479571167089256,0
728,-0.031395421992986505,0
729,0.03270451819209585,0
730,-0.023757592898407637,0
731,0.030799718044954166,0
732,0.02505548021623573,0
733,0.07262749512091357,0
734,2.6228874531924555,0
735,6.825712451886275,0
736,-1.9071145583956792,0
737,0.3637411029215866,0
738,-0.005312954796286927,0
739,-0.0946254924089818,0
740,0.01372051040445198,0
741,0.0026807574295058534,0
742,-0.04608088911844732,0
743,-0.04995184107243411,0
744,0.07008531985707134,0
745,0.07695750134551893,0
746,0.11921459359402975,0
747,0.03426392484822219,0
748,0.03149143088611493,0
749,0.050733346825243025,0
750,0.3534256217708298,0
751,4.837439528690057,0
752,4.766594723090719,0
753,-2.9463346504109653,0
754,1.674231144356526,0
755,-0.7479179589547188,0
756,0.3406511894217825,0
757,-0.028618727407668798,0
758,-0.00867841896640733,0
759,-0.02972716915018822,0
760,0.003918044776753621,0
761,-0.0187090102848625,0
762,0.014645810987584372,0
763,0.10610988627885774,0
764,0.025443725166904744,0
765,0.08070501345865803,0
766,-0.04834894426640734,0
767,1.1602147346353682,0
768,6.575921263014198,0
769,1.2264427525376556,0
770,-1.7659309419904434,0
771,1.122809369607413,0
772,-0.5852251571509357,0
773,0.31575935588646065,0
774,-0.12589469739791664,0
775,0.043479248536556644,0
776,0.07089487527968472,0
777,-0.0037882560340275527,0
778,-0.018075160321682247,0
779,0.022073864082409064,0
780,-0.013487812474788882,0
781,-0.07670432726277208,0
782,-0.0011671052287727229,0
783,0.012377232584429142,0
784,2.655452201457845,0
785,6.8246606684755315,0
786,-2.0462974980866484,0
787,0.4781356436420462,0
788,0.05656735171647198,0
789,-0.0628273717541537,0
790,0.019223881948898312,0
791,-0.010921265901555236,0
792,-0.01982297066284814,0
793,-0.09767748679691911,0
794,0.0018034412149681087,0
795,-0.0511915051458018,0
796,0.017934727693269377,0
797,0.08232773702559328,0
798,0.023118450521578744,0
799,-0.022910439610907843,0
800,0.28039790726704594,0
801,4.744924802576804,0
802,4.676459346447834,0
803,-3.0488465548076893,0
804,1.5264374255866087,0
805,-0.7849522354971747,0
806,0.36754291480817813,0
807,-0.07756394541035422,0
808,-0.032810349110240625,0
809,0.013886630349319706,0
810,-0.04344683667855369,0
811,-0.012201326329476982,0
812,0.05744264376353556,0
813,-0.06092394005438727,0
814,0.004407355811230357,0
815,-0.04568290428863863,0
816,0.043780047928326606,0
817,1.0207485037003972,0
818,6.564717461407122,0
819,1.1440744022109304,0
820,-1.7828524730808242,0
821,1.248092247202749,0
822,-0.6779298765477716,0
823,0.36132967098885105,0
824,-0.1138894934387395,0
825,0.09775628215055496,0
826,-0.01462926032103309,0
827,-0.01880841415276225,0
828,-0.03161075208713743,0
829,0.059571121574055336,0
830,0.024702491977913348,0
831,0.13417440878364056,0
832,0.018572218376306543,0
833,0.017112871771145323,0
834,2.6298415577858276,0
835,6.7540032695898455,0
836,-2.017494514923871,0
837,0.30130159317289357,0
838,0.10767709137163528,0
839,-0.06392811543612774,0
840,-0.028681821594622202,0
841,-0.05530577089247238,0
842,-0.06430503110050383,0
843,0.06507537802483718,0
844,-0.008778639016749475,0
845,0.036680030188474086,0
846,-0.0378900763760471,0
847,0.03305076699254786,0
848,-0.04959053711902921,0
849,-0.12266912811224429,0
850,0.3043343432514055,0
851,4.745080577115962,0
852,4.719418423451736,0
853,-2.9688049627372215,0
854,1.602015190897914,0
855,-0.7927316407484047,0
856,0.2665992712743122,0
857,-0.14480830260690383,0
858,0.013413494987703604,0
859,-0.10522761606131685,0
860,-0.1823680178401318,0
861,-0.0212028052403992,0
862,-0.09350884396587703,0
863,0.03372871182870247,0
864,0.01977464740330613,0
865,-0.0062357755015762,0
866,-0.04875268257609228,0
867,1.1579290034378862,0
868,6.564754054464509,0
869,1.1221483131641277,0
870,-1.6884906736365348,0
871,1.2159816414562765,0
872,-0.5528189371263961,0
873,0.2218599179561915,0
874,-0.022688499317026732,0
875,0.06457248042691555,0
876,0.00022373975958632497,0
877,0.05276598827605092,0
878,0.00791128596167958,0
879,0.010016915606732006,0
880,0.056959489676372516,0
881,0.052070096907111424,0
882,0.021564081309045458,0
883,0.03090558814917039,0
884,2.7501651192083476,0
885,6.812999155053713,0
886,-2.078422464786368,0
887,0.4575724855017997,0
888,0.07743772602142532,0
889,-0.030548911706777315,0
890,-0.04721381427923224,0
891,-0.1036576164888302,0
892,-0.0735430192116019,0
893,-0.04717319839969285,0
894,-0.05225831552563237,0
895,0.07265740581988943,0
896,-0.01505831371873094,0
897,0.0285999674315261,0
898,-0.016883102753647527,0
899,0.03481226857234877,0
900,0.3793520315655419,0
901,4.927349091193441,0
902,4.644004368382419,0
903,-2.882723385559814,0
904,1.6817895649134742,0
905,-0.7209213069004937,0
906,0.4023530866470716,0
907,-0.03210362117023778,0
908,0.024166090333883304,0
909,-0.003630512167094372,0
910,0.004735470056270764,0
911,-0.0420020455151567,0
912,0.11480986569169438,0
913,0.06053092227034567,0
914,0.07679701640649257,0
915,-0.009710740182711751,0
916,-0.0798948867767098,0
917,1.0473414667028682,0
918,6.7050628285503375,0
919,1.160087090981806,0
920,-1.6854166950490623,0
921,1.1224057170300574,0
922,-0.49425735003687393,0
923,0.33752716495703816,0
924,-0.07079331946880729,0
925,0.1234819320283247,0
926,0.04716938793600403,0
927,0.06319262533346473,0
928,0.05961592419514071,0
929,0.11416411908033414,0
930,0.10592913094116974,0
931,0.020679990755655336,0
932,0.01708933437159144,0
933,0.0397481326814073,0
934,2.7315956735943425,0
935,6.8192044810675005,0
936,-2.029997847801153,0
937,0.4383139733128009,0
938,-0.005898002572553029,0
939,-0.08706087337087903,0
940,-0.06863603435535405,0
941,-0.02636333568515025,0
942,-0.04187078505078205,0
943,0.022310034290629388,0
944,-0.04009695940544454,0
945,-0.038245975789097594,0
946,0.06810478961357866,0
947,0.04106291921011704,0
948,0.03699145619854114,0
949,-0.004419139792843058,0
950,0.36023967968568227,0
951,4.9291804227553,0
952,4.615807969274485,0
953,-2.848194905864771,0
954,1.5985379672830717,0
955,-0.7114330593603538,0
956,0.37559347572511753,0
957,-0.00888491955634442,0
958,-0.00946482095120306,0
959,-0.0018497337279169378,0
960,0.010619597581348622,0
961,-0.1300278189635566,0
962,0.03048444334541775,0
963,0.02458672420807639,0
964,0.06442658112416902,0
965,0.014765714859071667,0
966,-0.05416373518817389,0
967,1.2110590866392053,0
968,6.649615850978898,0
969,1.0593080335848881,0
970,-1.7176888509323998,0
971,1.105630513564098,0
972,-0.3987338460110774,0
973,0.3046175343121183,0
974,-0.10460186186821702,0
975,0.07488942142517482,0
976,-0.0752149895932222,0
977,0.07852123887044059,0
978,0.0003107266629803901,0
979,0.08420209848365387,0
980,0.1507951396204612,0
981,-0.07163473486952734,0
982,0.09099630398872552,0
983,0.11275636097335319,0
984,2.675593363414331,0
985,6.773426399193829,0
986,-1.9931314990917768,0
987,0.40218310108286076,0
988,0.045616759594198975,0
989,-0.10414479593381243,0
990,0.011016158657628075,0
991,0.08268657666605078,0
992,0.029795217895696835,0
993,-0.005643509026293132,0
994,0.041134534252828515,0
995,0.028997906499259776,0
996,0.030135632600604007,0
997,0.0060387029177088585,0
998,-0.08434937813109311,0
999,0.08372121748867344,0
1000,0.4113879259210236,0
1001,4.89016864061212,0
1002,4.609207660285185,0
1003,-2.936865486982903,0
1004,1.6088896819120133,0
1005,-0.7708834551976883,0
1006,0.3211408831472259,0
1007,-0.03867687074671811,0
1008,0.1548747527468632,0
1009,0.02489385643995736,0
1010,0.07041536305670015,0
1011,-0.053271421540818015,0
1012,-0.03862064204103814,0
1013,0.042685870097047246,0
1014,0.04726731717541428,0
1015,0.09761371267914098,0
1016,0.010623320176217014,0
1017,1.1865881161121388,0
1018,6.601556689374454,0
1019,1.2101911422502416,0
1020,-1.6707451714612127,0
1021,1.1086790261749624,0
1022,-0.51530200312259,0
1023,0.22854104538134984,0
1024,-0.052337916422597996,0
1025,-0.09660597873956533,0
1026,-0.044804669381018104,0
1027,0.02241670569260951,0
1028,0.06675931781255064,0
1029,0.04276912727495508,0
1030,-0.05030938910148831,0
1031,-0.04690624494070951,0
1032,0.11075917008297376,0
1033,0.05795662030284578,0
1034,2.739483333665393,0
1035,6.737319239274125,0
1036,-2.096870037848048,0
1037,0.4541214652230151,0
1038,0.039717844365871974,0
1039,0.025532248496901215,0
1040,0.04811639087445578,0
1041,0.00023259984544715326,0
1042,0.013941742374910854,0
1043,-0.01231563860891766,0
1044,0.0932203292930562,0
1045,0.09715729336288109,0
1046,-0.03415340704949091,0
1047,0.00897526352043725,0
1048,-0.026482056316959993,0
1049,0.054183942815456416,0
1050,0.35791740515024256,0
1051,4.9364062125185555,0
1052,4.655692917715344,0
1053,-3.0655919250150867,0
1054,1.5985100941891826,0
1055,-0.7322732284961603,0
1056,0.39495818911203057,0
1057,-0.0561467227089891,0
1058,0.10281822691664316,0
1059,0.0020657571086446155,0
1060,0.048270265288607485,0
1061,-0.03943142029501528,0
1062,0.05468260784552416,0
1063,0.06961748872684134,0
1064,-0.017618374785885807,0
1065,-0.08632534841714956,0
1066,-0.02225680659388589,0
1067,1.1340399559635397,0
1068,6.656361677613425,0
1069,1.054242297392675,0
1070,-1.6192351789031474,0
1071,1.2021922993774807,0
1072,-0.5613625227489886,0
1073,0.27464965510900213,0
1074,-0.06543935852597488,0
1075,0.03252103644274444,0
1076,0.058707766110124696,0
1077,0.02389189587814705,0
1078,-0.017155316182488757,0
1079,0.05649719743799135,0
1080,-0.05613212587656046,0
1081,0.11977348823007461,0
1082,0.07837455733220454,0
1083,0.08946132298799912,0
1084,2.810712635414232,0
1085,6.816404073041804,0
1086,-2.0965920869667487,0
1087,0.4659192381653392,0
1088,0.01679966091804627,0
1089,0.04701956775475027,0
1090,0.043046794457945854,0
1091,0.07099273708871653,0
1092,0.0525415239016359,0
1093,0.0056145196187802025,0
1094,0.013256274205871688,0
1095,0.04089419412423216,0
1096,-0.011976858485514674,0
1097,-0.049198249023818204,0
1098,0.04505709997960872,0
1099,0.0682119102517066,0
1100,0.298079455293992,0
1101,4.871644090485262,0
1102,4.594502551723067,0
1103,-2.894118282547468,0
1104,1.615655884345878,0
1105,-0.7296596587247497,0
1106,0.4039417282635396,0
1107,-0.03208652748198553,0
1108,0.051725763757384996,0
1109,-0.03572384302422272,0
1110,0.0244839447419454,0
1111,0.09552640033643639,0
1112,0.09721755754524136,0
1113,0.013466319502652545,0
1114,0.08817389868353025,0
1115,0.04230003910925306,0
1116,0.047987698958401756,0
1117,1.2642519866844943,0
1118,6.61755625545641,0
1119,1.0768261217604669,0
1120,-1.6058642526404991,0
1121,1.1012458030274346,0
1122,-0.48490542413664006,0
1123,0.25794615769042145,0
1124,-0.07139130453794348,0
1125,0.007496071653880394,0
1126,0.003353102549211902,0
1127,-0.04177495988954799,0
1128,0.055295747137690546,0
1129,-0.05776785936355329,0
1130,0.06960571050948441,0
1131,-0.02043048333544175,0
1132,0.013589010024157609,0
1133,0.07998949375690882,0
1134,2.774091312803083,0
1135,6.819052393819447,0
1136,-2.1194676746271006,0
1137,0.44229320750802115,0
1138,0.04846600009507743,0
1139,-0.03986915516498786,0
1140,-0.003869709571748592,0
1141,0.0870659170614212,0
1142,0.05008170726307244,0
1143,0.009141374768699723,0
1144,0.0476318117358763,0
1145,0.03672807305923332,0
1146,0.059454968909373504,0
1147,0.09139925445553748,0
1148,0.045952438239345736,0
1149,0.09034023677492206,0
1150,0.40221358399068696,0
1151,4.905444478673988,0
1152,4.7296613698689685,0
1153,-2.8793892079692878,0
1154,1.6698371806124712,0
1155,-0.8484298265221084,0
1156,0.4010852598044079,0
1157,-0.14074728180614,0
1158,0.12348200079069455,0
1159,0.005257874517145144,0
1160,0.02144394966172757,0
1161,-0.038297507665067426,0
1162,-0.019072464343872254,0
1163,0.01777226559751977,0
1164,-0.05878614324734579,0
1165,0.11267281352350805,0
1166,-0.0738138778295952,0
1167,1.1817021268983028,0
1168,6.533297828343864,0
1169,0.8913995689143273,0
1170,-1.610989284388624,0
1171,1.2313029473389019,0
1172,-0.4770578182859178,0
1173,0.32303067696933474,0
1174,-0.032166245433467265,0
1175,0.15741506191221,0
1176,0.1509551594606541,0
1177,0.05611577479453174,0
1178,0.09040109003043327,0
1179,0.14353074036034866,0
1180,0.07336318831046215,0
1181,0.07763932997483274,0
1182,0.14891363024961612,0
1183,0.15956340741303127,0
1184,2.823773045841292,0
1185,6.750589619814678,0
1186,-2.103740246001908,0
1187,0.5551801964925498,0
1188,0.067112393485313,0
1189,-0.12203888219651704,0
1190,0.028550917968551373,0
1191,-0.007729341317626559,0
1192,-0.05003173394185481,0
1193,-0.02178041596751762,0
1194,0.029177466448405822,0
1195,0.021891755654140893,0
1196,-0.06292464024223625,0
1197,-0.05820660042329512,0
1198,-0.035357312877308936,0
1199,-0.003026848169041887,0
1200,0.3303438323690506,0
1201,4.963469162230072,0
1202,4.5311221646841595,0
1203,-2.924156064478446,0
1204,1.523993866864333,0
1205,-0.7775046421507488,0
1206,0.3222449566991779,0
1207,-0.06971003874135151,0
1208,-0.005246944240496907,0
1209,0.035435073166701095,0
1210,-0.045730810760596485,0
1211,-0.06875502557088688,0
1212,-0.03489311928972375,0
1213,-0.04762730387353892,0
1214,-0.06376409217241721,0
1215,0.031204497951912068,0
1216,0.019041728654522333,0
1217,1.1850661777571092,0
1218,6.699289177593478,0
1219,0.9822227304717773,0
1220,-1.5785465870931357,0
1221,1.1443599772194444,0
1222,-0.5426244706508428,0
1223,0.2765734493597527,0
1224,-0.02705275678951425,0
1225,0.07374814645228236,0
1226,0.004018378103215297,0
1227,-0.019594016927348547,0
1228,-0.05317201233065536,0
1229,-0.014653761476065315,0
1230,0.08761817213824792,0
1231,0.05466885611694308,0
1232,0.030118513597947073,0
1233,0.004526141137674702,0
1234,2.7081907782423147,0
1235,6.627207632054435,0
1236,-2.2201355466305617,0
1237,0.4918729655714976,0
1238,-0.0045241976322030406,0
1239,-0.09700674026249974,0
1240,-0.054743400107926235,0
1241,-0.07890206123410823,0
1242,-0.0435751703000099,0
1243,-0.07669382273306849,0
1244,0.03032457036600348,0
1245,-0.09170676172742588,0
1246,0.014431985178087362,0
1247,-0.09028553702949794,0
1248,-0.04251964171156696,0
1249,-0.08043514686079781,0
1250,0.35632443902405475,0
1251,4.875765050050022,0
1252,4.349471502934169,0
1253,-2.970839147744171,0
1254,1.5164184302162573,0
1255,-0.7876757554397099,0
1256,0.25611939127944355,0
1257,-0.08891786771062862,0
1258,0.01124019177996102,0
1259,-0.12654607835277093,0
1260,-0.009018476020040599,0
1261,-0.033098269473601456,0
1262,-0.13467001825927002,0
1263,-0.03688371576208976,0
1264,-0.010749528635363326,0
1265,0.0037776926539670533,0
1266,0.03224548532053573,0
1267,1.1249262150792398,0
1268,6.61016347692907,0
1269,0.966435024657797,0
1270,-1.6723423434045235,0
1271,0.9922296511314097,0
1272,-0.5603331643414771,0
1273,0.23735303065510455,0
1274,-0.011858733527278106,0
1275,0.012488498253925742,0
1276,-0.05842678733556557,0
1277,-0.03584861192049023,0
1278,-0.025889486418998693,0
1279,-0.08805493863806096,0
1280,-0.01732654207024114,0
1281,-0.08340989627240329,0
1282,0.02394274597499931,0
1283,0.0170165024135347,0
1284,2.878659294323819,0
1285,6.703556570759224,0
1286,-2.0953844024414185,0
1287,0.4787121136692256,0
1288,-0.0147105430975207,0
1289,-0.0443355645752974,0
1290,0.003751889241215514,0
1291,0.052683322162887083,0
1292,-0.03883021542211572,0
1293,-0.01680833183592349,0
1294,-0.019949437299922983,0
1295,-0.029222601212494804,0
1296,-0.027510206719491427,0
1297,-0.05156174751240733,0
1298,-0.035720320502967653,0
1299,-0.04597713284863457,0
1300,0.3188905797314862,0
1301,4.8546961752985665,0
1302,4.3845150311386005,0
1303,-2.991772764012629,0
1304,1.4835235192813037,0
1305,-0.8186936417583045,0
1306,0.29229520772454254,0
1307,-0.1882249015087737,0
1308,-0.05047746177525935,0
1309,-0.06925039778656467,0
1310,0.04242473691074224,0
1311,-0.005206640650469288,0
1312,0.11989047117278864,0
1313,0.01672322172239239,0
1314,0.056696410409226815,0
1315,0.02518423414680289,0
1316,0.03516334065748943,0
1317,1.2280078938504124,0
1318,6.57890961991996,0
1319,0.8922548825460315,0
1320,-1.636045429971069,0
1321,1.0258677341293043,0
1322,-0.5971666620929478,0
1323,0.19633664467352357,0
1324,-0.1729145033090057,0
1325,-0.035036926040631244,0
1326,-0.04405194739069906,0
1327,-0.08425611019946677,0
1328,-0.13991328685335835,0
1329,0.018525139399496397,0
1330,-0.05466441103386173,0
1331,0.021923127024880577,0
1332,-0.03816149152557852,0
1333,0.010170926096170235,0
1334,2.82321961184844,0
1335,6.7810550518576,0
1336,-2.1532263300620333,0
1337,0.5029232942593864,0
1338,-0.06028233957201593,0
1339,-0.07268276490446826,0
1340,-0.07823610290116917,0
1341,0.021839433222495583,0
1342,-0.012926767687648708,0
1343,-0.02253528940478711,0
1344,-0.0017888894063735686,0
1345,-0.06550537121675565,0
1346,-0.033283913733517474,0
1347,-0.06010688410147155,0
1348,-0.09608813243438936,0
1349,-0.06384001247713716,0
1350,0.24849800061512817,0
1351,4.864640589979084,0
1352,4.372468858454651,0
1353,-3.0724901875327397,0
1354,1.4645035934476547,0
1355,-0.8490248293684636,0
1356,0.2711769346704257,0
1357,-0.12811049213172757,0
1358,-0.02710258155558171,0
1359,0.010957791227540412,0
1360,0.12057021004851826,0
1361,-0.007173188486474348,0
1362,-0.07422676965064023,0
1363,0.03552384197765955,0
1364,-0.030922031416958963,0
1365,-0.019526902535903962,0
1366,-0.03697162201323469,0
1367,1.26212726885559,0
1368,6.690879544232711,0
1369,0.9886067695522257,0
1370,-1.5762999102249606,0
1371,1.1045363352074953,0
1372,-0.5088731323328312,0
1373,0.23407708751526957,0
1374,-0.11941592569927471,0
1375,-0.059680485243780126,0
1376,0.01894856984298861,0
1377,-0.060261973204142644,0
1378,-0.05244365320823028,0
1379,-0.01059520009167866,0
1380,0.03712852267619006,0
1381,0.13249291764002696,0
1382,0.02850534176005284,0
1383,0.027290232763583305,0
1384,2.8327511930166773,0
1385,6.748908867925897,0
1386,-2.220354279200106,0
1387,0.5104518436283532,0
1388,0.06364654976768228,0
1389,-0.019734669590641015,0
1390,-0.013329756552413493,0
1391,0.06803100985880425,0
1392,0.05932064374325316,0
1393,-0.06156853906033903,0
1394,0.025262661709208375,0
1395,0.05582974986563171,0
1396,0.11660051421466336,0
1397,0.056813646243128256,0
1398,-0.08661516516217092,0
1399,-0.05250214594324709,0
1400,0.3572880397192025,0
1401,4.948834959812864,0
1402,4.444803816404567,0
1403,-2.963531856855883,0
1404,1.5869210148849193,0
1405,-0.7817623348784978,0
1406,0.30065895260837855,0
1407,-0.026155581835269434,0
1408,0.011129440185861851,0
1409,-0.03709204826074804,0
1410,0.050942963314191084,0
1411,-0.02639166981711653,0
1412,-0.06747337657324129,0
1413,0.04721196074226174,0
1414,-0.06294643676297021,0
1415,0.054899774349273685,0
1416,-0.06735914090779456,0
1417,1.2221653021263605,0
1418,6.614399704159104,0
1419,0.8812817624664663,0
1420,-1.5614531771250322,0
1421,1.0530699830209989,0
1422,-0.4948929639173328,0
1423,0.23821176430508184,0
1424,-0.04500228395714909,0
1425,-0.022917080019235536,0
1426,-0.004253931885076492,0
1427,0.0721762172111708,0
1428,0.04642267266129291,0
1429,-0.009918766501607671,0
1430,0.010871056557098649,0
1431,0.012483737690330177,0
1432,0.07470953548855847,0
1433,0.08223415648230228,0
1434,2.9294931826949515,0
1435,6.760828641039266,0
1436,-2.130962269273389,0
1437,0.5783730399798405,0
1438,-0.05439088732289287,0
1439,0.044622754006816916,0
1440,0.0647910644991882,0
1441,0.019288063791612166,0
1442,0.0370423779162498,0
1443,0.05857882179888512,0
1444,0.09472919470957933,0
1445,0.05630229057880311,0
1446,0.007306293365836353,0
1447,-0.004303019504172799,0
1448,-0.034338341883644846,0
1449,-0.01801821521487786,0
1450,0.43912502228260086,0
1451,5.000975692014632,0
1452,4.538098364374157,0
1453,-2.86853771311348,0
1454,1.669301375702781,0
1455,-0.68467137138845,0
1456,0.3107760041754551,0
1457,-0.07653502271505747,0
1458,-0.016442637027317436,0
1459,-0.04131283422673407,0
1460,0.06900304596494793,0
1461,0.01869797754681367,0
1462,0.0952404963920265,0
1463,0.04576089293362577,0
1464,0.09936385095144046,0
1465,-0.024233215556394253,0
1466,0.0374080444092415,0
1467,1.2066395036454536,0
1468,6.709276147777777,0
1469,0.8608925668666921,0
1470,-1.5503033920391087,0
1471,1.1014233554417108,0
1472,-0.5495476841332798,0
1473,0.3023426869813654,0
1474,-0.07433130737785974,0
1475,0.041889240078871764,0
1476,0.009761072987924148,0
1477,0.048226139202108595,0
1478,0.025854146395051715,0
1479,0.021636640131665663,0
1480,0.09406675791780379,0
1481,-0.004686817374774981,0
1482,-0.03645412136154749,0
1483,0.04524126847789071,0
1484,2.9228683437721914,0
1485,6.650271418826558,0
1486,-2.2968713286508255,0
1487,0.48555425925367796,0
1488,-0.024517781353972666,0
1489,-0.01584193965182325,0
1490,0.0068220691733177075,0
1491,-0.09803944768617914,0
1492,-0.07890462781877212,0
1493,0.05190130583079887,0
1494,0.04818035457603807,0
1495,-0.002379719478891193,0
1496,0.03574629195139382,0
1497,-0.037782754984694494,0
1498,0.00015484634973612736,0
1499,0.046794965789114684,0
1500,0.45279319973011317,0
1501,5.02032801840064,0
1502,4.486770054309346,0
1503,-2.9917756384120797,0
1504,1.580643652410437,0
1505,-0.7171324345955866,0
1506,0.4211355992846615,0
1507,-0.06627834827051238,0
1508,0.08930166947225968,0
1509,-0.03421413093820245,0
1510,-0.0064682662148004486,0
1511,0.07833922365127076,0
1512,-0.015348380117696696,0
1513,0.10694414865738447,0
1514,0.002869590247299627,0
1515,0.009521690998111383,0
1516,-0.028711785720684065,0
1517,1.34901836087673,0
1518,6.750000208681425,0
1519,0.8839245667657387,0
1520,-1.540400865842299,0
1521,1.244746162186829,0
1522,-0.4916381821645075,0
1523,0.36307646678931177,0
1524,-0.0880994411459656,0
1525,0.08977339666476658,0
1526,0.15340253271036222,0
1527,-0.10118089177173237,0
1528,0.14871263242783553,0
1529,0.03467005204437543,0
1530,0.06332015325641942,0
1531,-0.021320413477076354,0
1532,0.06731950962534189,0
1533,0.07650729411375562,0
1534,2.896354590434418,0
1535,6.680400599818898,0
1536,-2.2439885531799315,0
1537,0.664531710913506,0
1538,-0.03144337236504188,0
1539,0.012608891084727382,0
1540,0.029303501428809865,0
1541,0.11054020683524311,0
1542,0.06575478672565896,0
1543,0.11831912537786796,0
1544,0.11699335172229267,0
1545,0.10796828842643993,0
1546,0.056076133729041,0
1547,0.042431337989335224,0
1548,0.06688546043734063,0
1549,0.05750879228917447,0
1550,0.49140976380345347,0
1551,5.063485411521223,0
1552,4.348649661671165,0
1553,-2.8920792014340537,0
1554,1.6016893674707597,0
1555,-0.6781669308597597,0
1556,0.3081797716461879,0
1557,-0.09231558539732551,0
1558,0.1377255663897935,0
1559,0.023608444421740964,0
1560,0.07845256451171123,0
1561,0.07048995507885285,0
1562,0.1682656305508824,0
1563,-0.0054667604901586925,0
1564,0.0862073369647077,0
1565,0.07435403344159669,0
1566,0.07317956261720437,0
1567,1.312099427206224,0
1568,6.7270358034039965,0
1569,0.8262049467938718,0
1570,-1.428498106015942,0
1571,1.1195720694061164,0
1572,-0.43254263651062724,0
1573,0.3816477998127986,0
1574,-0.04733350196557862,0
1575,0.2114972676873653,0
1576,0.031172258105151507,0
1577,0.06139148530297671,0
1578,0.06223505215377995,0
1579,0.040579795394766284,0
1580,0.11955624064195004,0
1581,0.08856579189056822,0
1582,-0.05516950824653512,0
1583,0.071989765893876,0
1584,2.8660700193837996,0
1585,6.741175012230855,0
1586,-2.251382146030274,0
1587,0.645791956468969,0
1588,-0.13637650227802164,0
1589,0.037993241649574246,0
1590,0.008978232875696109,0
1591,0.02113068990867658,0
1592,-0.02019050856795418,0
1593,0.05662833289375218,0
1594,0.0877422080544707,0
1595,0.001256292280341617,0
1596,-0.02097623627775258,0
1597,-0.06903846369622012,0
1598,-0.018437359296454275,0
1599,0.014136448081158931,0
1600,0.4012946230931348,0
1601,5.15225211218521,0
1602,4.388537869579066,0
1603,-2.9383427336286325,0
1604,1.6412449752441818,0
1605,-0.7877854922860246,0
1606,0.39821171764167795,0
1607,-0.04526576080414711,0
1608,0.0009981625582887177,0
1609,0.037462319651493416,0
1610,0.026025041963092903,0
1611,0.02620779121001782,0
1612,0.0946712550888707,0
1613,0.08785593474297503,0
1614,0.07732287336083947,0
1615,0.046843882230075844,0
1616,0.02595322419302421,0
1617,1.2713499335867,0
1618,6.793725494590622,0
1619,0.8171479443358589,0
1620,-1.5013363357132752,0
1621,1.1451335330907757,0
1622,-0.4988868284923932,0
1623,0.23256658347543407,0
1624,-0.08283492445257568,0
1625,0.09098036830574624,0
1626,0.057649176501315125,0
1627,0.0431556330138852,0
1628,0.0030430935694939903,0
1629,-0.029739270320946358,0
1630,0.10263288588958853,0
1631,0.051784396689493015,0
1632,0.06161113545727098,0
1633,0.1410898655056525,0
1634,2.918141644751423,0
1635,6.6412575660222135,0
1636,-2.265582448020089,0
1637,0.5925212651795483,0
1638,0.013067604449248593,0
1639,0.03644099992858027,0
1640,-0.007967520203871162,0
1641,0.06404199405082533,0
1642,0.12042990009856436,0
1643,0.016651129645564762,0
1644,0.0128725873060914,0
1645,0.06288368031271012,0
1646,0.10377236140883604,0
1647,0.05821301406399278,0
1648,0.04148654790717639,0
1649,-0.0009604135071751146,0
1650,0.3971752676169999,0
1651,5.14417975901895,0
1652,4.416262468292474,0
1653,-2.9351509576384585,0
1654,1.629207585597033,0
1655,-0.7362353638421981,0
1656,0.2919002215708668,0
1657,-0.10839217298217474,0
1658,0.13804549660153942,0
1659,0.003367797168429415,0
1660,0.09785278572752902,0
1661,0.003911478178327609,0
1662,-0.03921248680424286,0
1663,0.035091524111212476,0
1664,0.0038341457369365124,0
1665,0.0002116467206807332,0
1666,0.04839820166902544,0
1667,1.3611851504857595,0
1668,6.790778302164578,0
1669,0.7597962800284047,0
1670,-1.4052430637879765,0
1671,1.1185312706364507,0
1672,-0.5067725452792118,0
1673,0.31075250834647933,0
1674,-0.027277625671846523,0
1675,0.09122327272474814,0
1676,0.051352825361291835,0
1677,0.0049323618991111914,0
1678,0.005300265017559806,0
1679,0.056080610691003854,0
1680,0.06896630176248253,0
1681,0.0036874574589203304,0
1682,0.006638325172566441,0
1683,-0.006704546402881387,0
1684,2.984873513898863,0
1685,6.750694444934238,0
1686,-2.3481949140941465,0
1687,0.5441875011129387,0
1688,0.00996185299301694,0
1689,0.007520190046273951,0
1690,-0.0272900850465185,0
1691,-0.08439221965404682,0
1692,0.03765757113727242,0
1693,0.008691873798855288,0
1694,0.011421151697613038,0
1695,0.013757822900633121,0
1696,-0.0009550221148159865,0
1697,-0.06219164245228983,0
1698,-0.08556318223684398,0
1699,-0.032059426311759336,0
1700,0.3164061276351257,0
1701,5.064841263856279,0
1702,4.398366933419702,0
1703,-3.042949118905216,0
1704,1.6026254787893366,0
1705,-0.7346735363232456,0
1706,0.40791462462836514,0
1707,0.009511343537572825,0
1708,0.0912117300735137,0
1709,0.025272879260381624,0
1710,-0.046350451410644325,0
1711,0.039416187932044086,0
1712,-0.011145713802857136,0
1713,0.017965525126064447,0
1714,0.04292600147483244,0
1715,0.004510567311917138,0
1716,0.015793939624296916,0
1717,1.2779558346439168,0
1718,6.758153708883549,0
1719,0.7185019560349648,0
1720,-1.5321558576458072,0
1721,1.0356111246365465,0
1722,-0.5368478313681774,0
1723,0.30592254230939186,0
1724,-0.10136778982243819,0
1725,-0.008909340963050419,0
1726,-0.0057134768202537906,0
1727,0.03133828615116939,0
1728,0.0496451977441247,0
1729,0.050314925044086745,0
1730,-0.03533182992485539,0
1731,0.04080555671956706,0
1732,0.08912407337304228,0
1733,0.12822407588174933,0
1734,2.9398360859411037,0
1735,6.712316094802282,0
1736,-2.2685107133032743,0
1737,0.7520492225042721,0
1738,0.010982064456072096,0
1739,0.09868145454558525,0
1740,0.02533758092340084,0
1741,0.09421543213341355,0
1742,0.0167034545654956,0
1743,0.05621927745389717,0
1744,0.11003113436239892,0
1745,0.06892044679344164,0
1746,-0.02486576122812606,0
1747,0.039898224966223986,0
1748,-2.4339930598714365e-05,0
1749,-0.005549811399811325,0
1750,0.47589528732490005,0
1751,5.072551004567341,0
1752,4.331811802637123,0
1753,-2.852163228669562,0
1754,1.6508179465171238,0
1755,-0.7190614973815627,0
1756,0.4101430391245806,0
1757,-0.07021268039119034,0
1758,0.09505969012417675,0
1759,0.08584842035318418,0
1760,0.031225328313596767,0
1761,-0.017479362948622026,0
1762,-0.0003938844038124181,0
1763,0.09661354297628078,0
1764,0.08442452516129872,0
1765,0.1020091300617724,0
1766,-0.04716440831267735,0
1767,1.2433669819746938,0
1768,6.75591507752479,0
1769,0.6178162126851021,0
1770,-1.507207607478583,0
1771,1.070832156424338,0
1772,-0.5437094897283538,0
1773,0.21183180771091542,0
1774,-0.041989715911742734,0
1775,-0.05616025826253719,0
1776,-0.0028975725156650603,0
1777,0.008964893339568913,0
1778,-0.01057981085666556,0
1779,0.004659272532585877,0
1780,0.08734490068616851,0
1781,0.07777127454734058,0
1782,0.11408409151666093,0
1783,0.0022543772234360354,0
1784,3.042720034758809,0
1785,6.728063398800235,0
1786,-2.2130735185231982,0
1787,0.6746395432735265,0
1788,-0.07853975530439164,0
1789,0.06276537288276886,0
1790,0.0748619717024939,0
1791,0.06835484273532617,0
1792,-0.009583945893928705,0
1793,0.08694658264412378,0
1794,0.05280793912816166,0
1795,0.04151479270274997,0
1796,-0.032597333245361994,0
1797,0.0827831258864361,0
1798,0.0631054945711028,0
1799,-0.06208457694407061,0
1800,0.41294732698114556,0
1801,5.151201973605664,0
1802,4.331062401516445,0
1803,-2.9944948830018068,0
1804,1.6083047328665363,0
1805,-0.6288389768686142,0
1806,0.357813880479202,0
1807,-0.05613583413479106,0
1808,0.15383311178325426,0
1809,0.09025658729371505,0
1810,0.07222051685417502,0
1811,0.06320871792300098,0
1812,0.04194585008272049,0
1813,0.1380868745655478,0
1814,0.06386062468667622,0
1815,0.1047752093004122,0
1816,0.017715139288739676,0
1817,1.2652605975349658,0
1818,6.7250518413282006,0
1819,0.7657388713035713,0
1820,-1.5506826116827381,0
1821,1.0538925143929916,0
1822,-0.4341461749488382,0
1823,0.23950915799395253,0
1824,0.14547795287322757,0
1825,0.09680952885370732,0
1826,0.06228947118729728,0
1827,0.05645495203698264,0
1828,0.15383591044387815,0
1829,0.1338881595342693,0
1830,0.1481196745131858,0
1831,0.051720658838574726,0
1832,-0.015932310655847347,0
1833,0.08342043956678716,0
1834,2.9823503218532625,0
1835,6.684252969691674,0
1836,-2.378444368399725,0
1837,0.7098186038339234,0
1838,-0.06258161035063936,0
1839,0.10260491732890481,0
1840,0.053867643496473966,0
1841,0.032007628018008716,0
1842,0.05888316953611484,0
1843,0.05767834169143665,0
1844,0.043778620269111404,0
1845,0.01179767831282267,0
1846,0.07045984014457629,0
1847,0.00941843585407065,0
1848,0.016606466596426603,0
1849,0.05430188524315495,0
1850,0.40201862929528914,0
1851,5.084112966968833,0
1852,4.286896361285997,0
1853,-2.8075242833530805,0
1854,1.6700650020084964,0
1855,-0.7736868115086188,0
1856,0.38461142850590563,0
1857,-0.07417094814448966,0
1858,0.08299059564679626,0
1859,0.059539475215197854,0
1860,0.03696359493797721,0
1861,0.03219396750017896,0
1862,-0.0478095294008854,0
1863,-0.00847575191773016,0
1864,0.010273499669411174,0
1865,-0.04269699960624458,0
1866,0.050276906000754906,0
1867,1.3967828600275745,0
1868,6.787562052805968,0
1869,0.6527177013451255,0
1870,-1.462698646865103,0
1871,1.132604098180273,0
1872,-0.4657936088117111,0
1873,0.23056240149909485,0
1874,0.00044655733690328325,0
1875,0.08288830336778723,0
1876,-0.016803748148721896,0
1877,0.046009279550202106,0
1878,0.02748111178400329,0
1879,0.01847725830781711,0
1880,-0.002258273717288737,0
1881,0.011116764135593146,0
1882,0.11967274175062104,0
1883,0.06845963374778422,0
1884,3.0257712995170802,0
1885,6.680097609442735,0
1886,-2.269001935041137,0
1887,0.6396636509641168,0
1888,-0.025925492045735028,0
1889,0.07823808481982936,0
1890,-0.02738146893617775,0
1891,0.0603290155713363,0
1892,-0.02996205577668552,0
1893,-0.04894447962457745,0
1894,0.07196968299291072,0
1895,0.0005645559553353677,0
1896,-0.022010364516069327,0
1897,0.08389937130573853,0
1898,0.07660445123445284,0
1899,-0.11893173043196598,0
1900,0.3412467750216735,0
1901,5.092356242243196,0
1902,4.233858886764108,0
1903,-2.9778031633160014,0
1904,1.5973267748085993,0
1905,-0.7009113225211719,0
1906,0.3157396797355321,0
1907,0.006971336064583583,0
1908,0.08202265123483025,0
1909,0.11429934025185301,0
1910,0.10568067744722494,0
1911,0.06666306638252524,0
1912,0.1281550653697971,0
1913,0.11833092601228992,0
1914,0.027993185197693282,0
1915,0.0837294362755021,0
1916,0.07612716009144455,0
1917,1.3536542675239345,0
1918,6.786368958693819,0
1919,0.684182560403069,0
1920,-1.4160356557288805,0
1921,1.0298183136770842,0
1922,-0.5063796387981809,0
1923,0.1951329819491207,0
1924,0.014169251079982043,0
1925,-0.026296858765158006,0
1926,-0.051671265174142965,0
1927,0.01674184901886839,0
1928,-0.19223359774153007,0
1929,0.06091425960051329,0
1930,-0.01934947591138998,0
1931,-0.02480293842117242,0
1932,0.005660080244068447,0
1933,0.01688981301009721,0
1934,2.9969186105657277,0
1935,6.596877937322465,0
1936,-2.3835642901266607,0
1937,0.6931403266958399,0
1938,-0.21443572919204448,0
1939,-0.026308441029177454,0
1940,0.01098243379993204,0
1941,-0.02352003611423105,0
1942,-0.043661811955736006,0
1943,-0.017406079791145366,0
1944,0.010826847947969998,0
1945,0.06436788034386122,0
1946,0.01050938789616878,0
1947,0.016655274137382763,0
1948,0.04672938244846796,0
1949,-0.02422267648356001,0
1950,0.3947294791691454,0
1951,5.111688409981723,0
1952,4.139223432171366,0
1953,-2.913072218284563,0
1954,1.5678338968640408,0
1955,-0.739442397960339,0
1956,0.3040653602150924,0
1957,-0.09587202301577107,0
1958,0.08286572520859438,0
1959,-0.035976564154541556,0
1960,-0.0819707762239879,0
1961,-0.1102862558741333,0
1962,-0.005473835034025747,0
1963,0.039039848173092306,0
1964,0.022375889563959743,0
1965,0.005210977642970176,0
1966,-0.013859352248718194,0
1967,1.2687335535240938,0
1968,6.692096475495903,0
1969,0.5858697844160764,0
1970,-1.4104325534416005,0
1971,0.9602157327177758,0
1972,-0.548395828288138,0
1973,0.19157151584935211,0
1974,-0.1378968515864284,0
1975,0.11976520381863187,0
1976,-0.017372302205744324,0
1977,-0.05468153021015606,0
1978,0.09397044549582881,0
1979,-0.02687854745797489,0
1980,-0.10152820019480895,0
1981,0.023634444926399312,0
1982,-0.037685298321315924,0
1983,-0.009951598194642548,0
1984,3.034548198066752,0
1985,6.525407130295181,0
1986,-2.426310141538367,0
1987,0.6937924775508233,0
1988,-0.13758781725342362,0
1989,0.003982770658838342,0
1990,-0.17081092329477637,0
1991,0.029005053465427894,0
1992,-0.11865036398015036,0
1993,-0.05300242380447747,0
1994,-0.05573440174679629,0
1995,-0.00021329126674341642,0
1996,-0.03855201082180473,0
1997,-0.04292234099740742,0
1998,-0.06079477511345615,0
1999,-0.03771893214296724,0
2000,0.4404530041856307,0
2001,5.063922064137646,0
2002,4.179341737636827,0
2003,-2.9053519597128896,0
2004,1.6117945234362228,0
2005,-0.7985026623209202,0
2006,0.28398747335660485,0
2007,-0.03089251437315435,0
2008,0.06306319744538777,0
2009,0.07590108799751466,0
2010,0.04015653138104728,0
2011,0.0240289679563776,0
2012,-0.011137957922849495,0
2013,-0.071393761190697,0
2014,-0.08918590115751596,0
2015,0.03497142919923907,0
2016,0.045826149650803456,0
2017,1.3326508115017688,0
2018,6.729684326216937,0
2019,0.5770630738975904,0
2020,-1.2949596948497195,0
2021,0.9577122834940197,0
2022,-0.6116355908101382,0
2023,0.17636241788053494,0
2024,-0.1802870406087712,0
2025,-0.02542187898813565,0
2026,-0.11657140810497876,0
2027,-0.08131924591642309,0
2028,-0.0003376271761531893,0
2029,-0.07876000078417439,0
2030,-0.06382082426987688,0
2031,-0.01643481143475696,0
2032,-0.03916195769553774,0
2033,-0.015452908714201213,0
2034,2.8809502895338794,0
2035,6.540854472070935,0
2036,-2.4577071530210626,0
2037,0.6038206584820465,0
2038,-0.15333212125331402,0
2039,-0.03788800849049675,0
2040,-0.028796741157160577,0
2041,0.00749446376743336,0
2042,-0.09238314329069822,0
2043,-0.04577418794216118,0
2044,-0.0269344792172689,0
2045,-0.02377284013868996,0
2046,-0.06593500634227834,0
2047,0.055609136436771255,0
2048,-0.11447858088555007,0
2049,0.02167941837845861,0
2050,0.4559997041537317,0
2051,5.187350947030927,0
2052,4.106779085765586,0
2053,-2.9796295092286065,0
2054,1.5930937902933238,0
2055,-0.8471672893881018,0
2056,0.30856798735887103,0
2057,-0.1357312502257685,0
2058,0.02376173480512085,0
2059,-0.07492829265097226,0
2060,0.012832116302549913,0
2061,-0.037046855789669264,0
2062,-0.06116770578522465,0
2063,0.01751592740431969,0
2064,-0.04867334637715802,0
2065,-0.06656037332944348,0
2066,-0.002712004305498429,0
2067,1.2016342397544266,0
2068,6.694553478824898,0
2069,0.5931682044261368,0
2070,-1.4888715651775781,0
2071,0.9943075590043177,0
2072,-0.4829869088025808,0
2073,0.2482304664136564,0
2074,-0.023502386007354478,0
2075,-0.030944727237791833,0
2076,-0.022762729794435964,0
2077,-0.010090861626077445,0
2078,-0.03606168995381255,0
2079,0.06695994908045394,0
2080,-0.02443886849439534,0
2081,0.008571821081736968,0
2082,-0.05703101523544679,0
2083,-0.008423154858965928,0
2084,3.0639558041192365,0
2085,6.640134032466137,0
2086,-2.472641301150388,0
2087,0.7149303475996273,0
2088,-0.12134204813258284,0
2089,0.08584986775280949,0
2090,0.09049281339907159,0
2091,0.0208398043851393,0
2092,0.03620575244126518,0
2093,0.06256539071340068,0
2094,0.0529041751828956,0
2095,0.09381068763323411,0
2096,0.005415208223145878,0
2097,0.08323527550662677,0
2098,0.059859028098904365,0
2099,-0.12151267675057638,0
2100,0.44502257358191166,0
2101,5.101480426740241,0
2102,4.224173849388529,0
2103,-2.9826435153684647,0
2104,1.584940527967117,0
2105,-0.6724465514679799,0
2106,0.3955158282435617,0
2107,-0.1483619092050208,0
2108,0.13072278601490958,0
2109,-0.00014396473965122558,0
2110,-0.017168525739932033,0
2111,0.004510446944171145,0
2112,0.09415453005781839,0
2113,-0.04078469235540083,0
2114,0.043082344635581096,0
2115,0.02968036058893421,0
2116,0.07747748676031009,0
2117,1.2794642726619976,0
2118,6.737030280545541,0
2119,0.5456971256122884,0
2120,-1.4200856830828832,0
2121,0.9848032170897126,0
2122,-0.5234676812060935,0
2123,0.15696625703681616,0
2124,0.011200965150743397,0
2125,0.07550377526496332,0
2126,0.00721670409568493,0
2127,0.06081712623350229,0
2128,0.06697654184673807,0
2129,-0.02273691281969284,0
2130,0.05409503959308051,0
2131,-0.03600829357067783,0
2132,0.034653237619658925,0
2133,0.02642885414143316,0
2134,3.1231406795188867,0
2135,6.710016968957135,0
2136,-2.379912821935866,0
2137,0.6768554823847435,0
2138,-0.1539681905692633,0
2139,-0.015157509221342624,0
2140,-0.0661103791934948,0
2141,0.12137503678432979,0
2142,0.026566529647648083,0
2143,0.029901295621277274,0
2144,0.054544765559692523,0
2145,0.05469958592828668,0
2146,0.05138922394249919,0
2147,0.006689106804831097,0
2148,0.09710338826930374,0
2149,-0.019080944131244365,0
2150,0.4659872951393808,0
2151,5.227558053730171,0
2152,4.158826279285689,0
2153,-2.874547103101391,0
2154,1.6409782349007227,0
2155,-0.714387088308844,0
2156,0.3048060922513765,0
2157,-0.0893161295886106,0
2158,0.031910185348708,0
2159,-0.04927270913538503,0
2160,0.029205416990670786,0
2161,-0.02163640767839104,0
2162,0.020268462767720125,0
2163,-0.04330795125434246,0
2164,0.03426161800151196,0
2165,-0.05096660390161033,0
2166,0.04739279108447094,0
2167,1.4359911596714856,0
2168,6.832761792261688,0
2169,0.6374638497762523,0
2170,-1.3667120827204344,0
2171,1.0245491692984234,0
2172,-0.394500527952171,0
2173,0.38804451105819604,0
2174,0.09753876685879512,0
2175,0.1294054686574372,0
2176,0.06388684481951405,0
2177,-0.06576281292587685,0
2178,0.1864313173114925,0
2179,0.13290681806776497,0
2180,0.06600046827873082,0
2181,0.09134504774587254,0
2182,0.07849249997227938,0
2183,0.18187980607765483,0
2184,3.068802080096961,0
2185,6.627835797856259,0
2186,-2.296676963370037,0
2187,0.7254627573539763,0
2188,-0.11759281078644337,0
2189,0.13706846520185245,0
2190,0.07492818871799273,0
2191,0.09303670421823236,0
2192,0.10155309003596338,0
2193,0.06135020502263654,0
2194,0.05429008166823203,0
2195,-0.04058783991107889,0
2196,0.020860229497789873,0
2197,-0.06983776173763867,0
2198,-0.08932381899245448,0
2199,-0.012659903615602423,0
2200,0.41598381188717204,0
2201,5.1854847762957315,0
2202,4.214304095827489,0
2203,-2.9083430627856766,0
2204,1.6665467799499945,0
2205,-0.6934006435261457,0
2206,0.39371920982091657,0
2207,0.00954124836845184,0
2208,0.11874174770037987,0
2209,0.12038195814746602,0
2210,0.08509945068859065,0
2211,0.015366976915263862,0
2212,0.04701891776282132,0
2213,0.052789813023114536,0
2214,0.04653197666493278,0
2215,0.0672444020627695,0
2216,0.047761577979193864,0
2217,1.3730702145268325,0
2218,6.834867379597612,0
2219,0.5957850440520148,0
2220,-1.3174239921752966,0
2221,1.0428938359724258,0
2222,-0.4659645537318407,0
2223,0.2212504659286625,0
2224,-0.1177821595771462,0
2225,0.021537430075426002,0
2226,0.05183375684662757,0
2227,0.09022549540779685,0
2228,0.04322038432378977,0
2229,-0.13543173279247506,0
2230,-0.050534163428598566,0
2231,0.04736111328130544,0
2232,-0.07099941115323746,0
2233,0.014827020487645965,0
2234,3.137492914445408,0
2235,6.584585295210972,0
2236,-2.579138644462224,0
2237,0.7439037153492972,0
2238,-0.06408871255550401,0
2239,0.11965003485026857,0
2240,0.0705836265799337,0
2241,-0.04490677764465637,0
2242,0.0891867242633316,0
2243,0.06607491589994605,0
2244,0.028695025636738834,0
2245,0.07004602665337623,0
2246,-0.015496188086380487,0
2247,0.050786851759556224,0
2248,0.09303032933114015,0
2249,0.17434729539101104,0
2250,0.4006200124805614,0
2251,5.198763056023581,0
2252,4.0907205432281115,0
2253,-2.882467720751835,0
2254,1.6294424019338218,0
2255,-0.8550537875148857,0
2256,0.2766049537259084,0
2257,-0.12309099446766039,0
2258,-0.054102623267270236,0
2259,-0.03909031957097841,0
2260,0.006177469165948898,0
2261,0.006894406964677052,0
2262,-0.017192545443809774,0
2263,-0.02268565753110991,0
2264,-0.03072692951881522,0
2265,-0.10709455730000106,0
2266,-0.1117469015187938,0
2267,1.3499588717005306,0
2268,6.782567010217249,0
2269,0.4396552565704484,0
2270,-1.4567426270104928,0
2271,0.9195062909529916,0
2272,-0.4992256728670756,0
2273,0.09180730268174853,0
2274,-0.12657739873475504,0
2275,0.03821398594464356,0
2276,-0.010257657211995466,0
2277,-0.034781772960062726,0
2278,-0.018399381002106696,0
2279,-0.0197694409641513,0
2280,-0.009259633373870934,0
2281,0.016317812928535437,0
2282,-0.07087146832516875,0
2283,-0.014837065365665182,0
2284,3.026736457886753,0
2285,6.502534004293426,0
2286,-2.4391383300397145,0
2287,0.715234630283107,0
2288,-0.20585909075246764,0
2289,0.018827544456211577,0
2290,-0.024801488319195986,0
2291,-0.013521727839011444,0
2292,-0.12844114011616142,0
2293,0.01662888025378991,0
2294,-0.15337796261976328,0
2295,0.010297325812896524,0
2296,-0.054955541343173854,0
2297,-0.11462521659912453,0
2298,-0.040881344326758794,0
2299,-0.025419763383879815,0
2300,0.4119031267239123,0
2301,5.148784912925773,0
2302,4.058217192259812,0
2303,-2.8654369431977336,0
2304,1.6445377428394357,0
2305,-0.8444874962510738,0
2306,0.34228681753233753,0
2307,-0.059902408146155064,0
2308,0.04415373940547698,0
2309,-0.04323655057556386,0
2310,-0.0650080178441047,0
2311,-0.06553186273578746,0
2312,-0.014626408658639775,0
2313,-0.06443900951038647,0
2314,-0.048564509943258165,0
2315,-0.0333664573784187,0
2316,-0.07220706192584338,0
2317,1.3982934499994968,0
2318,6.7365944281846355,0
2319,0.4706650064273479,0
2320,-1.409904950447287,0
2321,0.7863326883197914,0
2322,-0.5936678489988637,0
2323,0.15473916871970178,0
2324,-0.18801846206550676,0
2325,-0.1263115986217673,0
2326,-0.0796267784647848,0
2327,-0.1108691215078006,0
2328,-0.07692393786320936,0
2329,-0.16006369257130926,0
2330,-0.08313679066192178,0
2331,-0.030166454007466162,0
2332,-0.09940712457916362,0
2333,0.023277843292401894,0
2334,3.029399309390857,0
2335,6.527101755000737,0
2336,-2.479965670994288,0
2337,0.6843946775221608,0
2338,-0.25432289737725494,0
2339,0.025529633644435567,0
2340,-0.00810573538167833,0
2341,0.02640933332911999,0
2342,-0.08755800292426213,0
2343,-0.10838321004870993,0
2344,-0.0519122258418426,0
2345,-0.006732898926350097,0
2346,-0.06360883344738642,0
2347,0.15338119358417213,0
2348,0.021565126931739304,0
2349,-0.008859115070905647,0
2350,0.39465285940048433,0
2351,5.2982902598625765,0
2352,4.029612185805785,0
2353,-2.932790007619724,0
2354,1.543404472079842,0
2355,-0.7700524575012739,0
2356,0.37041095062989704,0
2357,-0.12736894071144472,0
2358,0.08313708956019092,0
2359,0.007098203641411421,0
2360,-0.05236183033850999,0
2361,0.011834924726440169,0
2362,0.033437497404834315,0
2363,-0.0657485605856841,0
2364,-0.038216215814389436,0
2365,-0.05562569319969091,0
2366,-0.06509776982264244,0
2367,1.3941698160624045,0
2368,6.737702740977452,0
2369,0.37095677519992454,0
2370,-1.320432673708713,0
2371,0.9169636840761836,0
2372,-0.5127902407721131,0
2373,0.17115059359739695,0
2374,-0.16266074299911462,0
2375,-0.0584508739469836,0
2376,-0.06661146500387508,0
2377,-0.11832941142135182,0
2378,0.09066130336351541,0
2379,0.10386411169835134,0
2380,0.018352339515215824,0
2381,-0.0828982709049279,0
2382,0.0821296067117041,0
2383,0.10835914278939428,0
2384,3.2035789691719536,0
2385,6.528366801451933,0
2386,-2.4329914622262376,0
2387,0.7522149339979103,0
2388,-0.18497563916441467,0
2389,0.1390952130681526,0
2390,-0.016951931026126195,0
2391,-0.027769633165830775,0
2392,-0.08374611240824154,0
2393,0.03841253699890974,0
2394,0.07730607626074201,0
2395,0.0964212306938038,0
2396,0.10754290384621934,0
2397,0.06246543153286993,0
2398,-0.021712466769320447,0
2399,-0.0017310320544218355,0
2400,0.39183513706446166,0
2401,5.2018968675747885,0
2402,3.9565274410734617,0
2403,-2.8183294507036742,0
2404,1.618853407651697,0
2405,-0.75864648245546,0
2406,0.43662427641764723,0
2407,-0.1833932317882368,0
2408,0.07212801851022566,0
2409,0.10002772839707191,0
2410,0.06399354750433517,0
2411,0.07809687900648458,0
2412,0.05899767027937234,0
2413,0.08695164722038279,0
2414,-0.09717808334690586,0
2415,0.021271091490848514,0
2416,0.03417060931237786,0
2417,1.3396907920589554,0
2418,6.8836191040104975,0
2419,0.5530622665626521,0
2420,-1.234416195682977,0
2421,1.0167006720835778,0
2422,-0.363621020374793,0
2423,0.28996615909545764,0
2424,0.0010497907993070425,0
2425,0.14363665397934278,0
2426,0.05619285486256685,0
2427,0.061940424553212886,0
2428,0.19543202686230776,0
2429,0.10227566590136444,0
2430,0.05589844952169394,0
2431,0.18942870235890924,0
2432,0.006593133529234019,0
2433,0.07347299626593995,0
2434,3.1995749862669713,0
2435,6.553149067286569,0
2436,-2.478524177273709,0
2437,0.9659158702283468,0
2438,-0.12759480477477686,0
2439,0.14024901428013986,0
2440,0.0355990397789318,0
2441,0.11235091824500494,0
2442,0.17700655373908766,0
2443,0.021807992549785944,0
2444,0.08819718751016768,0
2445,0.10852638459938307,0
2446,0.03270667500531996,0
2447,0.12045934546089204,0
2448,0.07913369814143564,0
2449,-0.011713015216471723,0
2450,0.3773079794706909,0
2451,5.2958870433368945,0
2452,4.059341188531726,0
2453,-2.8422863846556465,0
2454,1.7235263657285902,0
2455,-0.7503898480495741,0
2456,0.32936059157405906,0
2457,-0.07685684254564024,0
2458,0.10830315141798716,0
2459,0.0274982385789469,0
2460,0.009762898697061387,0
2461,0.023819489973057037,0
2462,0.07001726744284621,0
2463,0.028782398358814826,0
2464,0.07023315312248135,0
2465,0.07189070251248766,0
2466,0.10454989328705153,0
2467,1.4002031176099632,0
2468,6.830527413009556,0
2469,0.41503331710516234,0
2470,-1.2252553082625381,0
2471,0.9517511503562474,0
2472,-0.47622620162181806,0
2473,0.2722868270025254,0
2474,-0.10838520165336105,0
2475,0.07601320423069523,0
2476,0.14227174519480318,0
2477,0.019150765873683057,0
2478,0.19234083366909946,0
2479,0.1175477355448806,0
2480,0.06297412934356464,0
2481,0.12957213371166265,0
2482,0.0793104871123234,0
2483,0.2504223951080262,0
2484,3.321340358418202,0
2485,6.633631022206812,0
2486,-2.389938466885658,0
2487,0.8620223995571737,0
2488,-0.13373658253043885,0
2489,0.17842786287581927,0
2490,0.023075376744227466,0
2491,0.1559794944021107,0
2492,0.10272611208077544,0
2493,0.12118354353865667,0
2494,0.1571431704542729,0
2495,0.13527773156871858,0
2496,0.10867472354071635,0
2497,0.09387827173420767,0
2498,0.11935155980588708,0
2499,0.012352317792970496,0
2500,0.40409471316875045,0
2501,5.336793877015865,0
2502,4.088766201446396,0
2503,-2.8249926584573437,0
2504,1.539880495320777,0
2505,-0.6752736457136268,0
2506,0.3628306368772657,0
2507,-0.07542181822443732,0
2508,0.08001026737717461,0
2509,-0.036084252960939533,0
2510,0.0009744517892144094,0
2511,-0.07706304124170792,0
2512,0.09519716031195952,0
2513,-0.04134189670433516,0
2514,-0.061063374855914135,0
2515,-0.026325766904198036,0
2516,0.04886738903467723,0
2517,1.3318902359860219,0
2518,6.857209045640147,0
2519,0.3553809736782232,0
2520,-1.2679114381916843,0
2521,0.942798880915403,0
2522,-0.465392936948851,0
2523,0.31456939780547993,0
2524,0.016752007688612056,0
2525,0.040024348755299866,0
2526,0.04483166016032811,0
2527,0.05430127551517948,0
2528,0.047798153013854205,0
2529,-0.04628860111828251,0
2530,0.05683725612542386,0
2531,-0.007731838096535347,0
2532,0.015785942293270946,0
2533,0.08776300009061555,0
2534,3.1991487809578563,0
2535,6.5332728996421885,0
2536,-2.4605041037438973,0
2537,0.8862123315770191,0
2538,-0.24042475712905564,0
2539,0.10423499816051346,0
2540,0.05739805352519374,0
2541,0.03307672704673535,0
2542,0.04077932741707183,0
2543,0.011363698647260896,0
2544,-0.026368415818762786,0
2545,0.036518186643514555,0
2546,0.07401167344671118,0
2547,0.05645537062897128,0
2548,0.05817621565792583,0
2549,0.08134181698902726,0
2550,0.47095576513155746,0
2551,5.334505707579642,0
2552,3.950978046776551,0
2553,-2.820932621349787,0
2554,1.665991192845285,0
2555,-0.7183126915966455,0
2556,0.38600052597179974,0
2557,-0.16163117232530466,0
2558,0.000914839529482056,0
2559,0.028266469878142436,0
2560,0.010028852024541172,0
2561,0.021412892549360303,0
2562,0.05865471429746445,0
2563,0.00866193417655518,0
2564,0.05688480024089593,0
2565,0.02997442638167471,0
2566,0.04120499932399052,0
2567,1.354553409892949,0
2568,6.901567641573939,0
2569,0.2640018113651777,0
2570,-1.2875850974508607,0
2571,1.0321024405742134,0
2572,-0.45978701062627786,0
2573,0.19163995082764027,0
2574,-0.07208690893779797,0
2575,-0.07567033114722621,0
2576,0.15416473946746803,0
2577,0.06263221888725366,0
2578,0.04071309870266586,0
2579,0.06627881711246406,0
2580,0.04920092518927509,0
2581,0.04151000518014791,0
2582,-0.04041808121485021,0
2583,0.020280212244265183,0
2584,3.1570250218684635,0
2585,6.489957008587292,0
2586,-2.5015550114645273,0
2587,0.882216126236776,0
2588,-0.2621796040341827,0
2589,0.14857881152701338,0
2590,0.002192762862269923,0
2591,0.06973268643773747,0
2592,0.07570433391549733,0
2593,-0.046179426979933935,0
2594,0.01772406112164767,0
2595,-0.12134722271075828,0
2596,0.02863769293812405,0
2597,-0.01446909291069451,0
2598,-0.029277055176277128,0
2599,-0.03237480860053855,0
2600,0.42665528307857725,0
2601,5.269102029879414,0
2602,3.945253831321198,0
2603,-2.894074056598091,0
2604,1.6538599764142166,0
2605,-0.828782686059084,0
2606,0.4533296463219157,0
2607,-0.048720735464683404,0
2608,0.05620736095172056,0
2609,0.09982379808737148,0
2610,0.2044482452279628,0
2611,0.16341822321288701,0
2612,0.10305573391460537,0
2613,0.22904977139811883,0
2614,0.2030899029059104,0
2615,0.06145937334341423,0
2616,0.01138710601302892,0
2617,1.4102499167165021,0
2618,6.911521242660952,0
2619,0.35048890015804635,0
2620,-1.227214606646735,0
2621,0.967312021140838,0
2622,-0.32016473696596015,0
2623,0.3387244206085973,0
2624,0.023457101521592826,0
2625,0.05406146127436848,0
2626,0.029839351328069474,0
2627,-0.010401972157641836,0
2628,0.08411043554915416,0
2629,0.052349420762685825,0
2630,0.052643133373299095,0
2631,0.044440115281620854,0
2632,0.033003958967113146,0
2633,0.06775534373985906,0
2634,3.1643775472564393,0
2635,6.550185488056532,0
2636,-2.5275147488652125,0
2637,0.8971914172465434,0
2638,-0.18913225741656972,0
2639,0.06197038729159165,0
2640,0.011770954551323454,0
2641,0.15301806737101553,0
2642,0.1428096800254268,0
2643,0.08332570926469476,0
2644,0.13631634824640237,0
2645,0.11527820128266719,0
2646,0.09144233474841935,0
2647,0.014344471139518672,0
2648,-0.0026230670283527713,0
2649,0.02134956837382207,0
2650,0.6332414520743681,0
2651,5.389212105085458,0
2652,3.9784155365859513,0
2653,-2.838686646919041,0
2654,1.5867665272081408,0
2655,-0.6997333942330008,0
2656,0.3146387303721051,0
2657,-0.013732988526258011,0
2658,0.03194383847862187,0
2659,-0.04569214820401643,0
2660,-0.020573843139201554,0
2661,0.04923832758430024,0
2662,0.05935810429907365,0
2663,0.030179119247579773,0
2664,-0.012493472014778552,0
2665,0.009731003670656234,0
2666,0.11788169390148136,0
2667,1.4213712495687436,0
2668,6.902180907334021,0
2669,0.41072727578064694,0
2670,-1.160416891204665,0
2671,0.9042382031731026,0
2672,-0.4002794227012035,0
2673,0.24843723182994237,0
2674,-0.04429341711450285,0
2675,0.1979166492865306,0
2676,0.15833942104675985,0
2677,0.17489914385296773,0
2678,0.10269050113841416,0
2679,0.04190951961201044,0
2680,0.005428302517569698,0
2681,-0.014238567649641667,0
2682,0.07753061274684866,0
2683,0.07174690775500348,0
2684,3.25815045501489,0
2685,6.447883750424189,0
2686,-2.443697267212084,0
2687,0.9712683686873044,0
2688,-0.16362163296860785,0
2689,0.186022788581453,0
2690,-0.007285045996562392,0
2691,0.12718188775337716,0
2692,0.0688102975373246,0
2693,0.0058732552084868675,0
2694,0.05131171158853999,0
2695,0.1853514900464555,0
2696,0.059450963604846446,0
2697,0.12788209794691904,0
2698,0.06120650983907722,0
2699,0.15554655626241193,0
2700,0.5592057208792826,0
2701,5.3840068684441205,0
2702,3.9620820148217843,0
2703,-2.661348483536754,0
2704,1.6750113302007372,0
2705,-0.7395482420986775,0
2706,0.40474511848546935,0
2707,-0.0895873462989743,0
2708,0.1321646897378865,0
2709,0.09164201753650827,0
2710,0.09805335949626337,0
2711,0.18470311428644887,0
2712,0.04813235318174161,0
2713,0.04048331409470883,0
2714,0.07526167298543614,0
2715,0.06567261966044662,0
2716,0.06733795169324507,0
2717,1.47587117690483,0
2718,6.926155962066815,0
2719,0.3096204731104694,0
2720,-1.2278023097330075,0
2721,0.9206960680855758,0
2722,-0.44303753852420324,0
2723,0.38109738996268866,0
2724,-0.06630412775330444,0
2725,0.08915938969460807,0
2726,0.09963930524259468,0
2727,-0.0017079693137408078,0
2728,0.044449118220494556,0
2729,0.004892859993042016,0
2730,0.13015050988599092,0
2731,0.09262751447372725,0
2732,0.03051597439567101,0
2733,0.03966765647519896,0
2734,3.2828460506154626,0
2735,6.569209035385575,0
2736,-2.494181151753131,0
2737,0.9792547034725763,0
2738,-0.16530647888201744,0
2739,0.22734413452585528,0
2740,-0.013863520862681743,0
2741,0.07360296533005317,0
2742,0.05284159106759269,0
2743,0.1171195782086675,0
2744,0.07997014773511135,0
2745,0.09800759896697388,0
2746,0.17073531327569166,0
2747,0.1056489912980334,0
2748,0.07231416183999662,0
2749,0.07968737253518568,0
2750,0.4875199155454157,0
2751,5.387756486457277,0
2752,3.8254375253666844,0
2753,-2.711051613240158,0
2754,1.6636105832505557,0
2755,-0.7297180885549749,0
2756,0.41360400876020426,0
2757,-0.02908744130682779,0
2758,0.04409752263578538,0
2759,0.009440271100037034,0
2760,0.12192531509467253,0
2761,0.06256557793785089,0
2762,0.058919431402342515,0
2763,0.02473181373575272,0
2764,0.002392865027630961,0
2765,0.06591196418959783,0
2766,-0.015876287932424633,0
2767,1.485862170490729,0
2768,6.877973851586617,0
2769,0.2946099930556564,0
2770,-1.2020928113292415,0
2771,1.0140625678097885,0
2772,-0.3696644771303255,0
2773,0.2352785028677074,0
2774,-0.0023405759942251216,0
2775,0.06900526030512426,0
2776,0.08637906008529679,0
2777,0.05415355839152763,0
2778,-0.0013803870459873357,0
2779,0.0653268654139122,0
2780,0.07476137490747398,0
2781,-0.05483800381761927,0
2782,0.1435909416916242,0
2783,0.0899753607685565,0
2784,3.19703502433653,0
2785,6.562617402738652,0
2786,-2.557404112682932,0
2787,0.9245905618979965,0
2788,-0.260399369672734,0
2789,0.039968978742723205,0
2790,-0.04323607642013571,0
2791,0.1247480399885917,0
2792,0.051654985862735335,0
2793,0.06851937031125266,0
2794,0.03318614265295517,0
2795,0.021335814915798473,0
2796,0.1110093722639879,0
2797,0.19494536507405846,0
2798,0.10905622432380258,0
2799,0.16019613290294835,0
2800,0.6080797375634621,0
2801,5.519814877420769,0
2802,3.980010585038244,0
2803,-2.6873444144113865,0
2804,1.6576742762395213,0
2805,-0.7638496791751842,0
2806,0.44342132984780847,0
2807,-0.061646826697623364,0
2808,0.18433070531271545,0
2809,0.077335945459481,0
2810,0.08738528490572288,0
2811,0.05473836959331672,0
2812,0.06852045437875541,0
2813,0.06721358606517848,0
2814,-0.030481196756379052,0
2815,0.11017885947559483,0
2816,0.0115876517117431,0
2817,1.3617660197549504,0
2818,6.885374173817374,0
2819,0.14872939814634653,0
2820,-1.173073107451863,0
2821,0.939475300531025,0
2822,-0.3776199638496319,0
2823,0.24810726116992654,0
2824,0.03246121119914427,0
2825,0.14812752163923631,0
2826,0.11012933330713903,0
2827,0.0952538086351084,0
2828,0.0420434490982187,0
2829,0.03333018650275497,0
2830,0.06197965901941396,0
2831,0.0734544288461583,0
2832,0.004925987665033009,0
2833,0.040499487444590386,0
2834,3.186240507566296,0
2835,6.39831872784453,0
2836,-2.4537223224274265,0
2837,0.8427083725146665,0
2838,-0.2831695395121818,0
2839,0.08504830471118115,0
2840,-0.05852671934615219,0
2841,0.05415545106345416,0
2842,0.007060854760100834,0
2843,0.0066600378420076595,0
2844,-0.03497611953328843,0
2845,0.029878276516882935,0
2846,0.10933570497932849,0
2847,0.04846390104892907,0
2848,0.023609428721280995,0
2849,-0.04351081419837271,0
2850,0.5532894626601186,0
2851,5.4373708956726094,0
2852,3.9121548912423973,0
2853,-2.720439898143621,0
2854,1.604829351407068,0
2855,-0.733217182101793,0
2856,0.4947116794622406,0
2857,-0.09175958007923604,0
2858,0.0924743788644518,0
2859,0.09344243469846114,0
2860,0.0997518502500505,0
2861,0.05815684967935338,0
2862,0.013712337039356308,0
2863,0.039554738971313536,0
2864,-0.082673387970044,0
2865,0.04531348735321004,0
2866,0.08957136427214255,0
2867,1.53569621718902,0
2868,7.028284280349903,0
2869,0.08304400451921261,0
2870,-1.0676388799101852,0
2871,0.7765665759621962,0
2872,-0.45202074915026363,0
2873,0.29833331362276705,0
2874,0.01773043123775437,0
2875,0.11225306421364911,0
2876,-0.0030657006185753413,0
2877,0.052073379353705575,0
2878,0.11178796760901809,0
2879,0.11176158679045467,0
2880,0.1030771065762971,0
2881,0.08788650012144977,0
2882,0.1044104341138554,0
2883,0.14299571697264113,0
2884,3.3217991410322414,0
2885,6.434310198265738,0
2886,-2.448510591452561,0
2887,0.9870979046308324,0
2888,-0.15167763875949442,0
2889,0.13349501754209872,0
2890,0.11665430915756336,0
2891,0.04625142994772714,0
2892,0.043217369783653335,0
2893,-0.007608394084586535,0
2894,0.11764054310515756,0
2895,-0.07111775811632137,0
2896,0.04286847371186075,0
2897,-0.01385156547893942,0
2898,-0.01151984703120311,0
2899,0.014985702085888212,0
2900,0.4353496319912128,0
2901,5.440955355993709,0
2902,3.858150334986608,0
2903,-2.8275444604553086,0
2904,1.6207471726053646,0
2905,-0.7739480479123239,0
2906,0.366384114656668,0
2907,-0.0809049829730836,0
2908,0.0057087777066313905,0
2909,0.09540482694130456,0
2910,0.09393217218467396,0
2911,0.1007744682783718,0
2912,0.07157416340852804,0
2913,0.03440522601583152,0
2914,0.09542703657233026,0
2915,0.05748705118503965,0
2916,0.04322732513792544,0
2917,1.5212935817661195,0
2918,6.930615050901049,0
2919,0.23875727383876913,0
2920,-1.033489342163326,0
2921,0.914897609500139,0
2922,-0.3873308287552824,0
2923,0.26277726301242554,0
2924,0.06384055033688574,0
2925,0.10992032879496397,0
2926,0.0699539091343019,0
2927,0.06858756167083563,0
2928,0.12723781923503513,0
2929,0.14872543560290766,0
2930,0.07025983899340853,0
2931,0.11405318850433226,0
2932,0.12645058532009415,0
2933,0.22362805823949677,0
2934,3.410993751611345,0
2935,6.518457995090191,0
2936,-2.3695970233194097,0
2937,1.1005531758146399,0
2938,-0.19336185197794736,0
2939,0.18467551167616755,0
2940,0.08760153662882358,0
2941,0.17032207511650793,0
2942,0.11161119777477801,0
2943,0.04985236500266807,0
2944,0.22880989736456506,0
2945,0.02810560922538169,0
2946,0.022754275149323502,0
2947,0.08510644180755318,0
2948,0.04992409749500716,0
2949,0.040703539774557256,0
2950,0.5738077936947744,0
2951,5.4317850344260155,0
2952,3.791512877514776,0
2953,-2.704143373289171,0
2954,1.5984081946201427,0
2955,-0.7549069652434284,0
2956,0.44310128514379016,0
2957,-0.06922438537061254,0
2958,0.02143774494928702,0
2959,0.08577449757960896,0
2960,0.03525058646739885,0
2961,-0.011179677327512044,0
2962,0.06519672590110608,0
2963,0.009086398902089579,0
2964,0.07232840048193837,0
2965,0.07116136964134634,0
2966,0.10550015995017908,0
2967,1.380544485196395,0
2968,6.899354944812122,0
2969,0.1995054046235792,0
2970,-1.1401052123420625,0
2971,0.8778294792474033,0
2972,-0.41021267842061465,0
2973,0.16487085695787643,0
2974,-0.028112727917459564,0
2975,-0.019197502430207347,0
2976,0.04930446122545204,0
2977,0.010971679313570397,0
2978,0.008573202407520963,0
2979,0.05110908267877171,0
2980,0.05254722307759708,0
2981,-0.03811810435679563,0
2982,0.06810635820644904,0
2983,0.07466963535676815,0
2984,3.2473650369912104,0
2985,6.480642905934947,0
2986,-2.6805263511294823,0
2987,0.9039057107772352,0
2988,-0.25137649756161856,0
2989,0.08151474727790242,0
2990,-0.028771889517126434,0
2991,0.043178534804984535,0
2992,-0.020954689523216455,0
2993,0.01331560425639423,0
2994,-0.046206766810121716,0
2995,0.002676144976143626,0
2996,-0.04371884973655861,0
2997,0.000135991799503115,0
2998,0.07716880775227619,0
2999,0.020906981952100872,0
3000,0.4714311241445243,0
3001,5.473906227192279,0
3002,3.7869009882057414,0
3003,-2.714627513752598,0
3004,1.6396116099998226,0
3005,-0.7114077138114002,0
3006,0.40507557726214644,0
3007,-0.0431628194635653,0
3008,0.0713494650454609,0
3009,0.03258421940155921,0
3010,0.033647704693198666,0
3011,0.046164654673965376,0
3012,-0.06162445683946223,0
3013,0.019868384107311947,0
3014,0.0843205974088882,0
3015,-0.057192995842324616,0
3016,0.016491896781812596,0
3017,1.4384698248588188,0
3018,6.91676103258729,0
3019,0.15697442939551517,0
3020,-1.05790178284262,0
3021,0.9112239075111036,0
3022,-0.31670163787387273,0
3023,0.1745829852704037,0
3024,-0.01973762466683504,0
3025,-0.059140522058421116,0
3026,0.058184976372440314,0
3027,0.10145133326867897,0
3028,-0.00015950443200245246,0
3029,0.04996085790328516,0
3030,0.013457162225010613,0
3031,-0.007466125236332825,0
3032,0.037607969719504954,0
3033,0.15447038267246396,0
3034,3.3551832609207874,0
3035,6.472566448698256,0
3036,-2.5193250285247095,0
3037,0.9384622303063253,0
3038,-0.24865391691135416,0
3039,0.11772486367605547,0
3040,-0.03663681874823081,0
3041,-0.0012640793071033163,0
3042,0.05639032321251812,0
3043,0.01743944351576168,0
3044,-0.019141024780820443,0
3045,0.11666650339710766,0
3046,-0.04472616201414201,0
3047,0.05620040703039877,0
3048,-0.023297906475274296,0
3049,0.011584707604364917,0
3050,0.3795257464572426,0
3051,5.461693337167047,0
3052,3.776736308027387,0
3053,-2.697809016570698,0
3054,1.6309497437212086,0
3055,-0.8538381118140481,0
3056,0.3403540079254751,0
3057,-0.023531022233310064,0
3058,0.02245548620238165,0
3059,-0.026116631169407087,0
3060,0.0761689668914926,0
3061,0.07673057348183765,0
3062,0.04380848288825559,0
3063,0.05033330147510527,0
3064,-0.002227034866261652,0
3065,-0.049587240598116596,0
3066,0.025729108557241125,0
3067,1.4704096543052565,0
3068,6.947857681532294,0
3069,0.14382378004435875,0
3070,-1.1001767729515946,0
3071,0.8557062429075326,0
3072,-0.3216144296558785,0
3073,0.18983613370304195,0
3074,-0.05149763602187439,0
3075,0.0014207785189678523,0
3076,0.04493612350770736,0
3077,0.05871455294996447,0
3078,-0.007485891191451172,0
3079,0.020086966950665457,0
3080,0.14869107702091566,0
3081,0.07939272324886282,0
3082,0.19132940143632568,0
3083,0.15020344376045208,0
3084,3.348571942011378,0
3085,6.371475500416376,0
3086,-2.5894165808516254,0
3087,1.003028024867138,0
3088,-0.2959458760367404,0
3089,0.10281996604117098,0
3090,-0.06802492445759373,0
3091,0.028913874917509304,0
3092,-0.06143970613054647,0
3093,0.02944843970550938,0
3094,0.022001728704376253,0
3095,-0.02818171776757379,0
3096,0.06344402986242975,0
3097,0.03999545284959244,0
3098,0.0223853369879455,0
3099,0.007133794121915567,0
3100,0.4421168588498547,0
3101,5.5509972969079255,0
3102,3.719766168810654,0
3103,-2.7800347843431976,0
3104,1.6103145479061887,0
3105,-0.7093283399496264,0
3106,0.4122939348734076,0
3107,-0.09486585850892763,0
3108,0.17391251310096384,0
3109,0.09775922587761014,0
3110,0.036023105751461316,0
3111,-0.018090658436919434,0
3112,0.03191204718532887,0
3113,0.03664296835073254,0
3114,0.03907069621068151,0
3115,0.04982613535179985,0
3116,0.031502972665183746,0
3117,1.5238852264590632,0
3118,6.974254530747107,0
3119,0.1361192925373643,0
3120,-0.9936331203703974,0
3121,0.9955092246200625,0
3122,-0.2776879481304654,0
3123,0.2978601161987988,0
3124,0.04286302993853607,0
3125,0.15253421338117729,0
3126,0.049815464638097426,0
3127,0.0952060610018928,0
3128,0.02569585952364495,0
3129,-0.006991866003126845,0
3130,0.03484612793916063,0
3131,-0.029037829657867845,0
3132,0.08020483677047319,0
3133,0.1928296791058867,0
3134,3.35734610306568,0
3135,6.42301350347446,0
3136,-2.5666468485184226,0
3137,0.9379493127535865,0
3138,-0.24796922121667084,0
3139,0.1426173397846036,0
3140,-0.08778849368355805,0
3141,0.10051726861394297,0
3142,0.10515794205558948,0
3143,0.07662926325655187,0
3144,-0.027616800321696,0
3145,-0.032631531104054916,0
3146,0.12425619988938023,0
3147,0.03186434256840885,0
3148,0.08555364815448202,0
3149,0.07710027366563088,0
3150,0.5345984834637488,0
3151,5.5768950755498965,0
3152,3.7060848655911838,0
3153,-2.7081057015609424,0
3154,1.7126044364060284,0
3155,-0.764589563206667,0
3156,0.4846403163804674,0
3157,-0.0867468042271539,0
3158,0.007309243052342665,0
3159,0.023654417841348738,0
3160,0.14826915446824912,0
3161,0.02809414546696628,0
3162,0.01049702273536577,0
3163,0.07115668778725254,0
3164,0.10874277962709095,0
3165,0.013361782504320612,0
3166,0.07358926164409606,0
3167,1.6209408361659554,0
3168,6.89497267568347,0
3169,0.08795389449958298,0
3170,-1.0951726115129437,0
3171,0.9224882112962662,0
3172,-0.37463376297555573,0
3173,0.2452472565491125,0
3174,-0.037851297492817945,0
3175,0.00836862154612792,0
3176,-0.02073356414774624,0
3177,0.11276395847493245,0
3178,-0.02230080511502875,0
3179,-0.040953487656559,0
3180,0.0006021627058306299,0
3181,0.03395574038036465,0
3182,0.17625693814789917,0
3183,0.16075197082805098,0
3184,3.338373301252189,0
3185,6.332973026583425,0
3186,-2.6117609914272335,0
3187,1.0261387370202568,0
3188,-0.31998040718606097,0
3189,0.15864650393612303,0
3190,-0.0473407128383905,0
3191,0.09842722506336382,0
3192,0.0007130119548318589,0
3193,0.03484925300906171,0
3194,0.02683033029113798,0
3195,0.050310560862440144,0
3196,0.04540020277599144,0
3197,0.11696007131714298,0
3198,0.08555813913847683,0
3199,0.058741838318219636,0
3200,0.6042760262147764,0
3201,5.56528469585759,0
3202,3.7069144546482975,0
3203,-2.7044462760606627,0
3204,1.7069244961618135,0
3205,-0.6434675677554181,0
3206,0.3864340926112919,0
3207,-0.11895737526426961,0
3208,0.06477661717129429,0
3209,0.07577568490970932,0
3210,0.047295217352929006,0
3211,-0.0123645060096984,0
3212,0.01865250973753447,0
3213,0.032244503887424204,0
3214,0.03367158492637339,0
3215,0.0034568181354682967,0
3216,-0.02519525848547567,0
3217,1.5805349449831825,0
3218,6.871832776783068,0
3219,-0.011656813396709653,0
3220,-1.0305768379033264,0
3221,0.812312930450029,0
3222,-0.4172314705458855,0
3223,0.16018295375595643,0
3224,-0.07592022989335448,0
3225,-0.00762038517267289,0
3226,-0.07514367406043553,0
3227,0.08293849005493455,0
3228,0.024213633720330786,0
3229,0.024211916781635267,0
3230,-0.007012860039054325,0
3231,0.071942686522718,0
3232,0.11396547606308585,0
3233,0.04459698688255678,0
3234,3.4710675148656573,0
3235,6.43037071121852,0
3236,-2.541248305016836,0
3237,0.9861543467907127,0
3238,-0.3522054635942945,0
3239,0.06609802244921928,0
3240,-0.07797579120546991,0
3241,0.06331476091181688,0
3242,0.015030085878021411,0
3243,0.05876157760002869,0
3244,0.11589103453695268,0
3245,0.10298473492308646,0
3246,0.04087638556213088,0
3247,0.18089525898289965,0
3248,0.11516695061486783,0
3249,0.11725565803056559,0
3250,0.6217732155333836,0
3251,5.567167719657684,0
3252,3.7571502533691232,0
3253,-2.6538350198178184,0
3254,1.630527534042377,0
3255,-0.7585845090805141,0
3256,0.39549733356495975,0
3257,-0.0547452421543666,0
3258,0.10851195133742172,0
3259,0.0017261576247324384,0
3260,-0.0009807970017326056,0
3261,0.06992871059410738,0
3262,0.12924692842594343,0
3263,0.0834867394737526,0
3264,0.09675810165652136,0
3265,0.1498380903633641,0
3266,0.06990044970700017,0
3267,1.5674427061614278,0
3268,6.922278194102883,0
3269,0.06398943215432928,0
3270,-1.0289694067983521,0
3271,0.8287181698221455,0
3272,-0.3510775314725765,0
3273,0.2537360924005906,0
3274,0.00871536086126156,0
3275,0.10389078821638303,0
3276,0.11507775385808675,0
3277,0.1471588404735396,0
3278,0.033410980118777855,0
3279,0.019334961488020753,0
3280,0.09615828242128802,0
3281,0.03728476247674209,0
3282,0.08943154282252225,0
3283,0.14170990965096314,0
3284,3.401112243130362,0
3285,6.334893625114763,0
3286,-2.653169431880591,0
3287,0.960989773522856,0
3288,-0.24334347406881845,0
3289,0.16610526249091487,0
3290,0.09895583822636528,0
3291,0.12589141203963186,0
3292,-0.0017664435835853462,0
3293,0.07553843447896899,0
3294,0.048807045385516605,0
3295,0.08511342863450985,0
3296,0.08256541019673697,0
3297,0.0628291804496493,0
3298,0.011256493737739862,0
3299,0.0782813887428152,0
3300,0.560226055567562,0
3301,5.503668354576595,0
3302,3.702343705591007,0
3303,-2.6701101303172017,0
3304,1.613192606977577,0
3305,-0.6838917975331043,0
3306,0.46091111625205244,0
3307,-0.05801327698974905,0
3308,0.1849442826398748,0
3309,0.06156831501127827,0
3310,0.08730143096114171,0
3311,0.10640514199099217,0
3312,0.09563220944882958,0
3313,0.17021443000138017,0
3314,0.13419065383661435,0
3315,0.0835377169927769,0
3316,0.1569833924299432,0
3317,1.6332534027432406,0
3318,6.965780163341629,0
3319,0.06541692091924883,0
3320,-0.9762049561791485,0
3321,0.9496951580347498,0
3322,-0.3371461488113383,0
3323,0.2013916271670425,0
3324,0.0410639842313802,0
3325,0.019470086258826402,0
3326,0.07752885632452833,0
3327,0.005306904416549747,0
3328,0.07429992769426295,0
3329,-0.006646290091141552,0
3330,0.10614859814009424,0
3331,0.12458520573285208,0
3332,0.020801392454936195,0
3333,0.1757695748519899,0
3334,3.355971786336888,0
3335,6.292403406663139,0
3336,-2.599854949423252,0
3337,1.0152822131019958,0
3338,-0.3420949285703565,0
3339,0.12355167192013752,0
3340,-0.0007828090269893125,0
3341,0.06992053059026893,0
3342,0.10462248930059619,0
3343,0.07071612405200817,0
3344,0.05199088118354001,0
3345,0.08044812096152457,0
3346,0.14320896080484183,0
3347,0.0952508625616672,0
3348,0.046017712639746945,0
3349,0.13503573937735658,0
3350,0.5925561451111406,0
3351,5.623382140261241,0
3352,3.6675552500920445,0
3353,-2.651553913643897,0
3354,1.644817695017578,0
3355,-0.7377406865163805,0
3356,0.4699716574711986,0
3357,-0.02288998322380255,0
3358,0.11368489705798365,0
3359,0.04775859749631015,0
3360,0.09327703931421366,0
3361,0.067438241746371,0
3362,0.08049676639831746,0
3363,0.082557137479705,0
3364,0.029589822587342548,0
3365,0.05636194999849255,0
3366,0.0005961200769320427,0
3367,1.5577437313702627,0
3368,6.965252042704671,0
3369,-0.035835157931416,0
3370,-1.02539017905179,0
3371,0.8716054505329274,0
3372,-0.4181462768557153,0
3373,0.1631655740882829,0
3374,-0.0835484674718946,0
3375,0.08602842210081507,0
3376,0.11556064730963875,0
3377,0.028596068867155468,0
3378,0.02929948012898472,0
3379,0.10034394392593914,0
3380,0.0879002647612195,0
3381,0.08189169198110724,0
3382,0.03707261437739659,0
3383,0.20268703596410126,0
3384,3.511476437650111,0
3385,6.477671236240722,0
3386,-2.5382158490680595,0
3387,1.0526300512665052,0
3388,-0.17099309794102688,0
3389,0.0792839613462533,0
3390,0.005764073993379901,0
3391,-0.0013994843281443653,0
3392,0.005814267794315698,0
3393,0.055413396593714484,0
3394,-0.054589915375969515,0
3395,0.040625816952570504,0
3396,0.07419737510940037,0
3397,-0.046342922467419334,0
3398,0.038045645482617255,0
3399,-0.004862544505589083,0
3400,0.5558991108292523,0
3401,5.525095561983724,0
3402,3.590925704368062,0
3403,-2.6953695085844145,0
3404,1.6094554937862506,0
3405,-0.7272946683133046,0
3406,0.33411550039728893,0
3407,-0.19389228594328128,0
3408,0.009635835764812826,0
3409,-0.10508991603502346,0
3410,0.08199709173892523,0
3411,-0.008646724224308702,0
3412,-0.011046235958413475,0
3413,0.09825997975220728,0
3414,-0.005533126038040455,0
3415,0.009147486753989399,0
3416,-0.03946163864145077,0
3417,1.6399570215737935,0
3418,6.925956890360646,0
3419,-0.08241511293382514,0
3420,-0.9370005500364347,0
3421,0.8430013824738076,0
3422,-0.3849312030164711,0
3423,0.08429061574586649,0
3424,-0.07694366468292113,0
3425,0.06609049735128346,0
3426,0.0748529078440058,0
3427,0.07276698122162341,0
3428,-0.059458999143755145,0
3429,0.01766833729586327,0
3430,0.08677441638700896,0
3431,-0.01788923648521174,0
3432,-0.0006760361529270578,0
3433,0.0741274751634182,0
3434,3.3380931420704196,0
3435,6.238669336229305,0
3436,-2.637215674299538,0
3437,0.9582668096423302,0
3438,-0.3797137456542568,0
3439,0.06107677630282979,0
3440,-0.1255433641143193,0
3441,0.049069587344215834,0
3442,-0.04611918521908688,0
3443,-0.038147385749377836,0
3444,-0.09469516058322086,0
3445,-0.04504799606045912,0
3446,0.08007077585891409,0
3447,0.03329004106371323,0
3448,-0.0765125831969142,0
3449,0.0640072304693298,0
3450,0.5735389029503684,0
3451,5.480400894183979,0
3452,3.538902708534845,0
3453,-2.7824522329449644,0
3454,1.5467884787672581,0
3455,-0.8597771690417064,0
3456,0.26716537178057104,0
3457,-0.15405466188951214,0
3458,-0.04850033830626489,0
3459,-0.08410143419732441,0
3460,-0.07642002791187613,0
3461,-0.12157369399176321,0
3462,-0.021639844855851666,0
3463,-0.0461215074206961,0
3464,-0.05868383214939907,0
3465,-0.026184314794842563,0
3466,0.021436554051339547,0
3467,1.4413797980738532,0
3468,6.867421773745014,0
3469,-0.15960324079202426,0
3470,-0.9952289281686143,0
3471,0.7892672071041761,0
3472,-0.40792783858060827,0
3473,0.18193513556756086,0
3474,-0.03741102496196975,0
3475,-0.02808007860681761,0
3476,-0.01505574798162683,0
3477,-0.02836740457757558,0
3478,-0.0231391063639972,0
3479,0.02486442489195286,0
3480,0.05245285845291367,0
3481,-0.019595112609280232,0
3482,-0.08447840875192833,0
3483,0.1355512507339824,0
3484,3.45103190073044,0
3485,6.378200432841775,0
3486,-2.74738404095654,0
3487,0.9568133837253648,0
3488,-0.39528714999316195,0
3489,0.0945316846853998,0
3490,-0.022075508443629568,0
3491,0.03498578436131467,0
3492,0.0811395677098223,0
3493,0.06533923772869211,0
3494,0.0029486335640793865,0
3495,0.1180508042591425,0
3496,-0.01705979329841071,0
3497,0.06925904554739656,0
3498,0.10131293033534217,0
3499,0.10195912137335049,0
3500,0.5416855214983349,0
3501,5.5837156580137215,0
3502,3.5352937519041863,0
3503,-2.7068884033287337,0
3504,1.5209570130758165,0
3505,-0.7326426446938121,0
3506,0.38059405126715284,0
3507,-0.15519346090617775,0
3508,0.04078514117831309,0
3509,-0.008917827665347334,0
3510,0.05558794263604443,0
3511,-0.052093312695312005,0
3512,-0.037073625488915504,0
3513,-0.11939054791127666,0
3514,-0.029613907344226986,0
3515,-0.020292728712910685,0
3516,0.028675646956784255,0
3517,1.6221478535061937,0
3518,6.87971202967263,0
3519,-0.25410728170272323,0
3520,-1.0111593648188313,0
3521,0.7731157264182125,0
3522,-0.4222695504597894,0
3523,0.11993019821447151,0
3524,-5.338616952087899e-05,0
3525,0.008789487870234078,0
3526,0.06750314896635425,0
3527,-0.0010486452591621162,0
3528,-0.010635123966620679,0
3529,-0.08964778361733408,0
3530,-0.09091722470002325,0
3531,0.010314460895923425,0
3532,-0.045130456594051245,0
3533,0.13692592935403214,0
3534,3.352508353604485,0
3535,6.319480860123691,0
3536,-2.8266779359784286,0
3537,1.1128026232222663,0
3538,-0.3539606130438723,0
3539,0.19510528897445498,0
3540,-0.1055520760863426,0
3541,-0.013298988525248256,0
3542,0.05571500931880209,0
3543,0.015451677036266528,0
3544,-0.038117320088019484,0
3545,0.1464210571019466,0
3546,-0.03471532695079754,0
3547,0.07271129734637174,0
3548,-0.047583353174570055,0
3549,-0.002280702410620436,0
3550,0.5563583032908688,0
3551,5.611601341929941,0
3552,3.5187560238317745,0
3553,-2.742546777890619,0
3554,1.5625895381256605,0
3555,-0.7569714858333221,0
3556,0.36418203155575396,0
3557,-0.09894114084253122,0
3558,0.02180568219051566,0
3559,0.08554983858581816,0
3560,0.057633929432398756,0
3561,0.09335289098084115,0
3562,0.060836838488791484,0
3563,0.008774322247101654,0
3564,-0.03038895080620512,0
3565,-0.002475180790645388,0
3566,0.1355206358250633,0
3567,1.619733818947874,0
3568,6.894504838622725,0
3569,-0.18026963687638975,0
3570,-0.995573974110651,0
3571,0.7704373616732358,0
3572,-0.35459631532598285,0
3573,0.13290392567322792,0
3574,-0.08801800384165806,0
3575,0.08875478727449582,0
3576,0.04843050089341358,0
3577,0.03459207384669407,0
3578,0.05620043718620951,0
3579,0.021271198736701122,0
3580,0.05865143345744003,0
3581,-0.04152316919039803,0
3582,-0.0009630321167872422,0
3583,0.10857591233347819,0
3584,3.4216076131539825,0
3585,6.269759344865012,0
3586,-2.656031722438145,0
3587,1.0183869325865245,0
3588,-0.33107685719189817,0
3589,0.16222222544153814,0
3590,-0.06268054309956708,0
3591,0.05380588159879722,0
3592,0.07138001400982562,0
3593,0.09321184188396729,0
3594,0.08802537485078873,0
3595,0.0193808112897029,0
3596,0.031796092408684626,0
3597,0.07797242744708141,0
3598,0.07875257892986072,0
3599,0.08050042330353335,0
3600,0.5316881025155977,0
3601,5.6244678088140825,0
3602,3.585970909990966,0
3603,-2.683750390913961,0
3604,1.5054720615244255,0
3605,-0.8660339390259616,0
3606,0.4636457012377305,0
3607,-0.08179671853000108,0
3608,-0.06278036653095011,0
3609,-0.1040611695121759,0
3610,-0.04276463453391566,0
3611,-0.035086347488143786,0
3612,-0.016068373637821858,0
3613,-0.05568301001590978,0
3614,-0.058275405509035025,0
3615,0.01037496071818397,0
3616,0.0352942665529921,0
3617,1.6205201386138153,0
3618,6.859315048215464,0
3619,-0.21046085170851359,0
3620,-0.8474120217344654,0
3621,0.8859702386528466,0
3622,-0.2551182473785528,0
3623,0.1936311277551702,0
3624,0.05200424307037683,0
3625,0.08330529201661938,0
3626,0.04721665401435445,0
3627,0.007656142974537164,0
3628,0.026385473834788883,0
3629,0.00786501762893247,0
3630,-0.027868848348629252,0
3631,0.03677205597003711,0
3632,0.09005747373033611,0
3633,0.14533654807926458,0
3634,3.4187632606267933,0
3635,6.292741800960177,0
3636,-2.775079573709038,0
3637,1.0738043840608955,0
3638,-0.3588856841508319,0
3639,0.1432441223128006,0
3640,-0.09102763463040917,0
3641,0.014338877242882419,0
3642,0.0013554997442599267,0
3643,-0.006335484095107525,0
3644,-0.09689495819759616,0
3645,0.008131304096506763,0
3646,-0.00030501317513442197,0
3647,0.03763993851582197,0
3648,0.04182182907881356,0
3649,-0.011604077327945493,0
3650,0.5400191993668307,0
3651,5.555897272594675,0
3652,3.403551807530119,0
3653,-2.7111297684109026,0
3654,1.5813078878595728,0
3655,-0.8255663632535236,0
3656,0.3587894642716983,0
3657,-0.16120117180872862,0
3658,0.04123922211788028,0
3659,0.02753541845578405,0
3660,-0.0791228462514634,0
3661,0.013804578536061719,0
3662,-0.06001522640417767,0
3663,-0.04441798273461584,0
3664,-0.002181816649200599,0
3665,0.09251296989970766,0
3666,0.03221036502055357,0
3667,1.6082135115435556,0
3668,6.916206805072596,0
3669,-0.17288944707757,0
3670,-0.8571860122350592,0
3671,0.8122261244255298,0
3672,-0.36616132337859514,0
3673,0.15957242652111978,0
3674,-0.047968686469976936,0
3675,0.06532534275878613,0
3676,0.08115791396577501,0
3677,0.1363607996765031,0
3678,-0.13406882229276307,0
3679,0.044561135685291776,0
3680,-0.05628133716502975,0
3681,-0.02765950751961898,0
3682,0.03712014039772831,0
3683,0.040568144219356186,0
3684,3.518743899327543,0
3685,6.26368801882451,0
3686,-2.6983018879204015,0
3687,1.0922243409070276,0
3688,-0.290565120572652,0
3689,0.18785570251324862,0
3690,-0.002186483521708603,0
3691,0.07748144506939707,0
3692,0.005151208135617882,0
3693,0.17968891587351848,0
3694,0.09928272506066915,0
3695,0.13648283358489696,0
3696,0.13937453878959064,0
3697,0.07719005917049168,0
3698,0.14187909611041266,0
3699,0.12118888231312994,0
3700,0.5585497426129223,0
3701,5.751338740301795,0
3702,3.5035916566596437,0
3703,-2.5994565184931293,0
3704,1.639208895672399,0
3705,-0.7363150284973503,0
3706,0.3952838069370328,0
3707,-0.017279105331106923,0
3708,0.13187298948960768,0
3709,-0.0305201697805813,0
3710,0.08623380716669451,0
3711,0.07094370378174347,0
3712,0.06448311001609716,0
3713,-0.07234409542554382,0
3714,0.018114091060264938,0
3715,0.0506286890481797,0
3716,0.07769130311029013,0
3717,1.6822288278745576,0
3718,6.911435696575979,0
3719,-0.2456095777890489,0
3720,-0.8441592228720661,0
3721,0.7412005309336579,0
3722,-0.3826113399035717,0
3723,0.14057572010096311,0
3724,-0.10046150782393849,0
3725,0.1385346759022672,0
3726,0.035197986866573466,0
3727,0.07147521069700517,0
3728,0.05781821956996146,0
3729,0.0682024353925864,0
3730,0.10512060172134535,0
3731,0.07840055267651347,0
3732,0.057412813743770774,0
3733,0.14503767923662758,0
3734,3.4563730454128496,0
3735,6.247503060635214,0
3736,-2.7579815474864584,0
3737,1.0385670010328831,0
3738,-0.3167524969973894,0
3739,0.26205550751539547,0
3740,-0.01060722016878507,0
3741,-0.0525135268539533,0
3742,-0.0862577486076328,0
3743,0.010108435092013295,0
3744,0.05476354259378557,0
3745,-0.02790632937098809,0
3746,-0.026350612085182065,0
3747,0.03475026687206068,0
3748,-0.007971859213993392,0
3749,0.0489505580978105,0
3750,0.49924577666576203,0
3751,5.634006678010403,0
3752,3.4732283181784966,0
3753,-2.630972082777575,0
3754,1.6333150363801263,0
3755,-0.7380128698347798,0
3756,0.37698043782597,0
3757,-0.049386619174637755,0
3758,0.08482210474382378,0
3759,0.07170055395447972,0
3760,0.052567555494524805,0
3761,0.004459557319756349,0
3762,0.11711930405012128,0
3763,0.04102189149511155,0
3764,-0.027949436515173308,0
3765,-0.023439769737497583,0
3766,-0.009478036291427752,0
3767,1.5420136897238077,0
3768,6.898413386921184,0
3769,-0.2346712839698039,0
3770,-0.902617979742038,0
3771,0.7708645482015111,0
3772,-0.22738568468483092,0
3773,0.17548984693693298,0
3774,0.024230832453531755,0
3775,0.021763664223538932,0
3776,0.07937918230406688,0
3777,0.037846089978893785,0
3778,0.022971154066147727,0
3779,0.1291377238542251,0
3780,-0.021553950920461903,0
3781,0.10991712018322466,0
3782,0.006693784761261895,0
3783,0.10333683166170037,0
3784,3.55619725397762,0
3785,6.232485031865087,0
3786,-2.772240226718089,0
3787,1.0797632023464454,0
3788,-0.27210009183756184,0
3789,0.12067746375021371,0
3790,-0.09915340040685551,0
3791,0.024608429105917814,0
3792,-0.047052643312481504,0
3793,-0.01874993533143064,0
3794,-0.007055907375366424,0
3795,-0.056821011946788035,0
3796,-0.03954424542144677,0
3797,-0.03323762530027104,0
3798,0.01091837690687773,0
3799,0.0006029349868257763,0
3800,0.6164836436240366,0
3801,5.607082841438394,0
3802,3.378666696793898,0
3803,-2.6618134108500064,0
3804,1.5925524629119752,0
3805,-0.8177031447556556,0
3806,0.44517312358782657,0
3807,-0.03823017431083991,0
3808,0.14876753280170216,0
3809,0.03548379786215202,0
3810,0.13371588662922135,0
3811,0.0385485417663771,0
3812,0.027323694517146516,0
3813,0.004182604137693724,0
3814,0.05067184329984993,0
3815,0.04882854282547668,0
3816,-0.00647569948192786,0
3817,1.640370550362322,0
3818,6.96567895231173,0
3819,-0.30103253669245167,0
3820,-0.7477916690586142,0
3821,0.6850448916990548,0
3822,-0.29989540560503797,0
3823,0.08704671598570135,0
3824,-0.10380367764341289,0
3825,0.06443650797883027,0
3826,0.01430054767123773,0
3827,0.06402042732272986,0
3828,-0.09937237820873389,0
3829,0.10380939635884606,0
3830,-0.03404213393382037,0
3831,-0.016522009219102712,0
3832,-0.026086202263794593,0
3833,0.13878836108348094,0
3834,3.566991670417901,0
3835,6.231934283385415,0
3836,-2.632431709196817,0
3837,1.1908280619014546,0
3838,-0.3211737908838957,0
3839,0.2412811515571804,0
3840,0.0057295010060453705,0
3841,0.09512092728387642,0
3842,0.13970924090820114,0
3843,0.07472192076604976,0
3844,0.08962197596264113,0
3845,0.09037637539236533,0
3846,0.1046692685819588,0
3847,0.09525992406418193,0
3848,0.013572585417276031,0
3849,0.03189626067063511,0
3850,0.609007746619272,0
3851,5.60698815016763,0
3852,3.4014783549544005,0
3853,-2.677874527577333,0
3854,1.5675852021968546,0
3855,-0.6470352863371032,0
3856,0.4376243710198326,0
3857,-0.07873070469707777,0
3858,0.07631951765679877,0
3859,-0.011717136706336374,0
3860,0.12201913562757918,0
3861,0.12045840843132066,0
3862,0.073051354540064,0
3863,0.04770203696614463,0
3864,0.08596048460337943,0
3865,0.07587248439815081,0
3866,0.11402917003757604,0
3867,1.7796269181070694,0
3868,7.075908288884533,0
3869,-0.21817690861636796,0
3870,-0.7626053521529882,0
3871,0.847845888856928,0
3872,-0.29814671347511645,0
3873,0.24670714182288206,0
3874,0.0515131919732222,0
3875,0.12732271103706225,0
3876,0.10600689005101702,0
3877,0.07504056405564424,0
3878,0.06519177535941499,0
3879,0.07254244076577522,0
3880,0.04424680906621662,0
3881,0.0607293312918624,0
3882,-0.04513586738270125,0
3883,0.1762713875951652,0
3884,3.5353793025052,0
3885,6.196922737800413,0
3886,-2.6331721849523504,0
3887,1.1195792313784532,0
3888,-0.258305290355679,0
3889,0.1308279719909118,0
3890,-0.041328712725379996,0
3891,0.03213000420925534,0
3892,0.22479452278142226,0
3893,0.13161958852361652,0
3894,0.13526262849334264,0
3895,0.09181433457766869,0
3896,-0.005182453681708568,0
3897,0.09025174859183341,0
3898,0.14091691014538016,0
3899,0.1754600666991692,0
3900,0.5795088671300219,0
3901,5.675067966737513,0
3902,3.4870953713992456,0
3903,-2.5840815652582267,0
3904,1.665859124876526,0
3905,-0.744720181152821,0
3906,0.4389993030110674,0
3907,-0.020300380319198855,0
3908,0.12487864548790752,0
3909,0.07746836446273496,0
3910,0.020222200839062787,0
3911,0.058555078197746815,0
3912,0.02656860294931429,0
3913,0.031557284981840406,0
3914,0.0798924358267129,0
3915,0.0968808067847686,0
3916,0.055533071563930045,0
3917,1.7994627539760264,0
3918,7.043894445826674,0
3919,-0.16997716603979993,0
3920,-0.7228236075052388,0
3921,0.7381739567377574,0
3922,-0.23595093982326515,0
3923,0.19571255111019523,0
3924,0.15068608304359749,0
3925,0.07268568517826735,0
3926,0.06301424870032214,0
3927,0.08475519570833336,0
3928,0.14580310730302304,0
3929,0.08097813434160411,0
3930,-0.052737478207199415,0
3931,0.13464296145819987,0
3932,0.1394020528589902,0
3933,0.08804668103012166,0
3934,3.621672399940061,0
3935,6.2182685922236125,0
3936,-2.7174502175499393,0
3937,1.1290424052246597,0
3938,-0.2625805987856029,0
3939,0.1520453933142932,0
3940,0.08254872696580433,0
3941,0.10588519552141681,0
3942,0.07162649063868205,0
3943,0.08500083406114939,0
3944,0.16318979804343886,0
3945,0.021585583003413164,0
3946,0.021278984441319954,0
3947,0.16221565946101923,0
3948,0.00989869401302193,0
3949,0.06911992922539778,0
3950,0.6005765403306661,0
3951,5.724872503320829,0
3952,3.4505055568216787,0
3953,-2.5504904398440025,0
3954,1.6672911123063747,0
3955,-0.7476486059860077,0
3956,0.4659578088187433,0
3957,-0.05876831831885719,0
3958,0.16052680105498499,0
3959,0.07743035699784774,0
3960,-0.011155434594796315,0
3961,0.1028498480709601,0
3962,0.0987980019688575,0
3963,0.06602196082685907,0
3964,0.1172806363007955,0
3965,0.04537397212085413,0
3966,0.015184053227495178,0
3967,1.6871757506935934,0
3968,6.940331900966515,0
3969,-0.3377335402671628,0
3970,-0.801305363991347,0
3971,0.7045730163860159,0
3972,-0.3855479734833714,0
3973,0.18221812364331938,0
3974,-0.019557558638473724,0
3975,0.013127013656377563,0
3976,0.03330759039093436,0
3977,-0.0038288637748655797,0
3978,0.08028109855496995,0
3979,0.06021239723686553,0
3980,-0.010819899202978552,0
3981,-0.002734377512662471,0
3982,0.12068508649778079,0
3983,0.21546729948709825,0
3984,3.6260728682983316,0
3985,6.214622596024852,0
3986,-2.7434113471318646,0
3987,1.1731771573531975,0
3988,-0.22360302198082932,0
3989,0.17499357317852549,0
3990,-0.12691798218649486,0
3991,0.12961633792109795,0
3992,0.051514310249954356,0
3993,-0.03214042352543756,0
3994,-0.022116258923843213,0
3995,-0.027414173970091774,0
3996,0.07722538564543202,0
3997,-0.0047371214207074,0
3998,0.029968642009486873,0
3999,0.00012772796116681043,0
4000,0.5946119376686668,0
4001,5.666928734250439,0
4002,3.183468007876774,0
4003,-2.6093765074263686,0
4004,1.6493792800628864,0
4005,-0.7750286467905404,0
4006,0.4125160783047118,0
4007,-0.1035602657605911,0
4008,0.021160270636734722,0
4009,0.05730106583988104,0
4010,0.12650528889689394,0
4011,0.06776659108213282,0
4012,0.07610751694525654,0
4013,0.07560307425189225,0
4014,0.02776141430787727,0
4015,0.04812427874895721,0
4016,0.04270025738686141,0
4017,1.7011986077993486,0
4018,7.012416226594256,0
4019,-0.37713625523668576,0
4020,-0.832805731545081,0
4021,0.7708272003958209,0
4022,-0.32784057417875423,0
4023,0.30176055892253456,0
4024,-0.06202039520502048,0
4025,0.07241624182198744,0
4026,0.09152222149741954,0
4027,0.08391383718852526,0
4028,0.009955199485750646,0
4029,0.09046829498701836,0
4030,0.008749292622510473,0
4031,0.0006607924969586065,0
4032,0.023581549572108826,0
4033,0.16421727293529997,0
4034,3.5511617506457758,0
4035,-0.0473882606052652,1
4036,0.10979404343902657,1
4037,-0.043873682317930124,1
4038,0.015075473286066121,1
4039,6.385704865078655,1
4040,1.4979277567778966,1
4041,0.2918211386387775,1
4042,0.048260201043281714,1
4043,0.027502077476147056,1
4044,0.09232339934135793,1
4045,0.04925261127971857,1
4046,0.9986174102079244,1
4047,-0.1261595483593165,1
4048,0.17520415095367733,1
4049,-0.0994857417333798,1
4050,0.030138975056229467,1
4051,-0.023565931802310605,1
4052,-0.008372962498351427,1
4053,0.0639190992125975,1
4054,4.428440988461496,1
4055,-2.6790374717848935,1
4056,-0.6211641315490931,1
4057,0.025631448282173425,1
4058,0.12452583406130628,1
4059,0.018984923821436527,1
4060,0.001425276956515096,1
4061,-0.020564614961155508,1
4062,6.945715288711222,1
4063,1.0472833376158055,1
4064,0.2781355907646665,1
4065,0.09132267745599162,1
4066,-0.06548955632853627,1
4067,0.029729584910117575,1
4068,0.057662781422592325,1
4069,0.6001722238382299,1
4070,1.629217886285505,1
4071,0.7164854609194109,1
4072,0.016851653497833706,1
4073,-0.06683850964294147,1
4074,-0.05464980021385646,1
4075,-0.03683314599959349,1
4076,0.011373030720494242,1
4077,3.4104071083355305,1
4078,-2.9455068256293635,1
4079,-0.7316809921000921,1
4080,-0.010916693424136314,1
4081,0.16924241722774902,1
4082,0.08586121174995058,1
4083,-0.021191217694539605,1
4084,0.05798760248742935,1
4085,6.958828911971708,1
4086,0.20817348226490817,1
4087,0.17149996070343623,1
4088,0.18659686156302957,1
4089,-0.07367378688368606,1
4090,-0.05519924526232188,1
4091,0.016025079555428368,1
4092,0.24649417841026505,1
4093,3.4361175174290346,1
4094,1.1979187054561573,1
4095,0.07567969238717778,1
4096,0.05525456152539732,1
4097,-0.04782749014362598,1
4098,-0.045730205378499846,1
4099,-0.022456113039052296,1
4100,2.436529466433622,1
4101,-2.71844978148436,1
4102,-0.6786347839011698,1
4103,-0.07300261635947021,1
4104,-0.004065849162027901,1
4105,-0.000919066721191299,1
4106,0.003305493573004212,1
4107,-0.04782518187745313,1
4108,6.3308710579668075,1
4109,-1.0150860341838148,1
4110,-0.14061144770831024,1
4111,-0.04340538629957029,1
4112,-0.07892364824368675,1
4113,-0.05631400882151736,1
4114,-0.12150354437891049,1
4115,0.09283198878728521,1
4116,5.055889924469449,1
4117,1.4874857258906502,1
4118,0.27474436877907393,1
4119,-0.015072522890325082,1
4120,0.09969485394418996,1
4121,0.07504418840296001,1
4122,0.06961355238723783,1
4123,1.684713148454565,1
4124,-1.5837583507372364,1
4125,-0.29956802966993007,1
4126,-0.047735514640794785,1
4127,0.07276971580219065,1
4128,0.07520889810379748,1
4129,0.08996127916432596,1
4130,0.041476264660636177,1
4131,5.611298055940557,1
4132,-1.8956801022325402,1
4133,-0.3785850560538848,1
4134,-0.055300971601460525,1
4135,6.098376698138478,0
4136,-2.7386347094917,0
4137,1.152690972229219,0
4138,-0.4477851211699697,0
4139,0.1326027036761028,0
4140,-0.03461861689454129,0
4141,0.09713710755108695,0
4142,-0.05177796770414288,0
4143,-0.01534579740989677,0
4144,-0.016345223575529456,0
4145,0.006935729287819449,0
4146,0.0013782001483774817,0
4147,0.0232857146741747,0
4148,0.04835207545900391,0
4149,0.06980436388999224,0
4150,0.5815448128645891,0
4151,5.749682233575546,0
4152,3.1752491637503444,0
4153,-2.669863804386527,0
4154,1.5264849828020908,0
4155,-0.7369741891970776,0
4156,0.35118542579540857,0
4157,-0.043273312905973194,0
4158,0.009659706274843409,0
4159,0.007353092606409411,0
4160,0.010450307842677926,0
4161,0.03527804715188933,0
4162,-0.0409130361990255,0
4163,-0.03182223907156448,0
4164,0.11946082328185814,0
4165,0.03928202943979575,0
4166,-0.05730249127939353,0
4167,1.6565812975487222,0
4168,6.907253975037349,0
4169,-0.45127084733085626,0
4170,-0.9043788895487821,0
4171,0.6668715700424684,0
4172,-0.4485522717369245,0
4173,0.056842614042596384,0
4174,-0.017981644216476564,0
4175,-0.08345694473059,0
4176,-0.06783136857836033,0
4177,-0.004912603662598887,0
4178,0.02310914179418278,0
4179,-0.010095593709764157,0
4180,0.018033212199759355,0
4181,0.06944978076393184,0
4182,0.05522125715628075,0
4183,0.10881641911586207,0
4184,3.5913925509103946,0
4185,6.182769345105032,0
4186,-2.772501967305059,0
4187,1.2043866439486872,0
4188,-0.3909866198127402,0
4189,0.19764514139511197,0
4190,-0.022039232125382974,0
4191,0.03967461356811171,0
4192,-0.015888370360124162,0
4193,-0.0011445654538645364,0
4194,0.006032531342815367,0
4195,0.13034997806114154,0
4196,0.02115817474762613,0
4197,0.06647903905644371,0
4198,-0.005364416922221251,0
4199,0.10704781399945792,0
4200,0.6261315689887527,0
4201,5.762174311354539,0
4202,3.1713942941165008,0
4203,-2.615764095302404,0
4204,1.56841724245774,0
4205,-0.8191796147034076,0
4206,0.28243650413858945,0
4207,-0.05937076222660481,0
4208,-0.01152977605278635,0
4209,0.016714851048739286,0
4210,-0.0018124848364206095,0
4211,-0.07885309865136544,0
4212,0.015730400461036874,0
4213,0.17106337587560805,0
4214,-0.07430054745485246,0
4215,0.10401285272148468,0
4216,-0.03761349588342188,0
4217,1.7280550916839286,0
4218,7.073175694340497,0
4219,-0.43176550350105514,0
4220,-0.7681225159015928,0
4221,0.7761290632033144,0
4222,-0.31106008569835486,0
4223,0.23409756603605686,0
4224,0.019026608751179123,0
4225,0.043728256858039244,0
4226,0.051333915328964905,0
4227,0.11048401755542632,0
4228,0.0650457787994705,0
4229,0.032481595110705634,0
4230,0.13200183697477863,0
4231,0.012510890792666117,0
4232,0.0794986187986792,0
4233,0.22517939831823325,0
4234,3.684296071302898,0
4235,6.1816505429573505,0
4236,-2.789765567558718,0
4237,1.185899910589884,0
4238,-0.33763364142641145,0
4239,0.21311158050142218,0
4240,0.02597075737294033,0
4241,0.08543120489620122,0
4242,0.0314130908428845,0
4243,-0.06298040841155064,0
4244,0.02826193560083869,0
4245,0.008469374841581046,0
4246,0.050018251172056806,0
4247,-0.038244590222645904,0
4248,-0.0007034004879727905,0
4249,0.016878587744767408,0
4250,0.7289413950310333,0
4251,5.770180848577562,0
4252,3.245486545129274,0
4253,-2.5945861340957066,0
4254,1.6699162561390697,0
4255,-0.7796408195136524,0
4256,0.34665224734935685,0
4257,0.024259569168457056,0
4258,0.10220992278201482,0
4259,0.06930042695245753,0
4260,0.054944989020118296,0
4261,0.006749354677511657,0
4262,0.028241189323252792,0
4263,-0.0016695872017009755,0
4264,0.11320597031295118,0
4265,0.006456106765383496,0
4266,0.1068520827594927,0
4267,1.8307333556388175,0
4268,6.980995074930289,0
4269,-0.42971252322043757,0
4270,-0.7736480250809513,0
4271,0.6668090728583325,0
4272,-0.2549293556103201,0
4273,0.1643162834010871,0
4274,0.015996105542967137,0
4275,0.01884108964568846,0
4276,0.038239849279199434,0
4277,0.04066946541607598,0
4278,0.07851322093287391,0
4279,-0.00920144762492009,0
4280,0.03781076175531413,0
4281,0.00262655042073872,0
4282,0.07930438089095124,0
4283,0.1657824332311235,0
4284,3.681473543286103,0
4285,6.199196200488346,0
4286,-2.773179148298275,0
4287,1.191946160035412,0
4288,-0.34077266147084734,0
4289,0.13230683180938513,0
4290,0.01193978881449078,0
4291,0.2004202482065691,0
4292,0.048299268856428615,0
4293,0.10846118997441846,0
4294,0.02154399664807769,0
4295,0.10946215098599407,0
4296,-0.016658003649233366,0
4297,0.0851200154689054,0
4298,0.08886470633478005,0
4299,0.06650928893508938,0
4300,0.6406296345446724,0
4301,5.757964143638506,0
4302,3.2200901900908057,0
4303,-2.5147798177323413,0
4304,1.6028278008885095,0
4305,-0.6744645620537533,0
4306,0.3518820851884639,0
4307,-0.12509021442637053,0
4308,0.08060879507238194,0
4309,0.0364731816150305,0
4310,0.11982767720778445,0
4311,0.0759190058061421,0
4312,0.09143524626201532,0
4313,0.04876290321351345,0
4314,-0.029102695291558428,0
4315,0.0949156561871069,0
4316,0.04515178989237273,0
4317,1.7853372112689685,0
4318,7.029711553387886,0
4319,-0.4033349947543778,0
4320,-0.6768909126060788,0
4321,0.8027153399668023,0
4322,-0.2722010837172653,0
4323,0.19948637117782306,0
4324,-0.019124104304292053,0
4325,0.09253752869576705,0
4326,0.03579798782421873,0
4327,0.06899930244662406,0
4328,0.09835878738460527,0
4329,0.01609078336429815,0
4330,0.20688490967685336,0
4331,0.05704207066798438,0
4332,0.09565037790019115,0
4333,0.15035426286969916,0
4334,3.6697701661622197,0
4335,6.115784710778797,0
4336,-2.7560512190588233,0
4337,1.2201202285840018,0
4338,-0.38013901643153164,0
4339,0.19727259780953482,0
4340,-0.04243323527598859,0
4341,0.03871773980364561,0
4342,0.1020809236297463,0
4343,0.10096410818774365,0
4344,0.08826890202222407,0
4345,0.03482373866326571,0
4346,0.07876906954290308,0
4347,0.09497682322985025,0
4348,0.1223012256889385,0
4349,0.02672276477834911,0
4350,0.6800371930047822,0
4351,5.8565866396288655,0
4352,3.191748896675906,0
4353,-2.5301405683923246,0
4354,1.4656513010706267,0
4355,-0.6310199942839969,0
4356,0.3826692170972266,0
4357,-2.8926716501322114e-05,0
4358,0.08185349433198202,0
4359,0.07944136760199814,0
4360,0.051313740499532766,0
4361,0.07973455846217456,0
4362,0.055760294183288414,0
4363,0.07053487433930278,0
4364,0.08334442728598149,0
4365,0.12014012084963605,0
4366,0.04778156835222164,0
4367,1.8162163012527457,0
4368,6.91626420394853,0
4369,-0.5061871067180681,0
4370,-0.7337473754681729,0
4371,0.7318889042076517,0
4372,-0.19042119841537675,0
4373,0.1837986824493805,0
4374,-0.006094444564521392,0
4375,0.09220557178553791,0
4376,0.01822047988135239,0
4377,0.09646332352286331,0
4378,0.0681590635546128,0
4379,0.10683304541894832,0
4380,0.05538648804956975,0
4381,0.08022216453533329,0
4382,0.04173395845065467,0
4383,0.20156815685799698,0
4384,3.7770525692897463,0
4385,6.0076076981231346,0
4386,-2.8269712829365012,0
4387,1.2626797619972385,0
4388,-0.48694315827097306,0
4389,0.15041301850158484,0
4390,-0.07445607952312637,0
4391,-0.10915702306751175,0
4392,-0.11176471430917274,0
4393,-0.028398582252986495,0
4394,-0.08346886590531716,0
4395,-0.02256664453391159,0
4396,-0.03919365806134867,0
4397,-0.01823671218219825,0
4398,-0.0371336050257706,0
4399,-0.050742357618675425,0
4400,0.6367831938098016,0
4401,5.712009886800752,0
4402,3.0410911026427208,0
4403,-2.713684836953168,0
4404,1.570347781561507,0
4405,-0.7466275136789966,0
4406,0.3270174272277808,0
4407,-0.07265308243808447,0
4408,-0.0011575493759801124,0
4409,0.060488782477996106,0
4410,-0.014769972046725258,0
4411,-0.004197156793542482,0
4412,-0.01627364084898169,0
4413,0.024684079058295998,0
4414,0.01790930652880542,0
4415,0.053879726834615546,0
4416,-0.0023158316465837214,0
4417,1.8194436856645728,0
4418,6.977119004689306,0
4419,-0.5544526771258091,0
4420,-0.6308093774392687,0
4421,0.6211062439624097,0
4422,-0.3052449380784458,0
4423,0.18680849749306205,0
4424,0.07742363789489355,0
4425,0.08996465754067662,0
4426,-0.0563172580937613,0
4427,-0.03717808978451385,0
4428,0.009984723700119222,0
4429,-0.001448098841906078,0
4430,0.03958209527358215,0
4431,-0.05277383446356054,0
4432,0.0071937806914949935,0
4433,0.12183088671586721,0
4434,3.7340981542734797,0
4435,5.966407287497371,0
4436,-2.899739104074937,0
4437,1.1849446716530456,0
4438,-0.4540289951310543,0
4439,0.03377706234540323,0
4440,-0.011298803830711447,0
4441,-0.0530290401686215,0
4442,-0.05146282095226639,0
4443,0.007565861546046241,0
4444,-0.035940811107564016,0
4445,0.07439729608420864,0
4446,0.028049894911874436,0
4447,0.015717228446970745,0
4448,-0.0658257786982878,0
4449,-0.07759560434920973,0
4450,0.5385292897506989,0
4451,5.830636006932591,0
4452,3.1735132783338353,0
4453,-2.6329172861960495,0
4454,1.502073023069614,0
4455,-0.7878579103219332,0
4456,0.32168990918596035,0
4457,-0.074765080323265,0
4458,0.10038112412715243,0
4459,0.029507716037404562,0
4460,0.0378129319410971,0
4461,-0.010466411181043835,0
4462,0.0058332277643200064,0
4463,0.033873396534468234,0
4464,0.12927469976477085,0
4465,0.038506602134462144,0
4466,-0.0009140403656344581,0
4467,1.8910571960184608,0
4468,6.992128716214664,0
4469,-0.5756934894301181,0
4470,-0.6859345833376469,0
4471,0.6743797712905073,0
4472,-0.3402026578048795,0
4473,0.15515845857568306,0
4474,0.022610698396189045,0
4475,0.02215729787343633,0
4476,-0.019221922332830925,0
4477,-0.028847799158121152,0
