timestamp,value-0,is_anomaly
0,0.13392111341717933,0.0
1,4.569729057966356,0.0
2,4.999083226652501,0.0
3,-2.9806121065060056,0.0
4,1.6339286177523635,0.0
5,-0.7064211881393956,0.0
6,0.24847752427891717,0.0
7,-0.01690346945516813,0.0
8,0.08680283897199596,0.0
9,0.03491631556823853,0.0
10,0.07116661849760172,0.0
11,0.051116806687640376,0.0
12,0.07543329875954533,0.0
13,0.05678654834298766,0.0
14,-0.03476136505407619,0.0
15,-0.11011861225385373,0.0
16,0.06265853574878973,0.0
17,1.0423221704760297,0.0
18,6.37778985678725,0.0
19,1.566574290438086,0.0
20,-1.9551313600227689,0.0
21,1.2375435337054577,0.0
22,-0.7037602684577706,0.0
23,0.25140676843389287,0.0
24,-0.09715767985022722,0.0
25,0.028067615897362768,0.0
26,0.01787644579369496,0.0
27,0.017706180873089963,0.0
28,0.011214211234213942,0.0
29,0.010314919893550111,0.0
30,0.05398114720836324,0.0
31,0.0582961805587495,0.0
32,0.06712153041871777,0.0
33,0.10724136423083722,0.0
34,2.567465379931188,0.0
35,6.871120109452247,0.0
36,-1.7602346055725788,0.0
37,0.1477805002892557,0.0
38,0.2455819241406405,0.0
39,-0.07236000792860267,0.0
40,0.027959145765424902,0.0
41,-0.02233455388543116,0.0
42,-0.06290156504048774,0.0
43,-0.1623628747680659,0.0
44,-0.02706035968484541,0.0
45,0.011896673775303832,0.0
46,-0.017692192775744558,0.0
47,-0.06301754666424837,0.0
48,-0.08599829179171672,0.0
49,0.015334533529909052,0.0
50,0.1903254648035917,0.0
51,4.53051341534702,0.0
52,4.861728713657901,0.0
53,-3.007363845616234,0.0
54,1.567959387513419,0.0
55,-0.7880914345749465,0.0
56,0.23624590237538845,0.0
57,-0.16372720085472323,0.0
58,6.386706305104833e-05,0.0
59,0.019279017606081417,0.0
60,-0.09510308788363454,0.0
61,-0.07651518451641667,0.0
62,-0.04585456337461591,0.0
63,-0.05479823814449676,0.0
64,-0.06528966885709067,0.0
65,-0.05908653374485101,0.0
66,-0.028568902853010038,0.0
67,1.1143954296007905,0.0
68,6.374220940499879,0.0
69,1.525401302759009,0.0
70,-2.041347872365222,0.0
71,1.1842550811492454,0.0
72,-0.6734629132034641,0.0
73,0.1891259246674203,0.0
74,-0.21380625086783192,0.0
75,-0.07145933313242707,0.0
76,0.018222886166631508,0.0
77,0.02049579115514885,0.0
78,-0.055666117176406946,0.0
79,0.021756603663035043,0.0
80,-0.05467715792679804,0.0
81,0.05036223759574587,0.0
82,0.018313394412629448,0.0
83,0.04621749126556898,0.0
84,2.5775368041363027,0.0
85,6.822981794399507,0.0
86,-1.8443020872445355,0.0
87,0.19067106411834456,0.0
88,0.07740689357780514,0.0
89,-0.10058699071800306,0.0
90,0.038907195768585257,0.0
91,-0.007280522571075455,0.0
92,-0.050926864933064434,0.0
93,-0.08026467736256071,0.0
94,0.011004643970671999,0.0
95,-0.04589125344413062,0.0
96,0.02663392885947951,0.0
97,0.01857694945239685,0.0
98,-0.06865846898201097,0.0
99,-0.07613785326430304,0.0
100,0.3239149332519283,0.0
101,4.666223531731278,0.0
102,4.873699058729425,0.0
103,-3.166590752951125,0.0
104,1.474148584700671,0.0
105,-0.7334339053496096,0.0
106,0.14238258248952002,0.0
107,-0.2544528912300252,0.0
108,-0.07539186526240343,0.0
109,-0.12929845102136078,0.0
110,-0.01856578794800974,0.0
111,-0.020203892671116483,0.0
112,-0.11868762331528768,0.0
113,-0.12511176285579417,0.0
114,-0.0739975511411751,0.0
115,-0.08155534876270144,0.0
116,-0.12982897563380136,0.0
117,0.9378750063143332,0.0
118,6.369171170480061,0.0
119,1.501652272837068,0.0
120,-1.9886539723543757,0.0
121,1.1823126582580337,0.0
122,-0.6859238753027657,0.0
123,0.2407007297992927,0.0
124,-0.228388547882253,0.0
125,0.019643065179533202,0.0
126,-0.04454147278683565,0.0
127,0.06682067379942923,0.0
128,-0.03057564211882402,0.0
129,0.017595400553645654,0.0
130,-0.1559996698907679,0.0
131,-0.06267377676915763,0.0
132,-0.09284695842188417,0.0
133,0.1082566586309817,0.0
134,2.549669939480863,0.0
135,6.885268353474445,0.0
136,-1.9014726493450953,0.0
137,0.16286554028850317,0.0
138,0.14744807917671304,0.0
139,-0.15303987663087004,0.0
140,-0.06117205266257189,0.0
141,-0.07569647697560832,0.0
142,-0.049050433330333695,0.0
143,0.024499079426222377,0.0
144,-0.08559057100582378,0.0
145,-0.07460884910074447,0.0
146,0.027004897251305754,0.0
147,-0.05462663853379307,0.0
148,-0.16022433900404734,0.0
149,-0.05517040972799173,0.0
150,0.29868146491993514,0.0
151,4.585313553944295,0.0
152,4.944781544399901,0.0
153,-3.028014100817002,0.0
154,1.5063916458572917,0.0
155,-0.8197137747741602,0.0
156,0.23267959735023874,0.0
157,-0.1497536262215227,0.0
158,-0.012671375984118646,0.0
159,-0.08789272711718239,0.0
160,-0.04009240999003896,0.0
161,0.02412194061777433,0.0
162,-0.009331730086242378,0.0
163,0.01238926073041654,0.0
164,0.005694935774899143,0.0
165,-0.03508454137146624,0.0
166,-0.01007290619829878,0.0
167,0.9410609424261936,0.0
168,6.3805021139468625,0.0
169,1.3676616004152846,0.0
170,-1.986395913889627,0.0
171,1.2327683304515098,0.0
172,-0.6746415273767943,0.0
173,0.22475875918112295,0.0
174,-0.04939532920734031,0.0
175,-0.01180279443163006,0.0
176,-0.0531112533847838,0.0
177,0.0012502664851866841,0.0
178,0.0814361369615179,0.0
179,0.04387629569225573,0.0
180,0.07005264508520836,0.0
181,0.07972935375929102,0.0
182,0.033779957618207304,0.0
183,-0.1099809236101166,0.0
184,2.493881037681812,0.0
185,6.8037862280314325,0.0
186,-1.8940813453663161,0.0
187,0.21073930164575086,0.0
188,0.09781995604535064,0.0
189,-0.16204116162313445,0.0
190,0.013005789117440086,0.0
191,-0.061506742808372386,0.0
192,0.013640918491002595,0.0
193,-0.08764096830496917,0.0
194,0.025662063857360938,0.0
195,-0.02975228187053258,0.0
196,-0.0939973136689626,0.0
197,-0.033397861242345075,0.0
198,-0.05206618740153889,0.0
199,-0.09053369685678961,0.0
200,0.25428153931131053,0.0
201,4.598392328976413,0.0
202,4.857742252353419,0.0
203,-2.959430809022322,0.0
204,1.554276641894718,0.0
205,-0.6946083406495966,0.0
206,0.32902564073527707,0.0
207,-0.11753823455919767,0.0
208,-0.02271937390826779,0.0
209,-0.05176928736037184,0.0
210,-0.04455496543607618,0.0
211,-0.02384191987178868,0.0
212,-0.050265069974510766,0.0
213,-0.015782234486989146,0.0
214,0.0719638004080732,0.0
215,0.03180644185229079,0.0
216,0.011179062433950504,0.0
217,0.8914411544539954,0.0
218,6.419742319763079,0.0
219,1.450486350016781,0.0
220,-1.897486561104324,0.0
221,1.208220945163416,0.0
222,-0.580065829090567,0.0
223,0.2704363738870084,0.0
224,-0.024442373033278432,0.0
225,0.007348315531979573,0.0
226,0.09315165912982644,0.0
227,0.03250215028050593,0.0
228,-0.04427859313523072,0.0
229,0.0199412638323217,0.0
230,-0.009459248880029192,0.0
231,0.07455745788848402,0.0
232,-0.03421555476248151,0.0
233,0.1228513259412644,0.0
234,2.585005814046834,0.0
235,6.842637542687596,0.0
236,-1.7684982257242094,0.0
237,0.2621701555845211,0.0
238,0.17234576244964706,0.0
239,-0.07284008609705418,0.0
240,0.08125898068258801,0.0
241,-0.012552661643044437,0.0
242,0.007099963680247106,0.0
243,0.009623042216480459,0.0
244,0.0665596193716119,0.0
245,-0.06568834162382417,0.0
246,0.008047148175512341,0.0
247,-0.03257939012240063,0.0
248,-0.11215803055251342,0.0
249,0.06353830340782002,0.0
250,0.33554904786718215,0.0
251,4.619682407716963,0.0
252,4.92756626700642,0.0
253,-2.9379396396902053,0.0
254,1.5897491967973343,0.0
255,-0.696647783668759,0.0
256,0.36252516163113085,0.0
257,-0.05739248839074815,0.0
258,0.015426611633082135,0.0
259,-0.007353613138658899,0.0
260,0.055531814233208895,0.0
261,0.05968989666689255,0.0
262,0.07922483834693414,0.0
263,0.10559940883204211,0.0
264,-0.010068387970817279,0.0
265,-0.004048903220932626,0.0
266,0.060203655056772595,0.0
267,1.0084109296217885,0.0
268,6.493859131178967,0.0
269,1.4967325829861557,0.0
270,-1.8762075696886686,0.0
271,1.2273694297952884,0.0
272,-0.6005463760202667,0.0
273,0.36832315800929055,0.0
274,-0.025719622637517793,0.0
275,0.030049146395788148,0.0
276,0.04344359360163515,0.0
277,-0.011590800897845317,0.0
278,-0.017445947282248603,0.0
279,0.17369266562104474,0.0
280,0.07159261370278464,0.0
281,0.07383230214745926,0.0
282,0.11407705957787968,0.0
283,0.054868861383959376,0.0
284,2.6023992817664956,0.0
285,7.013408093868505,0.0
286,-1.7458379208423107,0.0
287,0.3787101450611145,0.0
288,0.31171454926198117,0.0
289,-0.03059788028789172,0.0
290,0.21432403852388138,0.0
291,0.17956706996820043,0.0
292,0.04957864264598476,0.0
293,0.12778824125009625,0.0
294,0.048423897089259815,0.0
295,0.15246523532754633,0.0
296,0.12388250601096495,0.0
297,0.06154431772701185,0.0
298,0.06915449026655818,0.0
299,-0.019269993039962408,0.0
300,0.3578372385572496,0.0
301,4.664738219833835,0.0
302,4.988935141115107,0.0
303,-3.014323201722897,0.0
304,1.6159011365290359,0.0
305,-0.7199919369027994,0.0
306,0.2749761540069635,0.0
307,-0.012593097294818514,0.0
308,0.05208832892252099,0.0
309,0.07755015272255557,0.0
310,-0.0622857445899377,0.0
311,-0.03835723480774241,0.0
312,-0.005343302955429823,0.0
313,0.010435821928874309,0.0
314,0.0637475567614422,0.0
315,0.029280672057253262,0.0
316,-0.014078799206037801,0.0
317,1.0173993115552011,0.0
318,6.533222971129909,0.0
319,1.4046331422154044,0.0
320,-1.871415027892907,0.0
321,1.1986459628712216,0.0
322,-0.59015655541829,0.0
323,0.24519709622959757,0.0
324,-0.07397138618609378,0.0
325,0.07759993196398626,0.0
326,0.14268376368830998,0.0
327,0.09063677855007937,0.0
328,0.006577900706072906,0.0
329,0.1201971946133332,0.0
330,0.09484892707740697,0.0
331,0.01991391223839914,0.0
332,0.023113081446995802,0.0
333,0.10076290985622594,0.0
334,2.6640132344922796,0.0
335,6.903516658272035,0.0
336,-1.8086619019605474,0.0
337,0.3355942898210643,0.0
338,0.14415100473947562,0.0
339,0.08460381067083485,0.0
340,0.04271648473838435,0.0
341,0.07100376077551021,0.0
342,0.04973030523530102,0.0
343,-0.023562077724310446,0.0
344,-0.01293440265387634,0.0
345,0.08210399595484727,0.0
346,0.04796631943752599,0.0
347,0.050464968200355856,0.0
348,0.14391851509805054,0.0
349,0.12017202380949796,0.0
350,0.3201354924294896,0.0
351,4.7403445012767005,0.0
352,4.944316802823986,0.0
353,-2.946308834024967,0.0
354,1.6876340943452088,0.0
355,-0.7416723161048155,0.0
356,0.3965605561408861,0.0
357,-0.07631874884307538,0.0
358,0.15482168620571224,0.0
359,0.10570399137414649,0.0
360,0.14959602381465764,0.0
361,0.023831247766012614,0.0
362,-0.029990196489731988,0.0
363,-0.022233292287366223,0.0
364,0.04993747797881545,0.0
365,0.08000694637563399,0.0
366,0.0985736994225549,0.0
367,1.040612141706136,0.0
368,6.589859835169688,0.0
369,1.4582270939757414,0.0
370,-1.8265181684175238,0.0
371,1.2266909840739637,0.0
372,-0.5777664739879348,0.0
373,0.34656203385151213,0.0
374,-0.11172492075205342,0.0
375,0.040062290544942966,0.0
376,0.003997675249829148,0.0
377,0.053554416961574966,0.0
378,0.07594486655383924,0.0
379,-0.04902549947897462,0.0
380,-0.08212928441860995,0.0
381,0.03819370433918027,0.0
382,-0.10921464599028108,0.0
383,-0.03911683473084162,0.0
384,2.575095507536355,0.0
385,6.800659268346282,0.0
386,-1.9240557312279196,0.0
387,0.21315296657712612,0.0
388,0.08561881442624686,0.0
389,-0.05578985033218311,0.0
390,-0.04890382393866949,0.0
391,-0.07193406502339873,0.0
392,0.0586869227014185,0.0
393,-0.007572623680645508,0.0
394,0.02675283374180304,0.0
395,-0.04170621996490117,0.0
396,-0.025200070602351448,0.0
397,0.056482643677512066,0.0
398,-0.05639448051748559,0.0
399,-0.029367779046371008,0.0
400,0.19438007243940647,0.0
401,4.688570536996431,0.0
402,4.899855712645566,0.0
403,-3.0635843518440304,0.0
404,1.469555169766901,0.0
405,-0.7326165297819979,0.0
406,0.30304379787980074,0.0
407,-0.09434902686319752,0.0
408,0.05513023203541004,0.0
409,0.07589434971672207,0.0
410,0.024312258686784143,0.0
411,0.013657724537828885,0.0
412,0.07051279482819185,0.0
413,0.04007665622356437,0.0
414,0.034943452888833416,0.0
415,0.042476060282691255,0.0
416,-0.023234319523294987,0.0
417,1.0374916367991458,0.0
418,6.457301989222648,0.0
419,1.3486155778708804,0.0
420,-1.9242265402180234,0.0
421,1.209857948955292,0.0
422,-0.6181912902219937,0.0
423,0.25295078300605445,0.0
424,-0.1365152357724973,0.0
425,-0.07302721492611736,0.0
426,-0.034400179725281206,0.0
427,0.016979782104311038,0.0
428,0.005207520050847284,0.0
429,0.051783627242730765,0.0
430,-0.008440085573914121,0.0
431,0.05360370298651757,0.0
432,-0.020181879892685266,0.0
433,0.09152998901987851,0.0
434,2.5591364420168947,0.0
435,6.892834329264793,0.0
436,-1.9541200892837598,0.0
437,0.3379880124551454,0.0
438,0.16847574535672633,0.0
439,-0.09843069243898384,0.0
440,-0.04190292823465983,0.0
441,-0.038964944263682674,0.0
442,0.0425734252366623,0.0
443,0.068382420563355,0.0
444,0.023161198223462118,0.0
445,0.016188226351320927,0.0
446,0.0573923895317478,0.0
447,0.013167797501110239,0.0
448,0.010732716720019127,0.0
449,-0.032966760702337325,0.0
450,0.23727159775130463,0.0
451,4.6572826313998945,0.0
452,4.775968357909671,0.0
453,-3.053466909549627,0.0
454,1.4898102843621621,0.0
455,-0.7099465907043401,0.0
456,0.3333350446501364,0.0
457,-0.12340084655128042,0.0
458,0.08750642368706771,0.0
459,0.09880801762196909,0.0
460,0.025441246550590317,0.0
461,0.011833200487847965,0.0
462,-0.07676569174834788,0.0
463,0.06683018247069827,0.0
464,-0.022538197466253088,0.0
465,0.0403920825811915,0.0
466,0.04038061143290773,0.0
467,1.0217613614581942,0.0
468,6.490557890877406,0.0
469,1.2829001431973446,0.0
470,-1.851565001887149,0.0
471,1.1895011807631959,0.0
472,-0.6372676520592743,0.0
473,0.14823571391164447,0.0
474,-0.09357316111696029,0.0
475,0.005011623892830506,0.0
476,-0.09486178373931278,0.0
477,0.036477850314528146,0.0
478,-0.002509888981951893,0.0
479,0.09048513484567595,0.0
480,-0.04169643426120043,0.0
481,0.06155978341174788,0.0
482,-0.005804919092355618,0.0
483,0.033026438652177796,0.0
484,2.6670635241514637,0.0
485,6.8486990411415345,0.0
486,-1.9087467318286746,0.0
487,0.34024777777660953,0.0
488,0.1969979791956456,0.0
489,0.04040903127444485,0.0
490,0.14747302285933306,0.0
491,0.002544888671823141,0.0
492,0.10352782870918913,0.0
493,0.014990419546706622,0.0
494,0.004142006343942399,0.0
495,0.022787981041584682,0.0
496,0.10848004728160435,0.0
497,-0.05607211840714846,0.0
498,-0.00306620147025574,0.0
499,0.04933733411853511,0.0
500,0.2589960423232663,0.0
501,4.7538209697122085,0.0
502,4.862749612109059,0.0
503,-3.009421177055945,0.0
504,1.5570415727919766,0.0
505,-0.7070501411662742,0.0
506,0.41122689745658636,0.0
507,-0.053813480928566894,0.0
508,0.12863569232515246,0.0
509,0.07615453871463476,0.0
510,0.07843247239117312,0.0
511,0.025570914862416146,0.0
512,-0.0012027098086793975,0.0
513,0.045872562463427115,0.0
514,0.05894856013786172,0.0
515,0.07732920452577992,0.0
516,0.03826946623902899,0.0
517,1.0641412251739546,0.0
518,6.553012956799875,0.0
519,1.2890993125455974,0.0
520,-1.7679903550282043,0.0
521,1.1719336902697022,0.0
522,-0.6521315905602684,0.0
523,0.19319117457239182,0.0
524,-0.15074320574756425,0.0
525,0.033654311441638995,0.0
526,-0.0022027865321548826,0.0
527,0.09992300040405329,0.0
528,0.018509114251550635,0.0
529,0.11089858141669813,0.0
530,0.0373561315858753,0.0
531,0.031143953207830987,0.0
532,0.08937504337052919,0.0
533,0.0622800495099124,0.0
534,2.5553813099824128,0.0
535,6.808636237207845,0.0
536,-2.0086858184911653,0.0
537,0.3357739712272717,0.0
538,0.17400567020234411,0.0
539,-0.21055142258138,0.0
540,0.07397559052464946,0.0
541,0.042979797091948935,0.0
542,-0.009531586414518057,0.0
543,-0.030135152924888244,0.0
544,0.08051274022708328,0.0
545,0.04385534724917786,0.0
546,0.11276720272032587,0.0
547,0.12632951699824252,0.0
548,0.06225887803182177,0.0
549,0.06158672400810979,0.0
550,0.41645986405028135,0.0
551,4.812154748765993,0.0
552,4.790546124793775,0.0
553,-2.927227065144907,0.0
554,1.5951753237174864,0.0
555,-0.7222920991252753,0.0
556,0.2962086907909721,0.0
557,-0.11742815628224013,0.0
558,0.0032034312797158057,0.0
559,-0.00472629913526099,0.0
560,0.03976731745970642,0.0
561,0.019381438192967542,0.0
562,-0.03358958416098337,0.0
563,0.015212099358432239,0.0
564,0.007337070466285516,0.0
565,-0.01440380512292873,0.0
566,-0.06090345617834056,0.0
567,1.1245364053951552,0.0
568,6.567460988831327,0.0
569,1.3754225336735824,0.0
570,-1.7818827904758183,0.0
571,1.2662867838907708,0.0
572,-0.592464975333444,0.0
573,0.1848493496569179,0.0
574,-0.13220504071861688,0.0
575,0.011693359354993785,0.0
576,0.02173356753348852,0.0
577,-0.009127249303693406,0.0
578,-0.059818650463762515,0.0
579,-0.07246405362645021,0.0
580,-0.0606875271952425,0.0
581,0.05192179715521707,0.0
582,-0.00891431459810641,0.0
583,-0.010183466656511642,0.0
584,2.612933702926959,0.0
585,6.814876987564462,0.0
586,-1.9187547528581275,0.0
587,0.2656480747411841,0.0
588,0.04978519208192005,0.0
589,-0.02826393125090488,0.0
590,-0.03125678233702277,0.0
591,0.004001644950154265,0.0
592,0.018212568214566793,0.0
593,0.08156424192461298,0.0
594,-0.08472288835840347,0.0
595,0.05078282583572971,0.0
596,-0.0401162313169401,0.0
597,0.0996551602241257,0.0
598,0.049392998773267235,0.0
599,0.054315680421708167,0.0
600,0.3211071447866123,0.0
601,4.8013011689362335,0.0
602,4.807958155961084,0.0
603,-3.0202234159404338,0.0
604,1.5764980236234853,0.0
605,-0.6938824804124031,0.0
606,0.2816684642078394,0.0
607,-0.04864059172614692,0.0
608,0.02019916728554845,0.0
609,0.051264428663253286,0.0
610,0.07861894424798935,0.0
611,0.027147167280526237,0.0
612,0.12173330511436009,0.0
613,-0.003142749397047215,0.0
614,-0.024208626300313535,0.0
615,0.038053537875818055,0.0
616,0.0982145600761895,0.0
617,1.1942063763562234,0.0
618,6.685359244175981,0.0
619,1.4085201386121382,0.0
620,-1.6770565775173276,0.0
621,1.2701407410064622,0.0
622,-0.5439844018698053,0.0
623,0.21923392820901655,0.0
624,-0.03856518462144512,0.0
625,-0.01120877822539322,0.0
626,-0.016180205827015195,0.0
627,-0.0883026406387164,0.0
628,0.01965918162762499,0.0
629,-0.0779366825336855,0.0
630,-0.03353165798668055,0.0
631,-0.02683426462983888,0.0
632,-0.1633958051597281,0.0
633,-0.009140186574891775,0.0
634,2.577784881975404,0.0
635,6.738783425377616,0.0
636,-2.0507043132953453,0.0
637,0.2809414542950285,0.0
638,0.01574059730889786,0.0
639,-0.06835888830592941,0.0
640,0.0011633380075598554,0.0
641,-0.03346851328864758,0.0
642,-0.030503873767327803,0.0
643,-0.001383689667477244,0.0
644,-0.08081638519491904,0.0
645,0.004290842343645306,0.0
646,-0.10183146399933204,0.0
647,-0.071795483397075,0.0
648,-0.09506436881562305,0.0
649,-0.12485858007106365,0.0
650,0.16607895826816763,0.0
651,4.826018938923873,0.0
652,4.775858296205779,0.0
653,-2.9713302722368398,0.0
654,1.5425046074653106,0.0
655,-0.7460572133714494,0.0
656,0.17972082489461766,0.0
657,-0.07861897504402447,0.0
658,0.0032562260401927945,0.0
659,0.011992692071905547,0.0
660,-0.03315029225570601,0.0
661,0.004903743201895384,0.0
662,-0.057339757336924986,0.0
663,0.048200688589718044,0.0
664,0.014355222188190684,0.0
665,0.02299209407173288,0.0
666,-0.01842581529835214,0.0
667,1.029536283680706,0.0
668,6.543087288662833,0.0
669,1.2517100658766782,0.0
670,-1.8388845110294305,0.0
671,1.1891068626313057,0.0
672,-0.6246414292175638,0.0
673,0.20177754480694893,0.0
674,-0.08044166371308877,0.0
675,-0.04058539145507113,0.0
676,0.008547299545496306,0.0
677,0.037661562108614086,0.0
678,-0.06982666011035182,0.0
679,-0.018948055093219864,0.0
680,-0.02588214488048777,0.0
681,-0.00018149114272034833,0.0
682,0.03991830800803469,0.0
683,0.035443547815063994,0.0
684,2.6205719404536176,0.0
685,6.842910599246089,0.0
686,-2.113753590658566,0.0
687,0.41353281827074767,0.0
688,0.027702294545253227,0.0
689,-0.09609061754199269,0.0
690,-0.08022353848923942,0.0
691,-0.14519992003034593,0.0
692,0.01545050213890597,0.0
693,-0.03239340762281626,0.0
694,0.020799867046872048,0.0
695,-0.020048695924239274,0.0
696,-0.0586435609317242,0.0
697,-0.1092415417967354,0.0
698,-0.0031495005459671026,0.0
699,-0.09679570581328187,0.0
700,0.202593125626592,0.0
701,4.770025397700299,0.0
702,4.704304908818887,0.0
703,-2.9687219477558195,0.0
704,1.4889049713539053,0.0
705,-0.7786821013830469,0.0
706,0.3067514746722114,0.0
707,-0.17533904723474383,0.0
708,0.07787165455986834,0.0
709,-0.08915982932864958,0.0
710,-0.07933976780930005,0.0
711,-0.10219926611657586,0.0
712,-0.04519948208061736,0.0
713,0.11518230428753774,0.0
714,0.03703377944420943,0.0
715,0.08812995044736543,0.0
716,0.10032571138194707,0.0
717,1.150587434944391,0.0
718,6.610507572359572,0.0
719,1.247564276651802,0.0
720,-1.7606261852930674,0.0
721,1.2304792577009098,0.0
722,-0.5795259590199789,0.0
723,0.26262148138397157,0.0
724,-0.09172249338036442,0.0
725,-0.022827029961251605,0.0
726,-0.021215449031003447,0.0
727,-0.0015125759156387197,0.0
728,-0.1403870222443514,0.0
729,0.026772320068333147,0.0
730,-0.03549607089267494,0.0
731,-0.08768370207033149,0.0
732,-0.09551792902679548,0.0
733,-0.07294171034514053,0.0
734,2.6839001043768604,0.0
735,6.759271814907749,0.0
736,-2.05958532950006,0.0
737,0.38066692122525714,0.0
738,0.05660421438289367,0.0
739,-0.07480896599057157,0.0
740,0.06096463237005678,0.0
741,0.02645500253686972,0.0
742,0.09562343560589076,0.0
743,0.08184663368333302,0.0
744,0.09872698112770795,0.0
745,0.05147777329968249,0.0
746,0.10443864532392816,0.0
747,0.04235933672761472,0.0
748,0.04387547537276311,0.0
749,-0.0051714139737149036,0.0
750,0.24986755271982394,0.0
751,4.856108919503678,0.0
752,4.78499180409488,0.0
753,-2.9820815624914063,0.0
754,1.5091324076949757,0.0
755,-0.7304482857767041,0.0
756,0.30891375634804114,0.0
757,-0.09610307222324371,0.0
758,0.022445860378661052,0.0
759,-0.00702594151752293,0.0
760,0.0006160426156443417,0.0
761,-0.010614657584839388,0.0
762,0.09738230796100499,0.0
763,0.03081707980625777,0.0
764,0.13375051089211498,0.0
765,-0.00546418958737515,0.0
766,-0.13986682901573094,0.0
767,1.0618476036014382,0.0
768,6.584789657368415,0.0
769,1.2262717162446366,0.0
770,-1.683357890974872,0.0
771,1.237253699535927,0.0
772,-0.5172598630752504,0.0
773,0.2643408136893935,0.0
774,-0.08310843362004688,0.0
775,0.12070302963498783,0.0
776,0.04541331201218975,0.0
777,0.03261742640938284,0.0
778,0.03518427485714673,0.0
779,0.03936652264979425,0.0
780,0.0571029254985476,0.0
781,0.0925326891780375,0.0
782,0.05448336783887639,0.0
783,-0.006491478481071622,0.0
784,2.7503591744755598,0.0
785,6.913406876125094,0.0
786,-1.9996044746121708,0.0
787,0.39292807526420526,0.0
788,0.18307379781334787,0.0
789,-0.005769446770468449,0.0
790,0.06030579398268917,0.0
791,-0.06376875471629763,0.0
792,-0.01208155580445442,0.0
793,-0.030601889028987653,0.0
794,0.05736879462276314,0.0
795,0.08249376260868549,0.0
796,0.04211490079613657,0.0
797,0.006882777216836181,0.0
798,0.026922332917250158,0.0
799,0.00418148476010452,0.0
800,0.36518588869331453,0.0
801,4.89447598412257,0.0
802,4.738763818159487,0.0
803,-2.870101620260904,0.0
804,1.7053961438272605,0.0
805,-0.6078179284864985,0.0
806,0.32731505098744923,0.0
807,-0.12057487644864118,0.0
808,0.05810856638010085,0.0
809,-0.02472297782139765,0.0
810,0.015755649603541047,0.0
811,0.0796393402233039,0.0
812,0.07981566530831506,0.0
813,0.24986209572946494,0.0
814,0.06515110477921374,0.0
815,0.014561683952131303,0.0
816,0.03941546502425315,0.0
817,1.2092945037540592,0.0
818,6.632435065342877,0.0
819,1.1784045649688184,0.0
820,-1.7092814010921276,0.0
821,1.1742930871297226,0.0
822,-0.5988456876862974,0.0
823,0.26093346655435395,0.0
824,-0.015631338965830025,0.0
825,0.020034775220051565,0.0
826,-0.049308928567519346,0.0
827,-0.008125968884319955,0.0
828,-0.02243846746263243,0.0
829,0.010425257797657538,0.0
830,0.05859978791699619,0.0
831,-0.03344309371674646,0.0
832,0.10208027524109049,0.0
833,0.0762965901211869,0.0
834,2.7141655244057525,0.0
835,6.989889044132634,0.0
836,-1.982629260412683,0.0
837,0.4481463429738972,0.0
838,-0.030813888936399345,0.0
839,0.005407960647715152,0.0
840,0.017892491322199965,0.0
841,0.04814426917188138,0.0
842,0.005183037382318741,0.0
843,0.10811772361309038,0.0
844,0.08324907166271187,0.0
845,0.05922916706081214,0.0
846,-0.04222310253734517,0.0
847,0.09165654241018949,0.0
848,0.07129879330454494,0.0
849,0.11972419644060826,0.0
850,0.33301462163834955,0.0
851,4.8589455975905835,0.0
852,4.849179612890796,0.0
853,-2.8848517590434057,0.0
854,1.6499163299351274,0.0
855,-0.6990143062763627,0.0
856,0.3930816607036113,0.0
857,-0.00634253528768966,0.0
858,0.10552278580532783,0.0
859,-0.013389911963345574,0.0
860,-0.009769027732266192,0.0
861,-0.011723215049105201,0.0
862,0.05072113192191226,0.0
863,0.028193508895643787,0.0
864,0.0804101639412727,0.0
865,0.09684434714255932,0.0
866,0.027670318304023837,0.0
867,1.1679893970010982,0.0
868,6.583052606369943,0.0
869,1.2302656456347734,0.0
870,-1.7076361015759813,0.0
871,1.1119400818701224,0.0
872,-0.5123740215526785,0.0
873,0.2871399067240726,0.0
874,-0.1364092258857228,0.0
875,0.029168493034540763,0.0
876,-0.02227834093052841,0.0
877,-0.04441884390174153,0.0
878,0.07985136998417665,0.0
879,-0.06505008841629141,0.0
880,-0.09411215803242116,0.0
881,-0.06716673409068555,0.0
882,0.03757274500172491,0.0
883,0.05177841553280336,0.0
884,2.6648087187534757,0.0
885,6.858197548137411,0.0
886,-2.1479880905425444,0.0
887,0.3534355602630369,0.0
888,-0.01197094561231269,0.0
889,-0.026874705816397546,0.0
890,0.0603502706050367,0.0
891,-0.008762316651563386,0.0
892,-0.08778705917792559,0.0
893,0.0070856221403173495,0.0
894,0.01745814210597362,0.0
895,0.03138210619799611,0.0
896,0.0030670893800872397,0.0
897,-0.020213231803416137,0.0
898,0.053618143492552964,0.0
899,-0.07131911920285552,0.0
900,0.33715511967730355,0.0
901,4.737786668021484,0.0
902,4.702466767544802,0.0
903,-3.095720415629516,0.0
904,1.5277068999516294,0.0
905,-0.7114808999702855,0.0
906,0.3130134904166497,0.0
907,-0.15781314130712953,0.0
908,0.01839649775741444,0.0
909,-0.02956444050876437,0.0
910,-0.04145218050220524,0.0
911,0.029367208635394375,0.0
912,-0.04966701096095144,0.0
913,0.06102272454540067,0.0
914,-0.0432088399236135,0.0
915,-0.0285680678233691,0.0
916,-0.07545478478781618,0.0
917,1.123427549058504,0.0
918,6.53825286777607,0.0
919,1.1765186971815424,0.0
920,-1.6409825437010783,0.0
921,1.1325305665243448,0.0
922,-0.4707529399056106,0.0
923,0.27041589571383184,0.0
924,-0.15821658492327806,0.0
925,0.017470693596549722,0.0
926,-0.024427048077818373,0.0
927,0.020046824357127395,0.0
928,0.008308454752681174,0.0
929,-0.05802914663940322,0.0
930,-0.07056048894309992,0.0
931,-0.020593569892507612,0.0
932,-0.0912641040339009,0.0
933,-0.060303154739858894,0.0
934,2.707010005373599,0.0
935,6.744971878093379,0.0
936,-2.1694214197224486,0.0
937,0.3076341081637766,0.0
938,-0.018134741410650395,0.0
939,-0.08681379842488585,0.0
940,0.026249742099451856,0.0
941,-0.08226175029669479,0.0
942,-0.03644882224340549,0.0
943,-0.11725714458847504,0.0
944,-0.058634510752120894,0.0
945,-0.0817523401446513,0.0
946,-0.0591204506452123,0.0
947,-0.022969753053835897,0.0
948,0.0440118475983705,0.0
949,-0.06696997422872508,0.0
950,0.29863032722003136,0.0
951,4.838479478109359,0.0
952,4.528832933994089,0.0
953,-3.118784712773638,0.0
954,1.615485124695986,0.0
955,-0.8034249951412611,0.0
956,0.3272592461139875,0.0
957,-0.0868005770902591,0.0
958,-0.0013403654374577988,0.0
959,-0.1123120889452345,0.0
960,-0.06534751763519361,0.0
961,0.04137847478588175,0.0
962,-0.06072346421717325,0.0
963,0.05593590636845184,0.0
964,0.0318368338598161,0.0
965,0.06826945268973784,0.0
966,-0.00236453454966532,0.0
967,1.1827376698281529,0.0
968,6.618053031315639,0.0
969,1.0992598363455348,0.0
970,-1.6918658171817165,0.0
971,1.2731976355614505,0.0
972,-0.5747100202594644,0.0
973,0.22568287016124997,0.0
974,-0.1323439599027803,0.0
975,0.00996231648249929,0.0
976,0.0001590246902485378,0.0
977,0.029352166460705494,0.0
978,0.0030138278468326875,0.0
979,0.018518440113060797,0.0
980,0.03729933225012172,0.0
981,-0.036591078944725214,0.0
982,0.0663284116015429,0.0
983,-0.01205150381192063,0.0
984,2.6492683825750776,0.0
985,6.903757054319437,0.0
986,-2.0091617115638174,0.0
987,0.4260698038175262,0.0
988,0.030056230107319774,0.0
989,-0.042391363941112946,0.0
990,0.04927818835012768,0.0
991,0.01965862700716453,0.0
992,-0.08138160236695917,0.0
993,0.008292414193695712,0.0
994,-0.04753031654840849,0.0
995,-0.018436801683185955,0.0
996,-0.017041545593630816,0.0
997,0.026854910137306502,0.0
998,0.01658573346228613,0.0
999,0.003547511895329207,0.0
1000,0.28616630324764064,0.0
1001,4.87559241411976,0.0
1002,4.663383966206846,0.0
1003,-3.068887013355359,0.0
1004,1.5092764069460327,0.0
1005,-0.6811257439284734,0.0
1006,0.2726233208977871,0.0
1007,-0.212314621063816,0.0
1008,-0.09544761021592355,0.0
1009,-0.061700504634332146,0.0
1010,-0.10000951278185816,0.0
1011,0.03956223528142713,0.0
1012,-0.06149403712042475,0.0
1013,0.01942074781602298,0.0
1014,-0.013512671077936859,0.0
1015,-0.015032285868009603,0.0
1016,0.029289736757668557,0.0
1017,1.1145486743902142,0.0
1018,6.577849999178894,0.0
1019,1.0528646999701896,0.0
1020,-1.7051138258681438,0.0
1021,1.210020702556794,0.0
1022,-0.569323271895552,0.0
1023,0.25979468653233107,0.0
1024,-0.0009522520748936752,0.0
1025,0.06589600293285924,0.0
1026,-0.01081874820152133,0.0
1027,0.10226170914641221,0.0
1028,-0.023903699054392664,0.0
1029,-0.06803302850213146,0.0
1030,0.04451144819131554,0.0
1031,0.019311750637390178,0.0
1032,-0.12041883984953752,0.0
1033,0.06273270556958059,0.0
1034,2.788882028520441,0.0
1035,6.754782603453359,0.0
1036,-2.151658160160413,0.0
1037,0.4634732644518815,0.0
1038,0.03529042798674099,0.0
1039,0.03494021675210553,0.0
1040,-0.007811386670086198,0.0
1041,0.09404246870726812,0.0
1042,0.07084044166353695,0.0
1043,0.059374594345440665,0.0
1044,0.1120780366700815,0.0
1045,0.1413407498768037,0.0
1046,0.09076453874397794,0.0
1047,0.03623175834161055,0.0
1048,0.02141455211865801,0.0
1049,0.07209829464395635,0.0
1050,0.3556731467863306,0.0
1051,4.919990838641988,0.0
1052,4.713953854899602,0.0
1053,-3.059220478837329,0.0
1054,1.6119918822937436,0.0
1055,-0.7514414204905924,0.0
1056,0.432682705301647,0.0
1057,-0.05179839940052768,0.0
1058,0.06411965008910138,0.0
1059,0.006320935550635405,0.0
1060,-0.03816095070154468,0.0
1061,-0.01040530935048605,0.0
1062,-0.0006506781667399042,0.0
1063,0.08511363974159736,0.0
1064,-0.010791194583985753,0.0
1065,-0.016105779707059287,0.0
1066,0.07348887700896861,0.0
1067,1.2022166982325202,0.0
1068,6.630229541187026,0.0
1069,1.087177254083456,0.0
1070,-1.7582968805012311,0.0
1071,1.2131313175552303,0.0
1072,-0.5624106463184826,0.0
1073,0.2721382081604665,0.0
1074,-0.0020198861957234637,0.0
1075,0.1539168925998392,0.0
1076,-0.009986406409446022,0.0
1077,0.010074254876051444,0.0
1078,0.08347094575026395,0.0
1079,0.018486849914630225,0.0
1080,0.0660893117844316,0.0
1081,-0.02729694582020281,0.0
1082,-0.031376748224649226,0.0
1083,0.02015184966974652,0.0
1084,2.744639831381162,0.0
1085,6.775293605726521,0.0
1086,-2.131550975459006,0.0
1087,0.525665138600888,0.0
1088,-0.003590001047008592,0.0
1089,-0.04548460065879369,0.0
1090,0.053704282847731384,0.0
1091,0.011446158712942729,0.0
1092,-0.03732622874047635,0.0
1093,0.028831704816411396,0.0
1094,0.035140636971146486,0.0
1095,-0.06017232475496342,0.0
1096,0.01921613458610981,0.0
1097,0.09949281394256038,0.0
1098,0.04524531520826375,0.0
1099,0.019851118578928725,0.0
1100,0.3796577095218368,0.0
1101,4.876567555802073,0.0
1102,4.608592565317818,0.0
1103,-2.961197802158348,0.0
1104,1.6272557965134253,0.0
1105,-0.7503612931831973,0.0
1106,0.3016681615439211,0.0
1107,-0.10976580865350523,0.0
1108,-0.008430687552741078,0.0
1109,0.03237243028369409,0.0
1110,0.03442602856980607,0.0
1111,-0.0015302959390828762,0.0
1112,0.04403662058381654,0.0
1113,0.03012178174197418,0.0
1114,0.008168490740545906,0.0
1115,0.12287198008139447,0.0
1116,-0.027571877089352156,0.0
1117,1.2096690495926925,0.0
1118,6.681074030363793,0.0
1119,0.9802913230609861,0.0
1120,-1.6893731858561247,0.0
1121,1.143105863064707,0.0
1122,-0.6270521188943623,0.0
1123,0.23843165844830788,0.0
1124,-0.0468147980596528,0.0
1125,0.011637028769458258,0.0
1126,-0.048252427532175846,0.0
1127,0.0462278243843805,0.0
1128,-0.035115464503761754,0.0
1129,0.02123482975236481,0.0
1130,-0.09874818972897316,0.0
1131,-0.06631036239636756,0.0
1132,-0.04431701518946752,0.0
1133,0.019127355252907145,0.0
1134,2.710633282512462,0.0
1135,6.727112637230507,0.0
1136,-2.249130634379174,0.0
1137,0.43227815163831057,0.0
1138,-0.01794848171863656,0.0
1139,-0.08077246897084468,0.0
1140,-0.0530862621241521,0.0
1141,-0.08255021858653921,0.0
1142,-0.11559698917309652,0.0
1143,0.007392673038156529,0.0
1144,-0.04144110739847029,0.0
1145,-0.04070691384261711,0.0
1146,-0.005643731662736767,0.0
1147,-0.08915673755565705,0.0
1148,0.02947233447020825,0.0
1149,-0.027194695964434572,0.0
1150,0.3151680554038749,0.0
1151,4.906935511423022,0.0
1152,4.519764197614519,0.0
1153,-3.0301823758037765,0.0
1154,1.576169784708735,0.0
1155,-0.785745253728043,0.0
1156,0.24042657154918373,0.0
1157,-0.17415736358491338,0.0
1158,0.07732381779452949,0.0
1159,0.025115543238082315,0.0
1160,-0.022829546998843667,0.0
1161,-0.09086116310807707,0.0
1162,-0.03903535575173832,0.0
1163,-0.015537220886699257,0.0
1164,-0.03529646150100242,0.0
1165,0.03412547536580539,0.0
1166,-0.0009010817405214304,0.0
1167,1.2433124128988162,0.0
1168,6.701764133525433,0.0
1169,1.0432810393674183,0.0
1170,-1.6237673578248706,0.0
1171,0.9984265623544398,0.0
1172,-0.6379408509705576,0.0
1173,0.1453390546383015,0.0
1174,-0.14823637916053203,0.0
1175,-0.11161226955985246,0.0
1176,-0.1294980431251319,0.0
1177,-0.0444274742968912,0.0
1178,-0.17079307570426827,0.0
1179,-0.1137048046376944,0.0
1180,-0.20003004268598165,0.0
1181,-0.19428811564253715,0.0
1182,-0.2330932239795607,0.0
1183,-0.20337164101427388,0.0
1184,2.568002245112617,0.0
1185,6.580554637907697,0.0
1186,-2.28125207718762,0.0
1187,0.3376082642669761,0.0
1188,-0.1270563739922999,0.0
1189,-0.14512024077868219,0.0
1190,-0.16214247457492242,0.0
1191,-0.06686220267153975,0.0
1192,-0.03696778237164039,0.0
1193,-0.06179164714858348,0.0
1194,-0.13451666078875255,0.0
1195,-0.04189394246607564,0.0
1196,-0.05536728275343463,0.0
1197,-0.07342041371531308,0.0
1198,0.011792726904512385,0.0
1199,-0.15913626122535654,0.0
1200,0.26944638767567164,0.0
1201,4.82679982313874,0.0
1202,4.4442235159636985,0.0
1203,-3.009705212332582,0.0
1204,1.4787499864750246,0.0
1205,-0.8127867328293856,0.0
1206,0.21702591765542278,0.0
1207,-0.15256999430910123,0.0
1208,-0.08016650472456466,0.0
1209,-0.12617192242824174,0.0
1210,-0.054824916306592544,0.0
1211,0.026477361236002132,0.0
1212,-0.1065574643810613,0.0
1213,-0.012246949310278494,0.0
1214,0.03534411071844262,0.0
1215,-0.08504854039123178,0.0
1216,0.043066608396048506,0.0
1217,1.154057551601232,0.0
1218,6.655535868580322,0.0
1219,0.8837327407661929,0.0
1220,-1.6456910604982773,0.0
1221,1.2056387120907022,0.0
1222,-0.5474160353287667,0.0
1223,0.19354764021931609,0.0
1224,-0.12257247012465015,0.0
1225,-0.021256284159109,0.0
1226,-0.04608111261115039,0.0
1227,-0.12310687617055618,0.0
1228,-0.04476051353877855,0.0
1229,-0.12186825439303595,0.0
1230,-0.07704400675087289,0.0
1231,-0.05558835017304191,0.0
1232,-0.05552064227571189,0.0
1233,-0.012565213987077072,0.0
1234,2.7121282235238615,0.0
1235,6.70804225063494,0.0
1236,-2.144045224276381,0.0
1237,0.44991156202210153,0.0
1238,-0.03132312083243935,0.0
1239,-0.05402179401890024,0.0
1240,-0.05664857683262463,0.0
1241,-0.055274492075561996,0.0
1242,-0.08865986577498568,0.0
1243,-0.00537724027516797,0.0
1244,-0.021583696630719164,0.0
1245,-0.08098472752044418,0.0
1246,-0.02160520374224476,0.0
1247,-0.07805615931932561,0.0
1248,-0.04235428657009712,0.0
1249,-0.05426243989533412,0.0
1250,0.271363761636805,0.0
1251,4.847054740738983,0.0
1252,4.4923601525308765,0.0
1253,-2.8947662674823316,0.0
1254,1.459846225461101,0.0
1255,-0.8654087976592778,0.0
1256,0.2662469755075802,0.0
1257,-0.04409380133015642,0.0
1258,0.06934388034822228,0.0
1259,0.03175709980680601,0.0
1260,-0.052099671644203024,0.0
1261,-0.0658398447511177,0.0
1262,0.05718121084157883,0.0
1263,-0.002819055267744202,0.0
1264,-0.04052143915239253,0.0
1265,0.08067311619807928,0.0
1266,0.05587709807915425,0.0
1267,1.1735883313060478,0.0
1268,6.7742157335296875,0.0
1269,1.0049986147877232,0.0
1270,-1.69261070716904,0.0
1271,1.067712491460334,0.0
1272,-0.6217201040751245,0.0
1273,0.20413031053407593,0.0
1274,-0.15779258473696445,0.0
1275,0.05993057840462701,0.0
1276,-0.03382051991942994,0.0
1277,-0.04781300740751522,0.0
1278,-0.01387546139543384,0.0
1279,0.07692549839361199,0.0
1280,0.0095383382603299,0.0
1281,0.02627040908085313,0.0
1282,0.12303886301779204,0.0
1283,0.056612304649729245,0.0
1284,2.7881201810502634,0.0
1285,6.692375337376454,0.0
1286,-2.2492828432104193,0.0
1287,0.41910292068506716,0.0
1288,-0.14458187107439874,0.0
1289,-0.1003780921672446,0.0
1290,-0.058143800229865386,0.0
1291,0.029124471787799675,0.0
1292,-0.0043397339086664165,0.0
1293,0.03629254281169073,0.0
1294,-0.042701215704708285,0.0
1295,-0.05395198841662005,0.0
1296,0.04114897666047038,0.0
1297,0.0019518170854842488,0.0
1298,0.061305883388585246,0.0
1299,-0.006483878134621276,0.0
1300,0.394725850184944,0.0
1301,4.903792468896273,0.0
1302,4.48915806645612,0.0
1303,-2.9038396629926218,0.0
1304,1.64841690372006,0.0
1305,-0.7738099108754215,0.0
1306,0.2849570701846439,0.0
1307,-0.06733870268359061,0.0
1308,0.02219975206490316,0.0
1309,-0.027456449580029955,0.0
1310,0.03250361489126407,0.0
1311,0.007775368063613677,0.0
1312,-0.051168874002820754,0.0
1313,-0.036878692982356194,0.0
1314,-0.011234389101231432,0.0
1315,-0.03261711051567641,0.0
1316,-0.0018332444643896148,0.0
1317,1.1929952138545998,0.0
1318,6.614342747843952,0.0
1319,0.8939782752434818,0.0
1320,-1.6528672462350744,0.0
1321,1.0762529120849442,0.0
1322,-0.6177578814850926,0.0
1323,0.18622038209492744,0.0
1324,-0.07396203434078207,0.0
1325,-0.030430644616136347,0.0
1326,-0.0009728373210120544,0.0
1327,-0.05887125343373427,0.0
1328,0.04466879916895781,0.0
1329,-0.022832734209661067,0.0
1330,0.053941207561152664,0.0
1331,0.04857482440657645,0.0
1332,0.0615362254366407,0.0
1333,-0.00038778034527739424,0.0
1334,2.8655959281157726,0.0
1335,6.825358915751432,0.0
1336,-2.1399314716722575,0.0
1337,0.5868832997560962,0.0
1338,0.08213070130666444,0.0
1339,0.057974416180849545,0.0
1340,0.029628044571308104,0.0
1341,0.11934019545914906,0.0
1342,0.01822903340351252,0.0
1343,0.030973797794253546,0.0
1344,0.07447134280213921,0.0
1345,0.14813643999330278,0.0
1346,0.09025793944895504,0.0
1347,0.10196520484121693,0.0
1348,-0.03261036886459373,0.0
1349,-0.08397539740581081,0.0
1350,0.38615167849649046,0.0
1351,4.993211198821336,0.0
1352,4.5552633012107355,0.0
1353,-2.977104090225469,0.0
1354,1.698650264518362,0.0
1355,-0.9074329932320443,0.0
1356,0.33502994030922323,0.0
1357,-0.16945275307556212,0.0
1358,0.11844000143305744,0.0
1359,-0.0015670786037681808,0.0
1360,-0.07992807246421087,0.0
1361,0.02592482175240194,0.0
1362,0.04914795512990461,0.0
1363,-0.003046060927606415,0.0
1364,0.004020032984993295,0.0
1365,0.03482942013621706,0.0
1366,-0.039332083047270455,0.0
1367,1.277935032241746,0.0
1368,6.709979295706906,0.0
1369,0.8606725220027894,0.0
1370,-1.554332911178718,0.0
1371,1.1250783037138485,0.0
1372,-0.5649325738905708,0.0
1373,0.3293817631819739,0.0
1374,-0.06873251872167184,0.0
1375,0.0026246233151674195,0.0
1376,0.12535669660191692,0.0
1377,0.04940728663175132,0.0
1378,0.036042503079136895,0.0
1379,0.015376827002649522,0.0
1380,0.13098466162449057,0.0
1381,0.015549981989189346,0.0
1382,0.008455832284101135,0.0
1383,0.09963916353536735,0.0
1384,2.886299845735425,0.0
1385,6.756655727668717,0.0
1386,-2.24075097251286,0.0
1387,0.4791904843190288,0.0
1388,-0.047878518674387305,0.0
1389,-0.02611775498580568,0.0
1390,-0.01651331738455349,0.0
1391,0.0635001969093798,0.0
1392,-0.021352720360531208,0.0
1393,0.16889952032768255,0.0
1394,-0.05771439042398672,0.0
1395,0.06500015798510977,0.0
1396,0.007187922977374677,0.0
1397,-0.06297892081369816,0.0
1398,0.048158408677447404,0.0
1399,0.07326886645334821,0.0
1400,0.4077100029437706,0.0
1401,4.894383503231718,0.0
1402,4.487784254088533,0.0
1403,-2.978224051091541,0.0
1404,1.5193305144803422,0.0
1405,-0.9041552365881071,0.0
1406,0.31656231133404944,0.0
1407,-0.21669079267518243,0.0
1408,-0.034400754646905646,0.0
1409,-0.19606527934919127,0.0
1410,-0.15605485808063152,0.0
1411,-0.06941449501171967,0.0
1412,-0.13177393629071477,0.0
1413,-0.2141699781440107,0.0
1414,-0.1346495415799962,0.0
1415,-0.06619736841314436,0.0
1416,-0.05694172635027272,0.0
1417,1.1511043532776586,0.0
1418,6.683760872775472,0.0
1419,0.8699447479442914,0.0
1420,-1.5730125804781443,0.0
1421,1.1370156045296635,0.0
1422,-0.5501296161908481,0.0
1423,0.3723995980984835,0.0
1424,0.018316627364696962,0.0
1425,0.10396077941493004,0.0
1426,0.06619919805269663,0.0
1427,-0.015363874811526432,0.0
1428,0.03256922261595308,0.0
1429,-0.044839732025855214,0.0
1430,-0.027819352875143234,0.0
1431,0.01987367172349453,0.0
1432,-0.08251823962368181,0.0
1433,-0.026124676356944092,0.0
1434,2.846731970099043,0.0
1435,6.641254308423233,0.0
1436,-2.250972145479366,0.0
1437,0.6167500909610057,0.0
1438,-0.07540705535427311,0.0
1439,-0.06557113569827422,0.0
1440,-0.07146832809615063,0.0
1441,0.009000421840346027,0.0
1442,-0.019833966105152607,0.0
1443,-0.015366478836021696,0.0
1444,0.015960118383512672,0.0
1445,-0.027957456449019424,0.0
1446,-0.07949399861588745,0.0
1447,-0.0665614843870406,0.0
1448,-0.03902372272523701,0.0
1449,-0.04422378539939171,0.0
1450,0.3888388865895722,0.0
1451,5.0460787394523265,0.0
1452,4.318135624861376,0.0
1453,-3.0994120706710886,0.0
1454,1.5858672519068404,0.0
1455,-0.8592716278736936,0.0
1456,0.257221114097913,0.0
1457,-0.2148588146513684,0.0
1458,0.022963966099097906,0.0
1459,-0.0634155726789653,0.0
1460,-0.018052891755742977,0.0
1461,-0.10757745713719276,0.0
1462,0.0314152880685568,0.0
1463,0.039219860883578234,0.0
1464,-0.10050988046673939,0.0
1465,-0.09733524547348428,0.0
1466,-0.03486214632315174,0.0
1467,1.2326314936160583,0.0
1468,6.68769634427983,0.0
1469,0.8302185992878853,0.0
1470,-1.5511813712565072,0.0
1471,1.1010573855854857,0.0
1472,-0.5887021930402279,0.0
1473,0.1616167247925833,0.0
1474,-0.16710941694903417,0.0
1475,0.03975903730908803,0.0
1476,-0.006083717476171861,0.0
1477,-0.10779190816546799,0.0
1478,0.06294269293481136,0.0
1479,-0.057341880935602114,0.0
1480,-0.10232217214733579,0.0
1481,-0.05932337681589213,0.0
1482,-0.08442065410872056,0.0
1483,-0.03211031286775178,0.0
1484,2.640187192082227,0.0
1485,6.531845880497597,0.0
1486,-2.3452601828782367,0.0
1487,0.5072499266096778,0.0
1488,-0.138855293230643,0.0
1489,-0.040071402053019824,0.0
1490,-0.006256547150538118,0.0
1491,-0.14396378673415064,0.0
1492,-0.0039765698709185796,0.0
1493,-0.06975911758078068,0.0
1494,-0.03518733805277327,0.0
1495,-0.02520298376571226,0.0
1496,0.033994601570010455,0.0
1497,-0.0794546122968162,0.0
1498,-0.00793804737897585,0.0
1499,-0.056730431514741664,0.0
1500,0.42112341233481304,0.0
1501,4.958351943356245,0.0
1502,4.36931953628034,0.0
1503,-3.032598260473149,0.0
1504,1.6136211396304168,0.0
1505,-0.7363465556256276,0.0
1506,0.3336641790662955,0.0
1507,-0.20218908362577442,0.0
1508,-0.03563405726624582,0.0
1509,-0.0007340905771267975,0.0
1510,0.02706465828216341,0.0
1511,-0.00844710597833279,0.0
1512,-0.01735624439427152,0.0
1513,-0.04092340349185453,0.0
1514,0.035996083538900915,0.0
1515,-0.04856085549564712,0.0
1516,0.062201027568516,0.0
1517,1.251037087218696,0.0
1518,6.766545678615129,0.0
1519,0.7943175573338581,0.0
1520,-1.4884253919706147,0.0
1521,1.1041724015774654,0.0
1522,-0.4866570828565743,0.0
1523,0.2879968621141631,0.0
1524,0.047527960325871546,0.0
1525,0.06417356507366719,0.0
1526,0.059899150100945125,0.0
1527,0.0033270435830820184,0.0
1528,0.09754064418421238,0.0
1529,0.06145291801848169,0.0
1530,-0.016936103174669467,0.0
1531,-0.05942897525685929,0.0
1532,-0.013461761458796902,0.0
1533,0.07214441874315335,0.0
1534,2.7926335332506937,0.0
1535,6.664186120566972,0.0
1536,-2.267584981431006,0.0
1537,0.4743277017593065,0.0
1538,-0.15326864117695863,0.0
1539,-0.05197956028057142,0.0
1540,-0.017629014069697364,0.0
1541,-0.11198550628854426,0.0
1542,0.03973079398246186,0.0
1543,-0.024723260378813314,0.0
1544,-0.01853458279301333,0.0
1545,-0.04782468256573294,0.0
1546,-0.025386824531090698,0.0
1547,-0.08069680231282325,0.0
1548,-0.015341846786556333,0.0
1549,-0.09973855333350438,0.0
1550,0.36748552766564946,0.0
1551,5.052503811003095,0.0
1552,4.392573096438292,0.0
1553,-2.9385140241517926,0.0
1554,1.5585519795285725,0.0
1555,-0.7226574861923276,0.0
1556,0.3031907077083093,0.0
1557,-0.09624787349976743,0.0
1558,0.0164513478782815,0.0
1559,-0.05892065684715385,0.0
1560,-0.10376502782308958,0.0
1561,-0.2042890612080147,0.0
1562,0.043618601377221455,0.0
1563,-0.10124062554616922,0.0
1564,-0.07997558249124541,0.0
1565,-0.05505307259092285,0.0
1566,-0.1929866859393144,0.0
1567,1.148035106368482,0.0
1568,6.667496335749322,0.0
1569,0.6527528727686931,0.0
1570,-1.570307416908307,0.0
1571,0.9698163691753932,0.0
1572,-0.5833769942128593,0.0
1573,0.3103210794380879,0.0
1574,-0.12330428181572392,0.0
1575,-0.028846928307156933,0.0
1576,-0.08694354735726223,0.0
1577,-0.07066262250551669,0.0
1578,-0.06667774713406319,0.0
1579,-0.09712671552778185,0.0
1580,-0.004123199924319851,0.0
1581,-0.09326981453497143,0.0
1582,-0.16175450525172053,0.0
1583,-0.04174928144239337,0.0
1584,2.827630489872059,0.0
1585,6.608574451128922,0.0
1586,-2.3069806392531382,0.0
1587,0.48450084224547046,0.0
1588,-0.007343687466045343,0.0
1589,-0.050579970063932576,0.0
1590,-0.09560231002708719,0.0
1591,-0.07192238656846295,0.0
1592,-0.08814285010174841,0.0
1593,-0.08085173210018606,0.0
1594,-0.04791793879961064,0.0
1595,-0.04827448901077709,0.0
1596,-0.015421688994313391,0.0
1597,-0.03522200510750112,0.0
1598,-0.16997722468583013,0.0
1599,-0.02651644396099727,0.0
1600,0.3379947399281731,0.0
1601,4.968814303257964,0.0
1602,4.30428556797468,0.0
1603,-3.0412751892306384,0.0
1604,1.6742469389974868,0.0
1605,-0.8724992589959644,0.0
1606,0.3095995796101283,0.0
1607,-0.2019391756662334,0.0
1608,0.04250767409300199,0.0
1609,-0.027074533220219542,0.0
1610,-0.00973075916764594,0.0
1611,0.026762281900507945,0.0
1612,-0.007822450996098747,0.0
1613,-0.07308904053159315,0.0
1614,0.018434235015418618,0.0
1615,0.028268716031701537,0.0
1616,-0.025772579858663935,0.0
1617,1.176753720593853,0.0
1618,6.693326961181328,0.0
1619,0.7615124842917238,0.0
1620,-1.577458944116392,0.0
1621,0.9851508999547156,0.0
1622,-0.566747395271921,0.0
1623,0.18806839970282957,0.0
1624,-0.18172489299416042,0.0
1625,-0.09215238946358467,0.0
1626,-0.05112969653709602,0.0
1627,0.031243936778181228,0.0
1628,-0.05222018519365799,0.0
1629,-0.034003928591279195,0.0
1630,-0.07972800485946632,0.0
1631,-0.05853210251359876,0.0
1632,-0.011627320737835942,0.0
1633,-0.06394802203303979,0.0
1634,2.848648328178838,0.0
1635,6.5696164742000605,0.0
1636,-2.329309542801714,0.0
1637,0.5396703308052678,0.0
1638,-0.22164601454256155,0.0
1639,-0.07776356077533818,0.0
1640,-0.1095220096554677,0.0
1641,-0.09579360112410035,0.0
1642,-0.07700077637603012,0.0
1643,-0.14550085016517883,0.0
1644,-0.0677876867608205,0.0
1645,-0.06123136745723211,0.0
1646,-0.11860225484709813,0.0
1647,-0.1706558802466197,0.0
1648,-0.09337638924129857,0.0
1649,-0.19057720085372487,0.0
1650,0.2748651194464234,0.0
1651,4.946318823705041,0.0
1652,4.171730965405767,0.0
1653,-2.9759237136919565,0.0
1654,1.5018407401869502,0.0
1655,-0.876637427162313,0.0
1656,0.29702061560539406,0.0
1657,-0.15498202273751224,0.0
1658,-0.04498511556998283,0.0
1659,0.038012358638021854,0.0
1660,0.012736436880681587,0.0
1661,-0.013813090660163917,0.0
1662,-0.05656421227754044,0.0
1663,-0.05903690345919046,0.0
1664,-0.07613059762884762,0.0
1665,0.006290892220951277,0.0
1666,-0.038810566828650285,0.0
1667,1.2290735444804168,0.0
1668,6.6598353338721274,0.0
1669,0.7244934072157134,0.0
1670,-1.5723668340723465,0.0
1671,0.9237088785023373,0.0
1672,-0.49697004238589304,0.0
1673,0.25518325208577386,0.0
1674,-0.17036763127643445,0.0
1675,-0.055588538066402314,0.0
1676,-0.06626838373782029,0.0
1677,-0.013942823001973925,0.0
1678,-0.10163989640861315,0.0
1679,-0.0273395896426663,0.0
1680,-0.006841726345620407,0.0
1681,0.021385446375717675,0.0
1682,-0.013944752070329046,0.0
1683,0.04084518919321941,0.0
1684,2.777254056038103,0.0
1685,6.530288193914017,0.0
1686,-2.364351349382189,0.0
1687,0.48988342905360444,0.0
1688,-0.08466495845354284,0.0
1689,0.0030048976340278505,0.0
1690,-0.06557090215337377,0.0
1691,-0.06475241233451438,0.0
1692,-0.034990134622783754,0.0
1693,-0.14814956153407627,0.0
1694,-0.014507478058236295,0.0
1695,-0.009788629402377368,0.0
1696,-0.04087205630864245,0.0
1697,-0.04995117857640774,0.0
1698,-0.0534094415580668,0.0
1699,-0.0872142379046598,0.0
1700,0.2930497066310764,0.0
1701,4.983533996031396,0.0
1702,4.147996372969181,0.0
1703,-2.95360079722286,0.0
1704,1.522308594218703,0.0
1705,-0.7589912525590696,0.0
1706,0.34194790982634227,0.0
1707,-0.1351548489070962,0.0
1708,-0.039533577800065674,0.0
1709,-0.09910235419251698,0.0
1710,-0.04232740331860291,0.0
1711,-0.03161918105609405,0.0
1712,-0.0687802199220395,0.0
1713,-0.07927158258821906,0.0
1714,-0.11122548997717699,0.0
1715,0.0017186628652136535,0.0
1716,-0.1559158279837128,0.0
1717,1.2437945771930865,0.0
1718,6.734296807077451,0.0
1719,0.7611423929181798,0.0
1720,-1.5447220502485737,0.0
1721,1.0834953362210147,0.0
1722,-0.6209667971104099,0.0
1723,0.13267734574647883,0.0
1724,-0.06847853205293167,0.0
1725,-0.06340297820035826,0.0
1726,-0.03236743987561437,0.0
1727,-0.07289637596854305,0.0
1728,-0.10488397163170358,0.0
1729,-0.026610372639562615,0.0
1730,-0.04996656327540608,0.0
1731,-0.009364109440316529,0.0
1732,0.04346255457778153,0.0
1733,0.0011796034011576848,0.0
1734,2.8660012302218965,0.0
1735,6.57342799721267,0.0
1736,-2.430518124628611,0.0
1737,0.6390072285428259,0.0
1738,-0.18823016771124296,0.0
1739,-0.0074908854390443,0.0
1740,-0.07824050203683933,0.0
1741,-0.05629215209545975,0.0
1742,-0.04231838485374951,0.0
1743,-0.0797903844007406,0.0
1744,-0.008611556531177143,0.0
1745,-0.05002606680678186,0.0
1746,-0.032051927842459776,0.0
1747,-0.004424711535170045,0.0
1748,0.0220764364625365,0.0
1749,0.0030932426938062793,0.0
1750,0.36979902018811556,0.0
1751,5.068906614190113,0.0
1752,4.236592618944175,0.0
1753,-2.9925419245678486,0.0
1754,1.5661695149459842,0.0
1755,-0.7804833398428723,0.0
1756,0.20193078493277947,0.0
1757,-0.1471572349105445,0.0
1758,0.148105667599079,0.0
1759,0.03834884938655657,0.0
1760,-0.017326985636372718,0.0
1761,0.07963337729513036,0.0
1762,-0.022970093044172236,0.0
1763,0.03046458448593883,0.0
1764,-0.10800478099462624,0.0
1765,-0.011849218414098205,0.0
1766,0.02676931554258663,0.0
1767,1.2427907050791849,0.0
1768,6.746351304752553,0.0
1769,0.6669385950777614,0.0
1770,-1.4663364625587927,0.0
1771,1.1426194808816386,0.0
1772,-0.4517905863345116,0.0
1773,0.28241078599457536,0.0
1774,-0.032477670220447605,0.0
1775,0.029934931329696705,0.0
1776,-0.05092305627511243,0.0
1777,0.024938003296414574,0.0
1778,-0.045524766442301065,0.0
1779,0.06050203541826292,0.0
1780,-0.008521115492304289,0.0
1781,0.03207165578790545,0.0
1782,-0.01202622094662433,0.0
1783,-0.05963446973894146,0.0
1784,2.9610530031557682,0.0
1785,6.545628805234837,0.0
1786,-2.4037101564966536,0.0
1787,0.5692302798478189,0.0
1788,-0.14826348196506156,0.0
1789,0.025011251276979254,0.0
1790,0.01773074188712163,0.0
1791,0.02694194914151659,0.0
1792,-0.03046375377558075,0.0
1793,-0.16935299607049714,0.0
1794,-0.09237371245793222,0.0
1795,-0.09150079139675106,0.0
1796,0.009398418717991755,0.0
1797,-0.1628462708880928,0.0
1798,-0.07326612222602913,0.0
1799,-0.11612716157045234,0.0
1800,0.26520106040861946,0.0
1801,4.981242806053905,0.0
1802,4.21263126017173,0.0
1803,-2.9968346384851197,0.0
1804,1.452686960953788,0.0
1805,-0.9729037031303276,0.0
1806,0.29776349286687437,0.0
1807,-0.058084197380185304,0.0
1808,0.046455685469690984,0.0
1809,0.014143705939927548,0.0
1810,0.033085613628625665,0.0
1811,0.010520480798148633,0.0
1812,0.05634153845825887,0.0
1813,0.08397932466558389,0.0
1814,0.10293899907049789,0.0
1815,0.11766560495482103,0.0
1816,0.0655262647707115,0.0
1817,1.3506031101991727,0.0
1818,6.766537550535761,0.0
1819,0.6830398569470799,0.0
1820,-1.4940123040756532,0.0
1821,1.023835343088297,0.0
1822,-0.5751780445602079,0.0
1823,0.28610049562915213,0.0
1824,-0.08643087072180787,0.0
1825,-0.0014068844940512103,0.0
1826,0.035477223797322814,0.0
1827,-0.009760249402494021,0.0
1828,0.06607362689201071,0.0
1829,0.065393208581202,0.0
1830,-0.019523411462576714,0.0
1831,0.06040042327930846,0.0
1832,0.006400236366048938,0.0
1833,0.051540330289618935,0.0
1834,2.979378276236979,0.0
1835,6.640083160233172,0.0
1836,-2.365408338372374,0.0
1837,0.6950163005766438,0.0
1838,-0.10294413239924832,0.0
1839,-0.02706158464223348,0.0
1840,-0.013847808925045214,0.0
1841,0.0730565571968766,0.0
1842,0.07550757998355545,0.0
1843,-0.006049808813196125,0.0
1844,-0.11370177940003622,0.0
1845,0.04260798038616132,0.0
1846,0.06839481229245928,0.0
1847,0.022727379261182026,0.0
1848,-0.0036251178419608888,0.0
1849,0.05533013172959793,0.0
1850,0.4691660261537699,0.0
1851,5.153864938713337,0.0
1852,4.231983253769988,0.0
1853,-2.9253381116514725,0.0
1854,1.6307117497561392,0.0
1855,-0.8020119598154727,0.0
1856,0.3539326356228563,0.0
1857,-0.02662414648232557,0.0
1858,0.07472144140628956,0.0
1859,0.0609186814288681,0.0
1860,0.06880234288610211,0.0
1861,0.07354762174540762,0.0
1862,0.07613484290347584,0.0
1863,-0.007235126853291349,0.0
1864,0.017279600695206933,0.0
1865,0.09734962711569353,0.0
1866,0.023331605503354086,0.0
1867,1.3894662582377129,0.0
1868,6.808253708239242,0.0
1869,0.6320404359453617,0.0
1870,-1.4236329331415927,0.0
1871,1.0090729531749383,0.0
1872,-0.5419909029445709,0.0
1873,0.2282901934015262,0.0
1874,-0.021167174214804945,0.0
1875,0.017934380421929602,0.0
1876,-0.019684144429879143,0.0
1877,0.04430521211711984,0.0
1878,-0.042332933717422395,0.0
1879,0.014688203256602408,0.0
1880,-0.0435557457910024,0.0
1881,0.08670706659331051,0.0
1882,-0.013852569790124596,0.0
1883,0.06891516531750626,0.0
1884,3.009782749772133,0.0
1885,6.633219081684873,0.0
1886,-2.3249472789711287,0.0
1887,0.7058423056717882,0.0
1888,-0.19756283627489785,0.0
1889,0.026600674903593614,0.0
1890,-0.003503033199759848,0.0
1891,0.0003730749329038975,0.0
1892,-8.652249302574117e-05,0.0
1893,-0.05074599405621956,0.0
1894,-0.10305821005844189,0.0
1895,-0.03091325679231558,0.0
1896,-0.046827400576393355,0.0
1897,-0.01103468189611067,0.0
1898,-0.047093546129817886,0.0
1899,0.015862679924231265,0.0
1900,0.30197518681176616,0.0
1901,5.124740118172564,0.0
1902,4.227687743784048,0.0
1903,-3.0433880666407034,0.0
1904,1.6275926471043944,0.0
1905,-0.8002356593815806,0.0
1906,0.29636336831888155,0.0
1907,-0.1510192045293263,0.0
1908,0.056029323300042566,0.0
1909,-0.029042962185804086,0.0
1910,-0.0019984009287783745,0.0
1911,-0.017639199492372082,0.0
1912,0.11927321373035876,0.0
1913,0.08998284674304965,0.0
1914,0.03820300033743125,0.0
1915,0.11193175410548553,0.0
1916,0.05574236878865825,0.0
1917,1.2840819944843915,0.0
1918,6.762348050461665,0.0
1919,0.6940428717406248,0.0
1920,-1.3216252823792491,0.0
1921,1.0773068667797447,0.0
1922,-0.48562267536642,0.0
1923,0.22755910998842582,0.0
1924,0.005044060966868241,0.0
1925,-0.1060148857216931,0.0
1926,-0.01834784565140747,0.0
1927,0.049175578204347745,0.0
1928,0.05951968774628861,0.0
1929,0.00808774836484102,0.0
1930,0.006959030100399474,0.0
1931,0.042594794437615144,0.0
1932,0.08196331759259486,0.0
1933,0.07344004279179263,0.0
1934,2.9911265502276425,0.0
1935,6.6772391681192165,0.0
1936,-2.429153238368976,0.0
1937,0.6889545607598313,0.0
1938,-0.017012976085227588,0.0
1939,0.05619910234095057,0.0
1940,0.05095388136674242,0.0
1941,0.0929092728179935,0.0
1942,0.1109973610507314,0.0
1943,0.060022105352161154,0.0
1944,0.02481846518784798,0.0
1945,0.004578049323879188,0.0
1946,0.10922840519264522,0.0
1947,0.05246368526154113,0.0
1948,0.07163524130454477,0.0
1949,-0.010499828613626326,0.0
1950,0.44418076370857695,0.0
1951,5.208116870148907,0.0
1952,4.27170451684431,0.0
1953,-2.9340029321721453,0.0
1954,1.5863861364475813,0.0
1955,-0.7413461813632696,0.0
1956,0.39059600818590834,0.0
1957,-0.09278881197213201,0.0
1958,0.06490611626114264,0.0
1959,0.09538188828435011,0.0
1960,-0.012496014511433576,0.0
1961,0.11851212814579166,0.0
1962,0.008048499892934977,0.0
1963,0.05214847566127444,0.0
1964,0.06653701560819111,0.0
1965,-0.015439306844603172,0.0
1966,0.07516784820388762,0.0
1967,1.3237052170363615,0.0
1968,6.762820251049117,0.0
1969,0.6872033531112767,0.0
1970,-1.4021730533695504,0.0
1971,1.1063211406836588,0.0
1972,-0.4180720947552308,0.0
1973,0.35893785994193034,0.0
1974,-0.004335039224306704,0.0
1975,0.11124525679064015,0.0
1976,0.07747433516644288,0.0
1977,0.06438417148530212,0.0
1978,0.07564588471769552,0.0
1979,0.09877753510071781,0.0
1980,-0.11635138129988007,0.0
1981,-0.005868460356047517,0.0
1982,0.05023903672497981,0.0
1983,0.09248839622899993,0.0
1984,3.0390212349455505,0.0
1985,6.567729550550015,0.0
1986,-2.3116298698160964,0.0
1987,0.6663105338272336,0.0
1988,-0.13937694984689214,0.0
1989,0.14911900348190088,0.0
1990,-0.04666936372937914,0.0
1991,0.07814580210847556,0.0
1992,-0.017971146007844246,0.0
1993,0.036936462051153265,0.0
1994,-0.08573446160720423,0.0
1995,0.022562569165697953,0.0
1996,0.015779881095948422,0.0
1997,0.023749947102453834,0.0
1998,0.08923175324180983,0.0
1999,0.007425001251154788,0.0
2000,0.3930655829937655,0.0
2001,5.100107834164919,0.0
2002,4.180021749446549,0.0
2003,-2.9983909966753552,0.0
2004,1.5583833033382681,0.0
2005,-0.8129289704691182,0.0
2006,0.3192171488610581,0.0
2007,-0.20022110112011432,0.0
2008,0.017311034741815015,0.0
2009,0.11455561624673324,0.0
2010,0.09643992365881479,0.0
2011,0.03523004078363642,0.0
2012,0.02339125996777716,0.0
2013,-0.0009987619983438736,0.0
2014,-0.031157410333636205,0.0
2015,-0.03261146477600134,0.0
2016,0.05015798423752538,0.0
2017,1.3471121000810011,0.0
2018,6.807114603134817,0.0
2019,0.6191594245054807,0.0
2020,-1.4004114062788504,0.0
2021,1.0556040011406047,0.0
2022,-0.5024339301974505,0.0
2023,0.21347776623891138,0.0
2024,-0.03568573557214107,0.0
2025,-0.024414323124452988,0.0
2026,0.06937201432054338,0.0
2027,0.038990034470343445,0.0
2028,0.011774186787557595,0.0
2029,0.05414199620857897,0.0
2030,-0.07908026309339969,0.0
2031,0.06908076529143735,0.0
2032,-0.06966148962760992,0.0
2033,0.1241422457363095,0.0
2034,3.110516106499467,0.0
2035,6.581966483124864,0.0
2036,-2.3366474815937788,0.0
2037,0.7280742614164577,0.0
2038,-0.11978404834817624,0.0
2039,-0.009378656156750223,0.0
2040,-0.025636204397042856,0.0
2041,0.030403951684232492,0.0
2042,-0.013355901353182584,0.0
2043,0.06264120804595498,0.0
2044,0.033677305243294535,0.0
2045,0.08857329342469872,0.0
2046,-0.08465972754037751,0.0
2047,-0.011926064053246112,0.0
2048,0.020306206700374342,0.0
2049,0.017697997161187303,0.0
2050,0.4568947340822446,0.0
2051,5.145150183800501,0.0
2052,4.111892830825132,0.0
2053,-2.8938122377274387,0.0
2054,1.6998205714742483,0.0
2055,-0.7396100305268195,0.0
2056,0.445684461481332,0.0
2057,0.01567452284389842,0.0
2058,0.08405920806638084,0.0
2059,0.16842171594677346,0.0
2060,0.014493639496007946,0.0
2061,0.07638816928457834,0.0
2062,0.12549909640360707,0.0
2063,0.015518851122349207,0.0
2064,0.08830641726027368,0.0
2065,0.09716341512054237,0.0
2066,0.038255520838022763,0.0
2067,1.2974568748193236,0.0
2068,6.886250710725816,0.0
2069,0.5528238705761669,0.0
2070,-1.4422748149426263,0.0
2071,1.0196512218788216,0.0
2072,-0.516726879165742,0.0
2073,0.23402412314591511,0.0
2074,-0.05082711873794051,0.0
2075,0.02095639225452517,0.0
2076,-0.06719861198062405,0.0
2077,0.03383414931986928,0.0
2078,0.034633581877769284,0.0
2079,0.1541485470845281,0.0
2080,0.06472465644874759,0.0
2081,0.13850464547474284,0.0
2082,0.10547431674271578,0.0
2083,0.16930921424776513,0.0
2084,3.071243174340012,0.0
2085,6.66912868865246,0.0
2086,-2.297397603632436,0.0
2087,0.8128335223867612,0.0
2088,-0.061858610291238084,0.0
2089,0.1339493488844267,0.0
2090,0.010086574149454922,0.0
2091,0.07799498256958723,0.0
2092,0.02986351512032826,0.0
2093,-0.045775154338916074,0.0
2094,0.007596902343118828,0.0
2095,-0.06258794625924405,0.0
2096,0.08057939873826775,0.0
2097,-0.01647537830740981,0.0
2098,0.0129811034528407,0.0
2099,0.030370458862408918,0.0
2100,0.4445185804825462,0.0
2101,5.282775337603766,0.0
2102,4.245190977362039,0.0
2103,-2.893836366903308,0.0
2104,1.5705274727925478,0.0
2105,-0.8479296942594671,0.0
2106,0.2650416317517971,0.0
2107,0.06387966047840593,0.0
2108,0.0020262157959769905,0.0
2109,-0.07167229656936593,0.0
2110,-0.008781231787972675,0.0
2111,0.03031658273735875,0.0
2112,0.005258277428185734,0.0
2113,-0.007827855255082707,0.0
2114,0.08264460954785015,0.0
2115,0.008609185692990974,0.0
2116,-0.046819283175934166,0.0
2117,1.2298771517858398,0.0
2118,6.744620425975851,0.0
2119,0.5554789706903908,0.0
2120,-1.3928267046324774,0.0
2121,0.9894794553830726,0.0
2122,-0.5562229296846275,0.0
2123,0.26978484361543464,0.0
2124,-0.010443927861345334,0.0
2125,0.08151297094229758,0.0
2126,-0.09304683448416957,0.0
2127,-0.02386179380424938,0.0
2128,0.08024531037367816,0.0
2129,-0.006623150351386447,0.0
2130,-0.0718588118535981,0.0
2131,0.08049537906967644,0.0
2132,-0.023386521865022034,0.0
2133,0.067261433205668,0.0
2134,3.1267537008130044,0.0
2135,6.612972559676441,0.0
2136,-2.334922782136272,0.0
2137,0.7726587323727717,0.0
2138,-0.05341468715093437,0.0
2139,0.03798755990048626,0.0
2140,0.08500804266141397,0.0
2141,0.05622513106008947,0.0
2142,0.21731090856324356,0.0
2143,0.013453205680350383,0.0
2144,0.04576516490158834,0.0
2145,0.12883030144291188,0.0
2146,0.002054404226020809,0.0
2147,0.06322333949974288,0.0
2148,0.06265476154689598,0.0
2149,0.01968865604506785,0.0
2150,0.5030429031072043,0.0
2151,5.186274437060322,0.0
2152,4.08126692016805,0.0
2153,-2.8663409669749367,0.0
2154,1.5481269252108723,0.0
2155,-0.8306956950507209,0.0
2156,0.281756667554854,0.0
2157,-0.15528774994359443,0.0
2158,0.13167354321642474,0.0
2159,0.05686046340012075,0.0
2160,0.027510202055945517,0.0
2161,0.048387321362207934,0.0
2162,0.025388648164689536,0.0
2163,0.1601932351625895,0.0
2164,-0.026977464729068784,0.0
2165,-0.0022706600308482067,0.0
2166,0.06600635736506713,0.0
2167,1.340470581743597,0.0
2168,6.877834381914547,0.0
2169,0.624578889670385,0.0
2170,-1.3718600739328002,0.0
2171,0.9548499688472981,0.0
2172,-0.6186740412178617,0.0
2173,0.2558101936469403,0.0
2174,-0.08574199208253383,0.0
2175,0.10739264551766092,0.0
2176,0.005077496820333389,0.0
2177,-0.004834623261691935,0.0
2178,0.05532915818073736,0.0
2179,0.10936548121047189,0.0
2180,0.011248904493862275,0.0
2181,0.0459843958429059,0.0
2182,0.13828284124457677,0.0
2183,0.1197636625534036,0.0
2184,3.1728216691475395,0.0
2185,6.583850399135487,0.0
2186,-2.429010015661664,0.0
2187,0.7215480902545173,0.0
2188,-0.056845980023417994,0.0
2189,0.02076544354756843,0.0
2190,-0.05264417186455759,0.0
2191,-0.03262267407521334,0.0
2192,0.06787977579626359,0.0
2193,-0.01970134549681675,0.0
2194,0.059390181849950555,0.0
2195,-0.03253271192680049,0.0
2196,-0.022267587789834842,0.0
2197,0.053320478212741176,0.0
2198,-0.02509015278607109,0.0
2199,0.0019835526048273405,0.0
2200,0.42836111148348743,0.0
2201,5.193137383831619,0.0
2202,4.016424288319139,0.0
2203,-2.8759868535252195,0.0
2204,1.583850040559136,0.0
2205,-0.8575940842748114,0.0
2206,0.2896453905764206,0.0
2207,-0.16410751346148203,0.0
2208,-0.03373277563670839,0.0
2209,-0.005147941974082387,0.0
2210,0.05480783426636418,0.0
2211,0.06598823663253858,0.0
2212,-0.02056137456015579,0.0
2213,-0.029228358393156954,0.0
2214,-0.09333917953023999,0.0
2215,-0.01908046376801426,0.0
2216,-0.10265195503446584,0.0
2217,1.3382532633272766,0.0
2218,6.709730998616839,0.0
2219,0.5562875300017704,0.0
2220,-1.419173217120021,0.0
2221,0.9333861863655922,0.0
2222,-0.43218539414483775,0.0
2223,0.16883643737546417,0.0
2224,-0.2387505034049004,0.0
2225,0.003718487143474211,0.0
2226,0.0009393603495784428,0.0
2227,-0.06686165645092851,0.0
2228,-0.001770921960305663,0.0
2229,0.023134175820603675,0.0
2230,-0.014608561357083175,0.0
2231,-0.016188850351605683,0.0
2232,-0.0715149177960324,0.0
2233,0.04033203269399241,0.0
2234,2.9651552906647938,0.0
2235,6.475795339820028,0.0
2236,-2.453217080907656,0.0
2237,0.6986520482137006,0.0
2238,-0.18989184505012244,0.0
2239,0.022355868726557156,0.0
2240,-0.0632180281872356,0.0
2241,-0.05542080839883139,0.0
2242,-0.02418447252096106,0.0
2243,-0.029297455633842742,0.0
2244,-0.09552769135296003,0.0
2245,-0.06348967298267699,0.0
2246,-0.10954771400623312,0.0
2247,-0.08664748680610963,0.0
2248,-0.07790144131741548,0.0
2249,-0.10579866754890052,0.0
2250,0.4164914791065755,0.0
2251,5.1610396798782725,0.0
2252,3.993906949492567,0.0
2253,-3.00852375450608,0.0
2254,1.579556431207251,0.0
2255,-0.8574390108570876,0.0
2256,0.2827794798853008,0.0
2257,-0.16451527488335227,0.0
2258,-0.060946717363016004,0.0
2259,-0.06830426096982692,0.0
2260,-0.05790160318912342,0.0
2261,-0.13160122293043722,0.0
2262,-0.01910904111555864,0.0
2263,-0.13689927625612996,0.0
2264,-0.0702100225682164,0.0
2265,-0.0011792628112098635,0.0
2266,-0.021591966095922115,0.0
2267,1.3423122471882794,0.0
2268,6.779741151755141,0.0
2269,0.3981810187491589,0.0
2270,-1.38477637644298,0.0
2271,0.9804968945522748,0.0
2272,-0.5488292872140932,0.0
2273,0.21393459890384114,0.0
2274,-0.06708781637601978,0.0
2275,-0.046365859842716795,0.0
2276,0.029694825168364233,0.0
2277,-0.034247897487976395,0.0
2278,-0.04910327777072386,0.0
2279,0.01234857833805441,0.0
2280,-0.0353186400413018,0.0
2281,0.017455130459115016,0.0
2282,-0.034106067326243245,0.0
2283,0.02433490682860788,0.0
2284,3.0397645566213467,0.0
2285,6.548844879227413,0.0
2286,-2.47791730960793,0.0
2287,0.6460765095499323,0.0
2288,-0.24225354611572944,0.0
2289,-0.09928279302920598,0.0
2290,-0.19199511924391566,0.0
2291,-0.07567381198234731,0.0
2292,-0.10473211024789195,0.0
2293,-0.07013576039668648,0.0
2294,-0.05742689493117521,0.0
2295,-0.03582690293575058,0.0
2296,-0.13064703776385134,0.0
2297,-0.0876576168118365,0.0
2298,-0.09211802434203979,0.0
2299,0.029993954620767788,0.0
2300,0.31692669084511615,0.0
2301,5.3069354065015855,0.0
2302,3.9606582346486623,0.0
2303,-2.9496798338331525,0.0
2304,1.589460257463264,0.0
2305,-0.8760370544712848,0.0
2306,0.24105907947467475,0.0
2307,-0.17499787039983405,0.0
2308,-0.1138668086537593,0.0
2309,-0.09426774173244022,0.0
2310,-0.1367929881089454,0.0
2311,-0.0601926961183534,0.0
2312,-0.060523912579400055,0.0
2313,-0.09300018803297261,0.0
2314,-0.06655986023973548,0.0
2315,-0.05988766595969616,0.0
2316,-0.07823062691896149,0.0
2317,1.2022169925109785,0.0
2318,6.710941274011079,0.0
2319,0.4212543963644931,0.0
2320,-1.3800423170238367,0.0
2321,0.9550760140587199,0.0
2322,-0.5031223861182462,0.0
2323,0.18287537312202504,0.0
2324,-0.15592712324434413,0.0
2325,-0.05817242713885769,0.0
2326,-0.011273437959127025,0.0
2327,-0.01590117813256369,0.0
2328,-0.0261112861758994,0.0
2329,-0.007833645240739213,0.0
2330,-0.10988852723679227,0.0
2331,-0.0996949047230123,0.0
2332,-0.029408137200086528,0.0
2333,0.10127252376322969,0.0
2334,3.0808937094006894,0.0
2335,6.537889415923839,0.0
2336,-2.4354268546999283,0.0
2337,0.7421821927153862,0.0
2338,-0.27660317875318935,0.0
2339,0.06299657288904059,0.0
2340,-0.1078028231838502,0.0
2341,-0.020210330540931017,0.0
2342,-0.06069078717912251,0.0
2343,-0.04274850584142896,0.0
2344,0.013210126389882261,0.0
2345,-0.020466481244006966,0.0
2346,-0.11729246032116519,0.0
2347,0.046095145400841475,0.0
2348,0.03957771411543333,0.0
2349,-0.016577200050660677,0.0
2350,0.4016942728566728,0.0
2351,5.24696887362333,0.0
2352,3.979458064230702,0.0
2353,-2.8439266561714645,0.0
2354,1.5741633690422119,0.0
2355,-0.8518948628435687,0.0
2356,0.30973931202494337,0.0
2357,-0.1387383903083147,0.0
2358,-0.11880137182213049,0.0
2359,0.030430726345159073,0.0
2360,0.030150297723596564,0.0
2361,-0.1552554258550904,0.0
2362,-0.024190868236164384,0.0
2363,-0.08041381167869574,0.0
2364,-0.041984308657539056,0.0
2365,-0.05913363432091008,0.0
2366,-0.06104912219255762,0.0
2367,1.2917341271277898,0.0
2368,6.805680416711001,0.0
2369,0.3784362560868514,0.0
2370,-1.268940584321375,0.0
2371,0.9289947477508501,0.0
2372,-0.45901897952225407,0.0
2373,0.2254365375020176,0.0
2374,-0.03208483644563826,0.0
2375,0.05520396500529909,0.0
2376,0.06692489855352414,0.0
2377,0.07744428633542821,0.0
2378,-0.03520077840149187,0.0
2379,0.03883970202112448,0.0
2380,0.06677851448726796,0.0
2381,-0.11809030351341909,0.0
2382,0.007849931025879355,0.0
2383,0.07806054578261364,0.0
2384,3.0986896422080954,0.0
2385,6.502260115710606,0.0
2386,-2.378260552688363,0.0
2387,0.7306383482652973,0.0
2388,-0.18980403009173719,0.0
2389,0.08002048799901268,0.0
2390,-0.04342200500279743,0.0
2391,0.04025747399342044,0.0
2392,-0.005590930609014052,0.0
2393,0.04995887198400019,0.0
2394,-0.06962343933050688,0.0
2395,-0.0012601238692716288,0.0
2396,0.07297543177086477,0.0
2397,0.1204313630774317,0.0
2398,0.11665291133359576,0.0
2399,-0.01231223224010479,0.0
2400,0.45610524119347245,0.0
2401,5.26167633131004,0.0
2402,4.100543026334206,0.0
2403,-2.9187790645842644,0.0
2404,1.5864164056747718,0.0
2405,-0.7661096784500752,0.0
2406,0.3520028849612049,0.0
2407,-0.06460424249442061,0.0
2408,0.1950915132947999,0.0
2409,0.033204469322785694,0.0
2410,0.07966124175516547,0.0
2411,0.011386210692415525,0.0
2412,-0.014095591566942643,0.0
2413,0.012218725230357134,0.0
2414,0.05470367039506753,0.0
2415,0.03685139871085644,0.0
2416,0.0386833252168467,0.0
2417,1.4906237003380574,0.0
2418,6.794778257346189,0.0
2419,0.4612362341843788,0.0
2420,-1.261799702179376,0.0
2421,0.9853174348668837,0.0
2422,-0.4453336222853104,0.0
2423,0.28006910914559496,0.0
2424,0.06979816072839183,0.0
2425,0.040247719559552086,0.0
2426,0.09717136019337608,0.0
2427,0.04080503182072352,0.0
2428,0.09081997962120397,0.0
2429,0.10047722947568288,0.0
2430,0.06330654316872353,0.0
2431,0.028230464093144676,0.0
2432,-0.0399495911276442,0.0
2433,0.12205578407093882,0.0
2434,3.1595568521642745,0.0
2435,6.474897508392304,0.0
2436,-2.401463399140591,0.0
2437,0.7871515258731858,0.0
2438,-0.13596585305540485,0.0
2439,0.06021036302851197,0.0
2440,-0.045201748805781275,0.0
2441,-0.12611626604678983,0.0
2442,0.07694227551501567,0.0
2443,0.02243678815674331,0.0
2444,0.06734189620494066,0.0
2445,0.047950713766912095,0.0
2446,0.05885876065484964,0.0
2447,0.02439661839125043,0.0
2448,0.03580536842243984,0.0
2449,0.018088403142934584,0.0
2450,0.3822761529362535,0.0
2451,5.29000863413628,0.0
2452,4.058668550688628,0.0
2453,-2.7948079324315027,0.0
2454,1.6266654499182844,0.0
2455,-0.7338996723169667,0.0
2456,0.36725611522342305,0.0
2457,-0.03711160252577758,0.0
2458,0.1565099362588004,0.0
2459,0.11376165234464147,0.0
2460,0.017791136806195835,0.0
2461,-0.03446570673516975,0.0
2462,-0.051404115342677394,0.0
2463,0.07474936933799409,0.0
2464,0.0017700848979804971,0.0
2465,0.03805800650833574,0.0
2466,-0.041623162864980225,0.0
2467,1.3209603478811305,0.0
2468,6.82564871119129,0.0
2469,0.34340680067507223,0.0
2470,-1.311456203550015,0.0
2471,0.9174358660517761,0.0
2472,-0.5144186131568659,0.0
2473,0.16421903793706225,0.0
2474,-0.00443049773742267,0.0
2475,-0.013419339822006245,0.0
2476,0.013039069323660217,0.0
2477,0.017594683339639483,0.0
2478,0.0034135142047764,0.0
2479,-0.03931876038321888,0.0
2480,0.08491586883981374,0.0
2481,-0.0024304450999642884,0.0
2482,0.01439610774247534,0.0
2483,0.09957132308741212,0.0
2484,3.158041485690587,0.0
2485,6.431031145686822,0.0
2486,-2.5416083218338312,0.0
2487,0.8034668645017992,0.0
2488,-0.20502106398312797,0.0
2489,0.016436067568816527,0.0
2490,-0.05582525070173863,0.0
2491,-0.08152427788864869,0.0
2492,-0.053432419698029365,0.0
2493,-0.07054437249452525,0.0
2494,-0.028763916006703517,0.0
2495,-0.035540898277002346,0.0
2496,-0.013881274687807588,0.0
2497,-0.014806511512961019,0.0
2498,-0.006956832074569631,0.0
2499,0.09286826570134227,0.0
2500,0.3970743768112047,0.0
2501,5.280840643468515,0.0
2502,3.9650226705141343,0.0
2503,-2.9218356771248164,0.0
2504,1.5682561117172986,0.0
2505,-0.9970590753901529,0.0
2506,0.25498792215379623,0.0
2507,-0.14378398171457824,0.0
2508,0.006730794063018367,0.0
2509,-0.04822991201091934,0.0
2510,-0.007584024830732075,0.0
2511,-0.019095741983965443,0.0
2512,-0.04936119992726118,0.0
2513,-0.024290679121171853,0.0
2514,-0.03153833165521494,0.0
2515,0.013488830803339555,0.0
2516,-0.0309115418187563,0.0
2517,1.4141689035836311,0.0
2518,6.70745111916768,0.0
2519,0.3544082513330506,0.0
2520,-1.2875552025249202,0.0
2521,0.8876043865421018,0.0
2522,-0.43220311272490697,0.0
2523,0.2145049086266065,0.0
2524,-0.2555835243392771,0.0
2525,-0.07477141218170827,0.0
2526,-0.004371814215711804,0.0
2527,-0.05174085295503317,0.0
2528,-0.08259145122349684,0.0
2529,-0.07090121432080118,0.0
2530,0.002036259859978698,0.0
2531,-0.12478223625003024,0.0
2532,-0.11008891190829495,0.0
2533,-0.04715292804560884,0.0
2534,3.141823492703822,0.0
2535,6.41459590693116,0.0
2536,-2.569965501020562,0.0
2537,0.889289277368658,0.0
2538,-0.2251451128397091,0.0
2539,-0.03450959436412965,0.0
2540,-0.06368630691974292,0.0
2541,-0.12481669302222156,0.0
2542,-0.14626448743379325,0.0
2543,-0.11102969022778891,0.0
2544,-0.09589073253481672,0.0
2545,-0.060836921350245717,0.0
2546,-0.1281613766856602,0.0
2547,-0.06540952671628036,0.0
2548,-0.06901540293517573,0.0
2549,-0.09504097009044836,0.0
2550,0.31041731288739405,0.0
2551,5.133608861463512,0.0
2552,4.017510299845125,0.0
2553,-2.8438726776167056,0.0
2554,1.5503869690509697,0.0
2555,-0.8985949556193016,0.0
2556,0.26047226728727524,0.0
2557,-0.12098639230994233,0.0
2558,-0.06977079315773067,0.0
2559,-0.059582752302946365,0.0
2560,-0.09189665902823421,0.0
2561,-0.13262047123611073,0.0
2562,-0.1271987520248056,0.0
2563,-0.13513536261290526,0.0
2564,-0.10071660520088901,0.0
2565,-0.11520976880172165,0.0
2566,-0.17151260415295227,0.0
2567,1.259873909487206,0.0
2568,6.732921350555901,0.0
2569,0.11835888578291165,0.0
2570,-1.446493818064518,0.0
2571,0.7773091969815904,0.0
2572,-0.641813664125907,0.0
2573,-0.01834740206292859,0.0
2574,-0.15437533106591825,0.0
2575,-0.13908366554506027,0.0
2576,-0.1381124658058124,0.0
2577,-0.09090699156482379,0.0
2578,-0.1106924363158586,0.0
2579,-0.09730096730048059,0.0
2580,-0.1890556731479171,0.0
2581,-0.006225876331159161,0.0
2582,-0.15854779989234286,0.0
2583,-0.029657377991073517,0.0
2584,3.0774138186057027,0.0
2585,6.439289074230964,0.0
2586,-2.5123825663320147,0.0
2587,0.6794599150033461,0.0
2588,-0.3800374676330326,0.0
2589,-0.020304663833679105,0.0
2590,-0.14934279992437274,0.0
2591,-0.10331309239286846,0.0
2592,-0.05806655281610207,0.0
2593,-0.07568232828850838,0.0
2594,-0.1020281660125953,0.0
2595,-0.13643616743502546,0.0
2596,-0.07704408080993128,0.0
2597,-0.2509919207593862,0.0
2598,-0.1049220818861933,0.0
2599,-0.1649848035781363,0.0
2600,0.3829823693849678,0.0
2601,5.214437955657065,0.0
2602,3.786629603872485,0.0
2603,-2.913813258758141,0.0
2604,1.5583477562636285,0.0
2605,-0.868822234898703,0.0
2606,0.23404638419041024,0.0
2607,-0.18751951737173475,0.0
2608,-0.052098911859264185,0.0
2609,-0.07539719963359523,0.0
2610,-0.20023375106739882,0.0
2611,-0.053022019907469554,0.0
2612,-0.11001417153099552,0.0
2613,-0.049983916690043165,0.0
2614,-0.13749060763999546,0.0
2615,-0.039999359367223424,0.0
2616,-0.09123714467382779,0.0
2617,1.3342026388740897,0.0
2618,6.716815586760159,0.0
2619,0.21209174888195467,0.0
2620,-1.444112075059935,0.0
2621,0.8401612528953997,0.0
2622,-0.5362694767179957,0.0
2623,0.14472138119558314,0.0
2624,-0.12052305696751547,0.0
2625,-0.06297822984178283,0.0
2626,-0.045146467140390216,0.0
2627,-0.06982294434646504,0.0
2628,-0.012889281069124084,0.0
2629,-0.022183070700601545,0.0
2630,-0.08441122860103409,0.0
2631,0.004606917248784238,0.0
2632,-0.05208755805997014,0.0
2633,0.02609464413762854,0.0
2634,3.0988837515283065,0.0
2635,6.477718469135585,0.0
2636,-2.6472688966783364,0.0
2637,0.7762338614703225,0.0
2638,-0.306692275461913,0.0
2639,0.0336665129706842,0.0
2640,-0.06398077727868359,0.0
2641,0.005937484695722112,0.0
2642,-0.09276051480144418,0.0
2643,-0.08330315796605495,0.0
2644,-0.05390773899362536,0.0
2645,0.013025021195118627,0.0
2646,-0.10776616581801046,0.0
2647,-0.03455729757714326,0.0
2648,-0.10140436364339481,0.0
2649,-0.09659479862706757,0.0
2650,0.4489182609640241,0.0
2651,5.24628237418738,0.0
2652,3.893585238070761,0.0
2653,-2.869535512754482,0.0
2654,1.5372519936405675,0.0
2655,-0.8225144329459534,0.0
2656,0.39395384339746053,0.0
2657,-0.12834947775487304,0.0
2658,-0.02750248237179166,0.0
2659,0.012521045854578548,0.0
2660,-0.015183812907676376,0.0
2661,0.09986524423063377,0.0
2662,0.05704882802479918,0.0
2663,-0.020214025925626412,0.0
2664,-0.06099181053754898,0.0
2665,0.021670499743829987,0.0
2666,-0.03169823472277709,0.0
2667,1.4689987964869984,0.0
2668,6.809932673175811,0.0
2669,0.22318660749427202,0.0
2670,-1.2175104559120145,0.0
2671,0.9814290630019209,0.0
2672,-0.4101334728719295,0.0
2673,0.2530730640306526,0.0
2674,-0.10358450667600912,0.0
2675,-0.09085071597360032,0.0
2676,0.0012263143291803905,0.0
2677,-0.020597175919776268,0.0
2678,-0.039617821179577316,0.0
2679,-0.04965158567674588,0.0
2680,-0.09137822936079179,0.0
2681,0.02098532505390531,0.0
2682,2.783986496390084e-05,0.0
2683,0.018277380439132386,0.0
2684,3.1291779445098196,0.0
2685,6.469639909484282,0.0
2686,-2.5438986841323823,0.0
2687,0.8723700761036923,0.0
2688,-0.24839663975968257,0.0
2689,0.06948193890342654,0.0
2690,-0.0806900088699192,0.0
2691,0.09505404546555418,0.0
2692,-0.08103169896676737,0.0
2693,0.1059857616981717,0.0
2694,0.1648667000418258,0.0
2695,0.025428987520032777,0.0
2696,0.08753833485067106,0.0
2697,0.011107844015375658,0.0
2698,-0.01191744778692511,0.0
2699,0.14329155191826215,0.0
2700,0.4525129092301401,0.0
2701,5.303999039277355,0.0
2702,3.864696167686642,0.0
2703,-2.7935158663740918,0.0
2704,1.5657518593580875,0.0
2705,-0.7701012170973515,0.0
2706,0.3427742961809105,0.0
2707,-0.11478805743462146,0.0
2708,-0.0905978846718396,0.0
2709,0.008302496113908247,0.0
2710,0.057863727578711485,0.0
2711,0.08835977803573376,0.0
2712,-0.03659652590786261,0.0
2713,0.05996342460188141,0.0
2714,-0.05551165970463186,0.0
2715,0.08266970605961904,0.0
2716,0.11270132085476683,0.0
2717,1.447130669679964,0.0
2718,6.8652440576827924,0.0
2719,0.24529388033144212,0.0
2720,-1.1639690920108436,0.0
2721,0.9710696796463654,0.0
2722,-0.4698824765969878,0.0
2723,0.13310876095664298,0.0
2724,0.03358915433166974,0.0
2725,-0.00582581712138696,0.0
2726,-0.008175828299133797,0.0
2727,-0.08279463441877763,0.0
2728,-0.00898452837410019,0.0
2729,0.04711450286823998,0.0
2730,0.0016250908876405904,0.0
2731,0.05253106023150537,0.0
2732,-0.04388257671729294,0.0
2733,0.05674776239710414,0.0
2734,3.219787325998279,0.0
2735,6.490361629012396,0.0
2736,-2.463404588638897,0.0
2737,0.9155710437994737,0.0
2738,-0.23663356939357993,0.0
2739,0.06574947389240786,0.0
2740,-0.01893447184631955,0.0
2741,0.07403278576848245,0.0
2742,0.057172807249695715,0.0
2743,0.015857361244315887,0.0
2744,-0.00030570242757630567,0.0
2745,-0.06580301933478142,0.0
2746,0.06934901934956464,0.0
2747,0.10011357694199316,0.0
2748,0.029134938493406648,0.0
2749,0.0028987580356764735,0.0
2750,0.4529311752735913,0.0
2751,5.35606701797283,0.0
2752,3.863560886721694,0.0
2753,-2.826442065942034,0.0
2754,1.570431842992105,0.0
2755,-0.7688429136457969,0.0
2756,0.3597544517324633,0.0
2757,-0.055166262088651045,0.0
2758,0.08692176749231609,0.0
2759,-0.04179177164653945,0.0
2760,-0.08739960220893693,0.0
2761,0.02045070546373048,0.0
2762,0.016960912656345306,0.0
2763,-0.002764455326658014,0.0
2764,-0.002404907409636523,0.0
2765,-0.02514810592462715,0.0
2766,0.0018558126125639103,0.0
2767,1.524515561422314,0.0
2768,6.7258764697413875,0.0
2769,0.1980217175045129,0.0
2770,-1.2148705888477132,0.0
2771,0.9313120052784342,0.0
2772,-0.495322774954948,0.0
2773,0.1688000441961489,0.0
2774,-0.06169599095784404,0.0
2775,0.011893249987327813,0.0
2776,-0.011008091100285762,0.0
2777,-0.02204852244946315,0.0
2778,-0.05554914831827815,0.0
2779,0.01378480977941776,0.0
2780,0.060387008484586994,0.0
2781,0.04188587781907616,0.0
2782,0.043193761567638086,0.0
2783,0.09411323294558645,0.0
2784,3.2881260772058463,0.0
2785,6.545415669292165,0.0
2786,-2.4972201731090835,0.0
2787,0.9167115453036624,0.0
2788,-0.23381012549257155,0.0
2789,0.18155182315961257,0.0
2790,0.10485281938846769,0.0
2791,0.024459212199514635,0.0
2792,0.03345322777384641,0.0
2793,-0.0634775156567063,0.0
2794,-0.006983946113407136,0.0
2795,-0.032041507466374436,0.0
2796,0.04955468271507538,0.0
2797,0.024337799403160547,0.0
2798,0.013857930598335918,0.0
2799,-0.004860098414739396,0.0
2800,0.4565565003061506,0.0
2801,5.3853608136079485,0.0
2802,3.833905698774023,0.0
2803,-3.0195101127460617,0.0
2804,1.5448926266194805,0.0
2805,-0.7833486895687493,0.0
2806,0.2902973571193304,0.0
2807,-0.011479812911222687,0.0
2808,0.04499941780372352,0.0
2809,-0.03406183623647997,0.0
2810,-0.028077897590977237,0.0
2811,-0.0017609727467042743,0.0
2812,0.1538062171823885,0.0
2813,0.02713572796753673,0.0
2814,0.10062009657541024,0.0
2815,0.013073982313046587,0.0
2816,-0.029669587288818734,0.0
2817,1.55280337345337,0.0
2818,6.835728361501913,0.0
2819,0.2405119801748115,0.0
2820,-1.1615345205066165,0.0
2821,0.8832165189920784,0.0
2822,-0.572218898366135,0.0
2823,0.13958062541465532,0.0
2824,-0.08099259178636385,0.0
2825,-0.0016623614100873072,0.0
2826,-0.04080928249703616,0.0
2827,-0.017170050012442793,0.0
2828,0.05870900121005408,0.0
2829,-0.03025442124441787,0.0
2830,-0.029466658109665284,0.0
2831,-0.04545205509159784,0.0
2832,0.024472789400992196,0.0
2833,0.11311192181351934,0.0
2834,3.1753851168104736,0.0
2835,6.43134797680556,0.0
2836,-2.5952641259588667,0.0
2837,0.8768852102119037,0.0
2838,-0.3534450123755843,0.0
2839,0.013197362965276543,0.0
2840,-0.11616838211504857,0.0
2841,-0.06164826391414063,0.0
2842,-0.03648553163106534,0.0
2843,-0.023530638485865868,0.0
2844,-0.054739162486246815,0.0
2845,0.018279534027412843,0.0
2846,-0.05548688801264731,0.0
2847,-0.045132045881837446,0.0
2848,-0.02750475426509251,0.0
2849,0.012622837396800531,0.0
2850,0.5038285396364377,0.0
2851,5.36448165396308,0.0
2852,3.789914821034118,0.0
2853,-2.7823785381578685,0.0
2854,1.619449207996602,0.0
2855,-0.8242036583916151,0.0
2856,0.31510090410124125,0.0
2857,-0.1776662225111378,0.0
2858,-0.0078536806672183,0.0
2859,-0.0669939054052898,0.0
2860,-0.09492838668165443,0.0
2861,-0.0196650235252425,0.0
2862,-0.051454823120494694,0.0
2863,-0.05933953983955583,0.0
2864,-0.03289497045761947,0.0
2865,-0.026793142466618722,0.0
2866,-0.05801929992362477,0.0
2867,1.4534796274577253,0.0
2868,6.8083310005625295,0.0
2869,0.14282509991267697,0.0
2870,-1.171265231029084,0.0
2871,0.915090756515679,0.0
2872,-0.5078672799754128,0.0
2873,0.17712033409270847,0.0
2874,-0.07449555776264612,0.0
2875,0.06396301318087232,0.0
2876,-0.059021774354475115,0.0
2877,-0.0021681254420755983,0.0
2878,-0.056132829196119956,0.0
2879,-0.05963267058893764,0.0
2880,-0.013674304172467889,0.0
2881,-0.032580546594245606,0.0
2882,0.018248713826892953,0.0
2883,0.006786474053104105,0.0
2884,3.2374830881639185,0.0
2885,6.3635717877141476,0.0
2886,-2.5562049270724985,0.0
2887,0.9402460301105016,0.0
2888,-0.2252371131756347,0.0
2889,0.0599987479950579,0.0
2890,-0.08889123889970903,0.0
2891,0.011663306357792991,0.0
2892,-0.05489554750636212,0.0
2893,-0.03807608856445377,0.0
2894,-0.04302063016982103,0.0
2895,-0.012537926892677631,0.0
2896,0.06649284093369699,0.0
2897,-0.00930276605556549,0.0
2898,0.10153687968487421,0.0
2899,-0.010972309231225524,0.0
2900,0.5079877140132515,0.0
2901,5.461227272868945,0.0
2902,3.9117631091431306,0.0
2903,-2.7265968161522784,0.0
2904,1.6271540199306354,0.0
2905,-0.7015933874930622,0.0
2906,0.363940470543555,0.0
2907,-0.0542470275835415,0.0
2908,0.08664416670685766,0.0
2909,0.05031545743874895,0.0
2910,0.021287727520194824,0.0
2911,0.03811992896351199,0.0
2912,0.005646003295181813,0.0
2913,-0.05320017141364018,0.0
2914,-0.01478488191874356,0.0
2915,0.02974866248215166,0.0
2916,0.04321679275815377,0.0
2917,1.4882733694400636,0.0
2918,6.851696466561267,0.0
2919,0.15333526226529065,0.0
2920,-1.0970139879214464,0.0
2921,0.9305939985987797,0.0
2922,-0.4318343777802148,0.0
2923,0.1395130199871126,0.0
2924,-0.15344368648844608,0.0
2925,-0.05648313768585246,0.0
2926,-0.04933968343354894,0.0
2927,-0.08630222888851649,0.0
2928,0.0016898611126399468,0.0
2929,0.032500060341852245,0.0
2930,-0.060114052549680705,0.0
2931,0.008845410593804271,0.0
2932,-0.0032012353200972813,0.0
2933,-0.004623158323161236,0.0
2934,3.17018350678024,0.0
2935,6.3979216625729,0.0
2936,-2.6131226641221654,0.0
2937,0.9756628794309751,0.0
2938,-0.3076151429841472,0.0
2939,0.04859079327619068,0.0
2940,-0.017122504908496927,0.0
2941,0.03155091568428188,0.0
2942,0.05720947997027715,0.0
2943,0.00985136969901047,0.0
2944,-0.051313010839844096,0.0
2945,-0.0038439113406356982,0.0
2946,-0.023333081174752968,0.0
2947,0.013573046878208202,0.0
2948,-0.0870106425833801,0.0
2949,-0.11293914359931237,0.0
2950,0.47119266618930555,0.0
2951,5.360616199695551,0.0
2952,3.8090104088910643,0.0
2953,-2.909394204034251,0.0
2954,1.529128345197458,0.0
2955,-0.7661437707345569,0.0
2956,0.4142027390848156,0.0
2957,-0.14387176436500318,0.0
2958,-0.03991082074069842,0.0
2959,-0.04033109518035801,0.0
2960,0.049258060447599006,0.0
2961,-0.07102186320584908,0.0
2962,-0.0659269147844472,0.0
2963,-0.01639362575751846,0.0
2964,-0.015607809511688105,0.0
2965,-0.08300251638961537,0.0
2966,-0.00360839732811662,0.0
2967,1.4814847508137408,0.0
2968,6.8411792994500775,0.0
2969,0.05962156007375061,0.0
2970,-1.1455424632311517,0.0
2971,0.8743323309055222,0.0
2972,-0.3330007823422919,0.0
2973,0.19536651727768461,0.0
2974,-0.09432979282865558,0.0
2975,0.012611860342908498,0.0
2976,-0.01624428942212606,0.0
2977,0.006710648055342314,0.0
2978,0.03535083866317179,0.0
2979,-0.04320671466775855,0.0
2980,-0.06694706427035838,0.0
2981,-0.027945791966792043,0.0
2982,-0.04783292191493975,0.0
2983,0.05243155295735029,0.0
2984,3.2358700977161208,0.0
2985,6.417251539052482,0.0
2986,-2.5776424714207216,0.0
2987,0.7920163232556481,0.0
2988,-0.2764316337837225,0.0
2989,0.017960331129646775,0.0
2990,-0.042835080543763095,0.0
2991,0.022616175224882032,0.0
2992,0.019152553526446826,0.0
2993,-0.1038857652544813,0.0
2994,-0.0285512089405981,0.0
2995,-0.09280392112947869,0.0
2996,-0.044009489222978294,0.0
2997,-0.03164550224620398,0.0
2998,-0.19682477432498846,0.0
2999,-0.1359923803260867,0.0
3000,0.39754388718443257,0.0
3001,5.252748845445404,0.0
3002,3.702110365702448,0.0
3003,-2.8716728748814178,0.0
3004,1.5129872795981818,0.0
3005,-0.879103402061123,0.0
3006,0.367008879945566,0.0
3007,-0.10666269377592136,0.0
3008,-0.009976055149949075,0.0
3009,-0.002730963940070469,0.0
3010,-0.07112841433422132,0.0
3011,-0.04723636489731712,0.0
3012,-0.06633812296131773,0.0
3013,-0.061895379737760534,0.0
3014,-0.11396297899216457,0.0
3015,-0.03450375677374251,0.0
3016,-0.004578839809952363,0.0
3017,1.471261109736291,0.0
3018,6.895670265475187,0.0
3019,0.1355081208347446,0.0
3020,-1.1681036157108045,0.0
3021,0.8217150151504005,0.0
3022,-0.4993078113291669,0.0
3023,0.13424167383329544,0.0
3024,-0.1627460511665362,0.0
3025,-0.052612538597750044,0.0
3026,-0.055301071817046854,0.0
3027,-0.08477215243418003,0.0
3028,-0.012447421446317629,0.0
3029,-0.04124189875682227,0.0
3030,0.005888923899837167,0.0
3031,-0.05507412382199951,0.0
3032,-0.06166375852504242,0.0
3033,0.043746858107504595,0.0
3034,3.28162628108048,0.0
3035,6.38041026788014,0.0
3036,-2.7155460351990066,0.0
3037,0.8394140867227621,0.0
3038,-0.3305664299930223,0.0
3039,0.13829518687562592,0.0
3040,-0.06296102868194088,0.0
3041,-0.08669937324505964,0.0
3042,0.027777970587726096,0.0
3043,-0.06699226812656038,0.0
3044,-0.06311060062305343,0.0
3045,0.014075778803948127,0.0
3046,-0.004619954824241844,0.0
3047,-0.06478326414615614,0.0
3048,-0.12931208761667917,0.0
3049,-0.15080336115619686,0.0
3050,0.4110970714031668,0.0
3051,5.330286965702071,0.0
3052,3.6691097958078926,0.0
3053,-2.8896837760605676,0.0
3054,1.5222219266881751,0.0
3055,-0.8824705356892584,0.0
3056,0.3225413390579685,0.0
3057,-0.2082066127318561,0.0
3058,-0.026219034186712495,0.0
3059,-0.017958464810997617,0.0
3060,0.015037923549312736,0.0
3061,-0.009555572039019578,0.0
3062,-0.11107216098809122,0.0
3063,-0.04018933521651875,0.0
3064,-0.11158427248861427,0.0
3065,-0.12956434775194522,0.0
3066,-0.09890368390341334,0.0
3067,1.5453208337769018,0.0
3068,6.7820154268995045,0.0
3069,0.041316201593442556,0.0
3070,-1.2152941178366503,0.0
3071,0.7486461686905,0.0
3072,-0.5248703562447922,0.0
3073,0.11374818534683559,0.0
3074,-0.20880602207067542,0.0
3075,-0.024102496641089984,0.0
3076,-0.022390351552512372,0.0
3077,-0.025830793798295476,0.0
3078,-0.017082958064886217,0.0
3079,-0.01764191686655578,0.0
3080,-0.032613188592083606,0.0
3081,-0.06160169441346236,0.0
3082,-0.03032418194869245,0.0
3083,0.0981870834037085,0.0
3084,3.1869136174435146,0.0
3085,6.322029860490085,0.0
3086,-2.722800291522281,0.0
3087,0.7389508113808351,0.0
3088,-0.4050898849865112,0.0
3089,0.01353046852955277,0.0
3090,-0.10338905522055467,0.0
3091,0.023695208374907115,0.0
3092,-0.05757112308004026,0.0
3093,-0.08619304074929005,0.0
3094,-0.028797712137201018,0.0
3095,0.0014122026597060133,0.0
3096,-0.03707354617331897,0.0
3097,-0.030162975501059387,0.0
3098,0.01733998718629655,0.0
3099,-0.07952278693177092,0.0
3100,0.4082175572053896,0.0
3101,5.372020560196357,0.0
3102,3.615822578545835,0.0
3103,-2.828227320726214,0.0
3104,1.551559308331959,0.0
3105,-0.7531643175165967,0.0
3106,0.28616176556322603,0.0
3107,-0.1163866648734532,0.0
3108,0.009269202409932627,0.0
3109,0.051484162034116314,0.0
3110,-0.014793025108209013,0.0
3111,-0.01422576603620037,0.0
3112,-0.13249457583786955,0.0
3113,-0.020008178392185806,0.0
3114,-0.0991304934352881,0.0
3115,-0.14283690129496437,0.0
3116,-0.04022436844433333,0.0
3117,1.3887113409588165,0.0
3118,6.792599872716607,0.0
3119,-0.02460321811105867,0.0
3120,-1.1582513848005571,0.0
3121,0.7712325669890646,0.0
3122,-0.4760618583615997,0.0
3123,0.10522978997635138,0.0
3124,-0.11006445589623742,0.0
3125,0.024581431661424256,0.0
3126,-0.09109902632715483,0.0
3127,-0.038135305865895454,0.0
3128,0.020913930204919447,0.0
3129,0.01410464904733261,0.0
3130,-0.06449434806793522,0.0
3131,-0.07836806551651226,0.0
3132,-0.010814442177513237,0.0
3133,0.15397497000787666,0.0
3134,3.2677974847400137,0.0
3135,6.437567431994812,0.0
3136,-2.706836407893607,0.0
3137,0.9453343010174897,0.0
3138,-0.2161598830291745,0.0
3139,0.08547096729587753,0.0
3140,-0.07610867024114094,0.0
3141,-0.020552150048179448,0.0
3142,-0.05004278013054966,0.0
3143,0.019932420699785406,0.0
3144,-0.03572116757557592,0.0
3145,-0.054120867899955835,0.0
3146,-0.004877716829307151,0.0
3147,0.0482409714477111,0.0
3148,-0.1162572831082217,0.0
3149,-0.18357794231559274,0.0
3150,0.516628854628258,0.0
3151,5.392055311756702,0.0
3152,3.584858706956109,0.0
3153,-2.753210542732679,0.0
3154,1.5506027925773964,0.0
3155,-0.7448622521780726,0.0
3156,0.4027794752043323,0.0
3157,-0.2625099591086585,0.0
3158,0.041152792152866366,0.0
3159,-0.05280659277252806,0.0
3160,-0.056997801943579535,0.0
3161,0.14869041920929976,0.0
3162,-0.02686945613306814,0.0
3163,0.007230188638683372,0.0
3164,0.012933265836748826,0.0
3165,-0.006694849284579724,0.0
3166,-0.13169802717751844,0.0
3167,1.4190142628575289,0.0
3168,6.925812460335575,0.0
3169,-0.06778491681075934,0.0
3170,-1.225104968295324,0.0
3171,0.8529606908204139,0.0
3172,-0.41152330446659113,0.0
3173,0.12888766135991872,0.0
3174,-0.16010750004878932,0.0
3175,-0.07157317342610561,0.0
3176,-0.0345927410324514,0.0
3177,-0.023483361375930156,0.0
3178,-0.02558505457810641,0.0
3179,0.019299319651666397,0.0
3180,-0.09859570452353313,0.0
3181,0.01353519492342175,0.0
3182,0.0004449755191367373,0.0
3183,0.041088936924070237,0.0
3184,3.318926828601072,0.0
3185,6.372129214987563,0.0
3186,-2.6920487648618874,0.0
3187,0.9919578269464312,0.0
3188,-0.3194209355465713,0.0
3189,0.054348330101681316,0.0
3190,-0.031081705932338055,0.0
3191,0.04023930861495391,0.0
3192,0.0019242694947511421,0.0
3193,0.016859355802933955,0.0
3194,0.06510960820855873,0.0
3195,0.0012851208262841772,0.0
3196,-0.03286013764580194,0.0
3197,-0.030469469731187217,0.0
3198,-0.020723367546420044,0.0
3199,-0.019183388736307035,0.0
3200,0.46732153436382745,0.0
3201,5.537181875032453,0.0
3202,3.6567465935255186,0.0
3203,-2.7495661566303484,0.0
3204,1.5162419015262691,0.0
3205,-0.8235085551232904,0.0
3206,0.39281611465278343,0.0
3207,-0.1487058647834929,0.0
3208,-0.023231232017972517,0.0
3209,-0.024074788745117634,0.0
3210,-0.006261215389461099,0.0
3211,-0.0018652584835009709,0.0
3212,-0.03222550371601978,0.0
3213,-0.0035451567905756144,0.0
3214,-0.05307674807903938,0.0
3215,0.017169301612801433,0.0
3216,-0.13112556844055875,0.0
3217,1.474750957183357,0.0
3218,6.828426766776683,0.0
3219,0.04013534662320206,0.0
3220,-1.125856520365742,0.0
3221,0.7558025385484162,0.0
3222,-0.4551104752868811,0.0
3223,0.08923400390257272,0.0
3224,-0.06264294959712155,0.0
3225,-0.01886466864118499,0.0
3226,-0.05071972234335473,0.0
3227,0.05239614882087928,0.0
3228,-0.03606063990621108,0.0
3229,-0.03413034921729849,0.0
3230,0.06830050645864581,0.0
3231,-0.011092681412962827,0.0
3232,0.002378890833777564,0.0
3233,0.05399115427670507,0.0
3234,3.3079782545848144,0.0
3235,6.4008686601281,0.0
3236,-2.5548722363993157,0.0
3237,1.031953576192781,0.0
3238,-0.36445158688715645,0.0
3239,0.07561986381720562,0.0
3240,0.03751246454360094,0.0
3241,-0.06833223599581648,0.0
3242,0.010758785430931773,0.0
3243,-0.016301302796244824,0.0
3244,0.02462358792084592,0.0
3245,0.04996098663424725,0.0
3246,0.04055380619793231,0.0
3247,0.02112614386132526,0.0
3248,-0.15531593568631757,0.0
3249,-0.08036501435169992,0.0
3250,0.4905009439299205,0.0
3251,5.419510612359603,0.0
3252,3.604794563111682,0.0
3253,-2.781755754649598,0.0
3254,1.5813723824688195,0.0
3255,-0.756037966381474,0.0
3256,0.3499318258102745,0.0
3257,-0.07082309758628219,0.0
3258,-0.06102095078354226,0.0
3259,-0.10087137786367395,0.0
3260,-0.02453629619354738,0.0
3261,-0.05838633545403674,0.0
3262,0.021184991281344635,0.0
3263,-0.0021974828207289576,0.0
3264,-0.015757341463950757,0.0
3265,-0.10244210121634767,0.0
3266,-0.06958084099120557,0.0
3267,1.387233413737708,0.0
3268,6.7237772611259565,0.0
3269,-0.11727246040722311,0.0
3270,-1.0878402625468637,0.0
3271,0.7148881409114238,0.0
3272,-0.4931721520473577,0.0
3273,0.04645451555640894,0.0
3274,-0.08209100433771647,0.0
3275,-0.01888203416990794,0.0
3276,-0.11013708800065089,0.0
3277,-0.09149826568923569,0.0
3278,-0.08646548775983838,0.0
3279,-0.08360949215818858,0.0
3280,-0.12158611676935793,0.0
3281,-0.031633678427469135,0.0
3282,-0.11276183666595176,0.0
3283,-0.014110264262267275,0.0
3284,3.3693510408863605,0.0
3285,6.194110345664114,0.0
3286,-2.6961828885104024,0.0
3287,0.9452962467218342,0.0
3288,-0.3120303808889362,0.0
3289,0.1278569801419655,0.0
3290,-0.1686459144593921,0.0
3291,-0.012806697764940863,0.0
3292,-0.1622888221455661,0.0
3293,-0.11664699878616144,0.0
3294,-0.01803778681924339,0.0
3295,-0.12629678431985328,0.0
3296,-0.004118983582337206,0.0
3297,-0.06217749023271163,0.0
3298,0.007382831598118991,0.0
3299,-0.07754770605897651,0.0
3300,0.45688921300399804,0.0
3301,5.377397911104306,0.0
3302,3.5528867673275397,0.0
3303,-2.8454421511710515,0.0
3304,1.5198820524199468,0.0
3305,-0.8026188124409321,0.0
3306,0.30282295552706323,0.0
3307,-0.21063925102448652,0.0
3308,-0.02803476043371835,0.0
3309,-0.036829643564391334,0.0
3310,-0.053606380067111235,0.0
3311,-0.02548638783154755,0.0
3312,-0.0023244566839502392,0.0
3313,-0.07936515058911742,0.0
3314,-0.07801797347007752,0.0
3315,-0.03512488814183183,0.0
3316,-0.03938049007499916,0.0
3317,1.4404160018046515,0.0
3318,6.884696926903244,0.0
3319,-0.13587208849094828,0.0
3320,-1.2130412426540014,0.0
3321,0.6690400014807342,0.0
3322,-0.47677404341407664,0.0
3323,0.15240186712039575,0.0
3324,-0.17668603483667533,0.0
3325,-0.046516013969320036,0.0
3326,-0.07756964815364631,0.0
3327,0.008752341896915122,0.0
3328,-0.02257204451254574,0.0
3329,-0.016661320424488542,0.0
3330,-0.12485930830542444,0.0
3331,-0.1001800310764982,0.0
3332,-0.0344727143996025,0.0
3333,-0.010538087060284383,0.0
3334,3.295006532481804,0.0
3335,6.297734327687626,0.0
3336,-2.737660556292814,0.0
3337,0.9359613534540296,0.0
3338,-0.35306618006316015,0.0
3339,0.08651241586492836,0.0
3340,-0.06306460393217696,0.0
3341,-0.09998377226332188,0.0
3342,-0.02898340055631933,0.0
3343,-0.0777922546349115,0.0
3344,-0.20572513226954414,0.0
3345,-0.12353182833976498,0.0
3346,-0.11165421402319056,0.0
3347,-0.11341768037127496,0.0
3348,-0.1312606852699321,0.0
3349,-0.026427498869642338,0.0
3350,0.33629022986746177,0.0
3351,5.457020659524419,0.0
3352,3.557980660851088,0.0
3353,-2.9394523823350345,0.0
3354,1.508550003307773,0.0
3355,-0.8724183004934635,0.0
3356,0.23987725568110413,0.0
3357,-0.14370440743945376,0.0
3358,-0.009211431917814861,0.0
3359,-0.04121452072939497,0.0
3360,-0.012734627652873726,0.0
3361,-0.041914909796905805,0.0
3362,-0.09001983108928621,0.0
3363,-0.04341356207749796,0.0
3364,-0.07445390838160341,0.0
3365,-0.0056668316413792455,0.0
3366,-0.059139961417634,0.0
3367,1.5292463626527937,0.0
3368,6.8971083706798835,0.0
3369,-0.14789116788470782,0.0
3370,-0.9995958649162483,0.0
3371,0.7754025031991929,0.0
3372,-0.5247472871835464,0.0
3373,0.1565777097685901,0.0
3374,-0.08921515780622452,0.0
3375,-0.10373175734632742,0.0
3376,-0.030057418841380606,0.0
3377,-0.10922311494241282,0.0
3378,0.043209110087297144,0.0
3379,0.03488640719626245,0.0
3380,-0.052139886679304755,0.0
3381,-0.11071834352519905,0.0
3382,0.07846700916697127,0.0
3383,0.0012682985481210773,0.0
3384,3.3823002257593684,0.0
3385,6.267846788141923,0.0
3386,-2.7671927442898165,0.0
3387,0.989022209520555,0.0
3388,-0.32872668441239816,0.0
3389,0.08984144439733682,0.0
3390,0.03318537386030121,0.0
3391,-0.023375416717425927,0.0
3392,-0.059495383921351945,0.0
3393,-0.027465707345052964,0.0
3394,-0.13615753426944777,0.0
3395,-0.12586346120525344,0.0
3396,-0.0586880380017968,0.0
3397,-0.12966736456626177,0.0
3398,-0.05274109424847567,0.0
3399,-0.012716644101856862,0.0
3400,0.38913836451781636,0.0
3401,5.439341267988501,0.0
3402,3.475092908152965,0.0
3403,-2.8070502993260704,0.0
3404,1.4560764252547491,0.0
3405,-0.7925417787625123,0.0
3406,0.32452928415451254,0.0
3407,-0.12342278940134735,0.0
3408,0.037439240594049364,0.0
3409,-0.07813381557648931,0.0
3410,0.011366567403653653,0.0
3411,-0.05090626389996489,0.0
3412,-0.10704695684511274,0.0
3413,-0.01530161179749302,0.0
3414,-0.0656699673162926,0.0
3415,-0.0003278772707030926,0.0
3416,-0.047962045028068084,0.0
3417,1.599813110703509,0.0
3418,6.848524033609104,0.0
3419,-0.1348328343757197,0.0
3420,-1.0552741617216765,0.0
3421,0.7046840018803664,0.0
3422,-0.39353833396649845,0.0
3423,0.12689215600492695,0.0
3424,-0.09682714648336241,0.0
3425,-0.036051325912443255,0.0
3426,-0.03733829632560683,0.0
3427,-0.04859796311165697,0.0
3428,-0.04909185228998504,0.0
3429,0.01508101912874158,0.0
3430,-0.005179339576490263,0.0
3431,0.02400314918435662,0.0
3432,-0.023570822080983062,0.0
3433,0.22465979119527663,0.0
3434,3.444400868305921,0.0
3435,6.314908845988384,0.0
3436,-2.6569852465171087,0.0
3437,0.9545066006566039,0.0
3438,-0.2840365070496068,0.0
3439,0.027256809917204264,0.0
3440,-0.09248914010903038,0.0
3441,0.02580409729082263,0.0
3442,-0.13383450805079766,0.0
3443,-0.15923023596111613,0.0
3444,-0.09455557185941595,0.0
3445,-0.0865295854942931,0.0
3446,-0.09165271819120939,0.0
3447,-0.14732016478102988,0.0
3448,0.0023534837823972615,0.0
3449,-0.11678438022906473,0.0
3450,0.44708184837217607,0.0
3451,5.413133405865706,0.0
3452,3.5717525582345044,0.0
3453,-2.70231211249491,0.0
3454,1.6175027641921276,0.0
3455,-0.8363323065696053,0.0
3456,0.3589256552166117,0.0
3457,-0.063430730282197,0.0
3458,0.028032414300590537,0.0
3459,0.017392340365787268,0.0
3460,0.033805713725909126,0.0
3461,0.01515694794314492,0.0
3462,0.05830326847257709,0.0
3463,0.06790317994763481,0.0
3464,-0.03866355002550573,0.0
3465,-0.03284717706554869,0.0
3466,0.02278652978546592,0.0
3467,1.6133082189403738,0.0
3468,7.018298246064703,0.0
3469,-0.10656683060859172,0.0
3470,-1.017343823660625,0.0
3471,0.8104051073706354,0.0
3472,-0.3420849143205526,0.0
3473,0.18829231491328463,0.0
3474,-0.07557896088441955,0.0
3475,-0.04219314164060568,0.0
3476,-0.01149718806085249,0.0
3477,-0.08172560698840366,0.0
3478,-0.012659757038842498,0.0
3479,0.03944146178488797,0.0
3480,-0.054692592545078425,0.0
3481,-0.09134467521238308,0.0
3482,-0.17477682959422625,0.0
3483,0.10369562746278677,0.0
3484,3.3235321482652633,0.0
3485,6.206611758334291,0.0
3486,-2.8088865002651064,0.0
3487,1.0846895154718417,0.0
3488,-0.3048317704250032,0.0
3489,0.11344494287209655,0.0
3490,-0.00951974451196222,0.0
3491,-0.050710545573906904,0.0
3492,-0.019972487582006978,0.0
3493,0.023195497187188663,0.0
3494,0.013590024108872181,0.0
3495,-0.03855319834687162,0.0
3496,0.007616290505555741,0.0
3497,0.04183632807711045,0.0
3498,0.01906768697205854,0.0
3499,-0.008547424522132464,0.0
3500,0.4528291982884934,0.0
3501,5.470465826536169,0.0
3502,3.4479815406665457,0.0
3503,-2.7107338989626006,0.0
3504,1.6716671802170646,0.0
3505,-0.7862921296178023,0.0
3506,0.3504336215403038,0.0
3507,-0.13697238805804837,0.0
3508,0.07596751518447149,0.0
3509,-0.04471720879155959,0.0
3510,-0.016999396157494448,0.0
3511,-0.09873002596061173,0.0
3512,-0.000493259777821442,0.0
3513,-0.1589740704801112,0.0
3514,0.008118775086105617,0.0
3515,0.01055882208731633,0.0
3516,-0.07102621611568626,0.0
3517,1.4407409336781827,0.0
3518,6.838985375075941,0.0
3519,-0.18695000025898792,0.0
3520,-1.0157543427596387,0.0
3521,0.6731243045465183,0.0
3522,-0.4305645129976874,0.0
3523,0.101960012402705,0.0
3524,-0.12781370753386828,0.0
3525,-0.030528275319561156,0.0
3526,-0.10014246166930321,0.0
3527,-0.12587556433383365,0.0
3528,-0.04588912230893343,0.0
3529,0.012707946666752998,0.0
3530,-0.042162702067126745,0.0
3531,-0.10053620708108413,0.0
3532,-0.05277532872960077,0.0
3533,0.018447176054390974,0.0
3534,3.4347652151411525,0.0
3535,6.259194106288304,0.0
3536,-2.8393767886212533,0.0
3537,0.9716298611590306,0.0
3538,-0.40332481519369895,0.0
3539,0.08602956898956174,0.0
3540,-0.1101133428557016,0.0
3541,-0.05770588164494388,0.0
3542,-0.1808281738583431,0.0
3543,-0.12024513060944514,0.0
3544,-0.007842705524718455,0.0
3545,-0.04984539371891804,0.0
3546,-0.049232513119230326,0.0
3547,0.033366390292944054,0.0
3548,-0.12251878281691797,0.0
3549,-0.09937504576944818,0.0
3550,0.4594068337761831,0.0
3551,5.5351079190428765,0.0
3552,3.500278235950568,0.0
3553,-2.789604051610171,0.0
3554,1.619704531694721,0.0
3555,-0.8033174599481452,0.0
3556,0.3320127802543116,0.0
3557,-0.05762044667146332,0.0
3558,-0.13809756785273428,0.0
3559,-0.10981690138154784,0.0
3560,-0.10144430817739551,0.0
3561,-0.07239855869037037,0.0
3562,-0.07496868805212559,0.0
3563,-0.12314491215627181,0.0
3564,0.01689183817053093,0.0
3565,-0.10146297416323188,0.0
3566,-0.10643459988493137,0.0
3567,1.4404609058134854,0.0
3568,6.883105077844978,0.0
3569,-0.20297745927565197,0.0
3570,-0.9368380604893826,0.0
3571,0.7532849528143696,0.0
3572,-0.3342587055730101,0.0
3573,0.19027763178999674,0.0
3574,-0.08512972542649955,0.0
3575,0.06618693175109117,0.0
3576,-0.000872313832050955,0.0
3577,-0.07339827195373773,0.0
3578,-0.0463657084842728,0.0
3579,0.029879899395369343,0.0
3580,-0.07322772161120181,0.0
3581,-0.10117846108990276,0.0
3582,-0.010162344361079347,0.0
3583,0.04828553179095843,0.0
3584,3.480979245348675,0.0
3585,6.143019743104887,0.0
3586,-2.8223504268377204,0.0
3587,0.9963299177643518,0.0
3588,-0.3571985093629748,0.0
3589,0.0022799986394937966,0.0
3590,-0.192674416784046,0.0
3591,-0.08171883552793271,0.0
3592,-0.056845608599579996,0.0
3593,0.004761447940286184,0.0
3594,-0.014298283805065634,0.0
3595,-0.06434878345913513,0.0
3596,0.004747061608530195,0.0
3597,-0.08617485006267903,0.0
3598,0.005207305758859554,0.0
3599,0.02439730828032219,0.0
3600,0.45740880341192286,0.0
3601,5.576899412244314,0.0
3602,3.429995407394265,0.0
3603,-2.730570328913189,0.0
3604,1.5811497790719977,0.0
3605,-0.7256797159045918,0.0
3606,0.30238864412481375,0.0
3607,-0.08507330723332002,0.0
3608,-0.010265995055050072,0.0
3609,-0.04987138295960232,0.0
3610,-0.031701108112809386,0.0
3611,0.03231238113033364,0.0
3612,-0.017794590262604545,0.0
3613,-0.013340387217036728,0.0
3614,-0.0817974669540305,0.0
3615,-0.021919838499172745,0.0
3616,0.04263065103181329,0.0
3617,1.6206599652038327,0.0
3618,6.914500129612797,0.0
3619,-0.21805789861699917,0.0
3620,-0.9369367856395281,0.0
3621,0.7819144403303704,0.0
3622,-0.3659192620258733,0.0
3623,0.20702075387582802,0.0
3624,-0.046351333002641375,0.0
3625,0.00885453427564522,0.0
3626,0.011437469390483249,0.0
3627,-0.010440906949272688,0.0
3628,-0.04876647516931063,0.0
3629,-0.00873553654765782,0.0
3630,0.05668114818012776,0.0
3631,0.04283892501298746,0.0
3632,-0.07219149339555408,0.0
3633,0.09964980516124182,0.0
3634,3.5662946793327044,0.0
3635,6.305734013535957,0.0
3636,-2.6895859914914535,0.0
3637,1.0579336283062095,0.0
3638,-0.38781365486500513,0.0
3639,0.1527996260276432,0.0
3640,-0.029239017058978092,0.0
3641,0.04702774875908516,0.0
3642,-0.011514973531601278,0.0
3643,-0.055947620133858816,0.0
3644,-0.05721221896516253,0.0
3645,-0.0036280428647348616,0.0
3646,-0.03847117497583863,0.0
3647,-0.04039934024737628,0.0
3648,-0.02575070306730952,0.0
3649,-0.0030280956495223,0.0
3650,0.560183132183135,0.0
3651,5.644072264579118,0.0
3652,3.3858628049967825,0.0
3653,-2.704356911464005,0.0
3654,1.5846265117011624,0.0
3655,-0.8044881111665839,0.0
3656,0.3838835077717602,0.0
3657,-0.18297821515812007,0.0
3658,0.08024256699933846,0.0
3659,0.05663795868848026,0.0
3660,0.022321696109607738,0.0
3661,-0.01375580531021877,0.0
3662,0.012370101370838387,0.0
3663,0.034036702069680125,0.0
3664,0.01888637296738615,0.0
3665,-0.0616351720648924,0.0
3666,0.12061144896757803,0.0
3667,1.6771752042837837,0.0
3668,6.900721167496349,0.0
3669,-0.2797730594545652,0.0
3670,-0.9505657512802558,0.0
3671,0.8929980724984447,0.0
3672,-0.3920351602842746,0.0
3673,0.04440997604780769,0.0
3674,0.0595662259235063,0.0
3675,0.06823495571748131,0.0
3676,0.11329455170149068,0.0
3677,0.0018839895064745142,0.0
3678,0.08978893133725296,0.0
3679,0.026024571916092303,0.0
3680,0.06990891690200862,0.0
3681,-0.006829576033864989,0.0
3682,0.06144374970462223,0.0
3683,0.0972785405306549,0.0
3684,3.4875788591428876,0.0
3685,6.208638352207795,0.0
3686,-2.679629490863117,0.0
3687,1.0415869177233508,0.0
3688,-0.2794645032854484,0.0
3689,0.2619846706191085,0.0
3690,0.07106062914753342,0.0
3691,0.05756419610445801,0.0
3692,-0.0009552364986121983,0.0
3693,0.0675806172954779,0.0
3694,0.013449207581032144,0.0
3695,0.11916956167280125,0.0
3696,0.028647579536037325,0.0
3697,0.13971367755458972,0.0
3698,0.048695366126050146,0.0
3699,0.07934236209640276,0.0
3700,0.6385542536039157,0.0
3701,5.669412068329761,0.0
3702,3.462014326928836,0.0
3703,-2.6156350941924305,0.0
3704,1.5594741537901964,0.0
3705,-0.6831187591612714,0.0
3706,0.35128639835423026,0.0
3707,-0.09331783088924714,0.0
3708,0.05036510908509357,0.0
3709,0.04362759675592298,0.0
3710,0.06218946152238018,0.0
3711,0.07531052082439721,0.0
3712,-0.02689651566905326,0.0
3713,0.02661939524329869,0.0
3714,0.010600806244995736,0.0
3715,0.11775017286335654,0.0
3716,0.10093285135605037,0.0
3717,1.6826574531947607,0.0
3718,7.060501456128878,0.0
3719,-0.16026750403761889,0.0
3720,-0.929280020205577,0.0
3721,0.8183879933166763,0.0
3722,-0.3389700966276427,0.0
3723,0.28656677669733355,0.0
3724,-0.02344712236815677,0.0
3725,0.12067418295568469,0.0
3726,0.07605095919772097,0.0
3727,-0.03762961994344495,0.0
3728,0.08399187824051674,0.0
3729,0.056458784323211976,0.0
3730,0.059367935235544955,0.0
3731,-0.01903300052297073,0.0
3732,0.03725213346414995,0.0
3733,0.15143644960659114,0.0
3734,3.4534954010607364,0.0
3735,6.21232397656886,0.0
3736,-2.7738093011394573,0.0
3737,1.0985493648248403,0.0
3738,-0.4050409144117964,0.0
3739,0.14566124008517212,0.0
3740,-0.044727074080672044,0.0
3741,0.06795192422827644,0.0
3742,0.07409088664850695,0.0
3743,0.008658720732279149,0.0
3744,-0.04208457961539172,0.0
3745,0.07899347420346073,0.0
3746,0.02402455746505577,0.0
3747,-0.010428321512668308,0.0
3748,0.0850381319242818,0.0
3749,0.0036223527031410893,0.0
3750,0.5605924628654336,0.0
3751,5.629217537270418,0.0
3752,3.455653556900284,0.0
3753,-2.730808611312507,0.0
3754,1.6095534811482015,0.0
3755,-0.7467069524763437,0.0
3756,0.3746431893613417,0.0
3757,-0.10683235533043284,0.0
3758,-0.046961112643117656,0.0
3759,0.043185404281610815,0.0
3760,0.017601178507326128,0.0
3761,0.030949002116339483,0.0
3762,-0.010627280377649454,0.0
3763,-0.02282314091755349,0.0
3764,-0.011425343247274598,0.0
3765,0.05151630217082585,0.0
3766,-0.0380830895100249,0.0
3767,1.6706661275561971,0.0
3768,7.019374801990362,0.0
3769,-0.1545336274813851,0.0
3770,-0.8784316555481217,0.0
3771,0.7548398018641145,0.0
3772,-0.2665712315286478,0.0
3773,0.18941188702170592,0.0
3774,-0.08511449048045686,0.0
3775,0.05307010158133489,0.0
3776,-0.02112777945753462,0.0
3777,0.031245287170976205,0.0
3778,0.057562667907115256,0.0
3779,0.01473522915548717,0.0
3780,0.018960581918604145,0.0
3781,-0.05064104243358599,0.0
3782,0.04935231742814444,0.0
3783,0.2136478156417897,0.0
3784,3.5921944845338363,0.0
3785,6.19221613997357,0.0
3786,-2.6737371776163914,0.0
3787,1.1597502603061902,0.0
3788,-0.3926590097643999,0.0
3789,0.1470295076306047,0.0
3790,-0.004112436957030667,0.0
3791,0.02756410897610183,0.0
3792,0.02725851770231541,0.0
3793,0.003116312055775332,0.0
3794,0.08154875532546252,0.0
3795,0.008474558375222693,0.0
3796,0.04238332655491976,0.0
3797,-0.03929136418630137,0.0
3798,0.09488535175634671,0.0
3799,0.041285848807245,0.0
3800,0.5441589050867166,0.0
3801,5.6489456358229315,0.0
3802,3.5213779049692477,0.0
3803,-2.6602553529182917,0.0
3804,1.661179397343126,0.0
3805,-0.7375246324904556,0.0
3806,0.43683062241604476,0.0
3807,0.01268141366370618,0.0
3808,0.1554504055999993,0.0
3809,0.12903287796083618,0.0
3810,0.07654008244733032,0.0
3811,0.09373405155539569,0.0
3812,0.035907555705000815,0.0
3813,0.12080051052714208,0.0
3814,0.025549060124974453,0.0
3815,0.07937280892024197,0.0
3816,0.1228884168658737,0.0
3817,1.72138854667662,0.0
3818,6.959758070104872,0.0
3819,-0.10592219514283403,0.0
3820,-0.8760033952540613,0.0
3821,0.7523674818066468,0.0
3822,-0.35212888697150035,0.0
3823,0.19895118366126774,0.0
3824,0.045803228721931315,0.0
3825,0.144335165329805,0.0
3826,0.05993461844139948,0.0
3827,0.08724056483288864,0.0
3828,0.02751551887432712,0.0
3829,0.029220790130243927,0.0
3830,0.10561538184370386,0.0
3831,0.08885407398101626,0.0
3832,-0.017525726401871007,0.0
3833,0.16763019573405044,0.0
3834,3.553180875958381,0.0
3835,6.206119237779492,0.0
3836,-2.631415069495854,0.0
3837,1.1191308625506837,0.0
3838,-0.3851697849379664,0.0
3839,0.10495578532228185,0.0
3840,-0.00041080638413426053,0.0
3841,0.09473321620432855,0.0
3842,0.09514209322474979,0.0
3843,0.018241118462387206,0.0
3844,0.04175425408715627,0.0
3845,0.06394759273786808,0.0
3846,0.06929684876275789,0.0
3847,0.06161227089291533,0.0
3848,0.031992030424539304,0.0
3849,0.06455419410187456,0.0
3850,0.6487506057068975,0.0
3851,5.739442216160998,0.0
3852,3.326450718527303,0.0
3853,-2.615031660018772,0.0
3854,1.498506781809404,0.0
3855,-0.837826908571522,0.0
3856,0.43084402095126023,0.0
3857,0.01309253783783891,0.0
3858,0.08552650440331953,0.0
3859,0.09013830963770494,0.0
3860,0.09713084423679177,0.0
3861,0.14559754266755529,0.0
3862,0.09199298453062268,0.0
3863,0.08570954477732874,0.0
3864,0.10024416931811447,0.0
3865,0.0299640248732099,0.0
3866,0.015999374751437867,0.0
3867,1.6631911688700103,0.0
3868,6.9406918261551,0.0
3869,-0.1391610041495912,0.0
3870,-0.8956582255691006,0.0
3871,0.8548800980424083,0.0
3872,-0.287365481089109,0.0
3873,0.12988776732902704,0.0
3874,-0.005362700658800665,0.0
3875,0.06569909295767608,0.0
3876,0.006325858304698402,0.0
3877,-0.06154885746513486,0.0
3878,0.060467035052467207,0.0
3879,0.03212028700878736,0.0
3880,0.0511034558518649,0.0
3881,-0.038003409201461655,0.0
3882,0.06363800350807801,0.0
3883,0.2278543684340388,0.0
3884,3.5666391751444544,0.0
3885,6.1889797233623,0.0
3886,-2.708855131207282,0.0
3887,1.1514436020981442,0.0
3888,-0.29746755577091794,0.0
3889,0.13612171314555177,0.0
3890,0.09329839572030504,0.0
3891,0.20017786408917929,0.0
3892,0.12684983636170874,0.0
3893,-0.013079747441133424,0.0
3894,0.11136629071739718,0.0
3895,0.10284822079709996,0.0
3896,0.056299727421374984,0.0
3897,0.08361713984561597,0.0
3898,0.05519099522055901,0.0
3899,0.05475157512464786,0.0
3900,0.602393520173479,0.0
3901,5.698988997640194,0.0
3902,3.4366322727844274,0.0
3903,-2.5682846404555075,0.0
3904,1.5882673613245062,0.0
3905,-0.7122935092123116,0.0
3906,0.3449838889870597,0.0
3907,-0.11368183685900557,0.0
3908,0.04073294101687381,0.0
3909,0.03968586932066362,0.0
3910,-0.012201956968327966,0.0
3911,0.12448870956951308,0.0
3912,0.04039384236049791,0.0
3913,0.04416963994221197,0.0
3914,0.052124637866613255,0.0
3915,0.10478968448703282,0.0
3916,-0.044884344834432835,0.0
3917,1.7658622848667402,0.0
3918,6.96724383822502,0.0
3919,-0.29570607285173944,0.0
3920,-0.8760404801880385,0.0
3921,0.7675255912647794,0.0
3922,-0.3411364616308957,0.0
3923,0.257063838271137,0.0
3924,0.12343131291412324,0.0
3925,0.1611126874589991,0.0
3926,0.14936517966710972,0.0
3927,0.027438074298825596,0.0
3928,0.10432943895707775,0.0
3929,0.07331660945133461,0.0
3930,0.15557383631105584,0.0
3931,-0.015072383482155602,0.0
3932,0.08363840079034926,0.0
3933,0.17503416702230426,0.0
3934,3.648283815774616,0.0
3935,6.184925198342836,0.0
3936,-2.732551796022235,0.0
3937,1.2107831279727557,0.0
3938,-0.30840483765746074,0.0
3939,0.23588938800374443,0.0
3940,-0.01839899620818513,0.0
3941,0.13614060485390644,0.0
3942,0.02495897432039101,0.0
3943,0.02760541996887275,0.0
3944,0.002797243613475227,0.0
3945,0.0240715004208784,0.0
3946,0.011795320160552963,0.0
3947,-0.024915621440857863,0.0
3948,0.01644525384855821,0.0
3949,0.017365973819688095,0.0
3950,0.6021476672731095,0.0
3951,5.700870695497752,0.0
3952,3.270462400671926,0.0
3953,-2.6650522119948423,0.0
3954,1.5762402877580106,0.0
3955,-0.8343590526815886,0.0
3956,0.4219103126622982,0.0
3957,-0.15870660074399862,0.0
3958,0.0929053636033249,0.0
3959,0.15708073577685125,0.0
3960,0.03908570910898575,0.0
3961,0.025717335290694386,0.0
3962,0.053876031392338666,0.0
3963,0.04109811383529819,0.0
3964,0.07733990411087403,0.0
3965,0.0916372366584241,0.0
3966,0.07228573890886136,0.0
3967,1.7643627079512703,0.0
3968,6.9616546545608475,0.0
3969,-0.32865319116672187,0.0
3970,-0.7204649360335289,0.0
3971,0.7473231986374498,0.0
3972,-0.3495439144178742,0.0
3973,0.12952883501144946,0.0
3974,-0.008212549381612434,0.0
3975,-0.006342896401491882,0.0
3976,0.032317216434266424,0.0
3977,0.01037658460838406,0.0
3978,-0.028623682846800707,0.0
3979,-0.03543747383376808,0.0
3980,0.09359643106074521,0.0
3981,0.13258905274331967,0.0
3982,0.07762726405490661,0.0
3983,0.12211674526577512,0.0
3984,3.585967232577909,0.0
3985,6.116036912482887,0.0
3986,-2.817377964549655,0.0
3987,1.1943914561542865,0.0
3988,-0.3671145330684514,0.0
3989,0.1753362957212292,0.0
3990,-0.014598636673966402,0.0
3991,-0.02069624072713319,0.0
3992,0.002130930129477307,0.0
3993,-0.019731783058418176,0.0
3994,0.08468436211018864,0.0
3995,0.07798149941010213,0.0
3996,-0.0640514237609415,0.0
3997,0.04167330258799164,0.0
3998,-0.009816500893279474,0.0
3999,0.04684093294143383,0.0
4000,0.7632327312753422,0.0
4001,5.699252413232283,0.0
4002,3.3132405038412185,0.0
4003,-2.6790208056371685,0.0
4004,1.5141333819508118,0.0
4005,-0.8251032691235445,0.0
4006,0.2791809163928166,0.0
4007,-0.027583294230723206,0.0
4008,0.08771168699258909,0.0
4009,0.02305797293008378,0.0
4010,-0.04527670522063744,0.0
4011,0.04716338819737964,0.0
4012,0.0011799821245762794,0.0
4013,-0.020973942689106285,0.0
4014,0.04268752869207981,0.0
4015,-0.005774454381442456,0.0
4016,-0.003736380162796926,0.0
4017,1.6736272443804272,0.0
4018,6.963363366238858,0.0
4019,-0.4031541635296697,0.0
4020,-0.7536029109673956,0.0
4021,0.690665934880909,0.0
4022,-0.4324017541880578,0.0
4023,0.19744457939794435,0.0
4024,-0.05793484372941561,0.0
4025,0.030532966343653864,0.0
4026,-0.05828727640212257,0.0
4027,0.017089476267008286,0.0
4028,-0.11773232049587189,0.0
4029,0.05019983815749562,0.0
4030,0.05857222088519226,0.0
4031,-0.020038118041401154,0.0
4032,-0.02254859347619418,0.0
4033,0.11227898887612678,0.0
4034,3.6616630955288634,0.0
4035,6.140238621607982,0.0
4036,-2.8098766507064674,0.0
4037,1.1125787430556595,0.0
4038,-0.4469512179640778,0.0
4039,0.12752413144620486,0.0
4040,-0.09673541176140033,0.0
4041,0.09270257838038481,0.0
4042,-0.004661781142379674,0.0
4043,-0.05498135735544376,0.0
4044,-0.0961385598744374,0.0
4045,-0.08767532949087267,0.0
4046,-0.12397824481194805,0.0
4047,-0.09854914306693852,0.0
4048,-0.13901740386568961,0.0
4049,-0.11969807902230958,0.0
4050,0.5901784422325158,0.0
4051,5.620907688783083,0.0
4052,3.21642968525607,0.0
4053,-2.700573026334505,0.0
4054,1.4752978052283336,0.0
4055,-0.8465024333951771,0.0
4056,0.2036958289285884,0.0
4057,-0.13506714372207954,0.0
4058,0.07837302614406982,0.0
4059,-0.041359584686356005,0.0
4060,0.022605032688617216,0.0
4061,-0.025478287292817016,0.0
4062,0.00902644411640778,0.0
4063,-0.027419322366988734,0.0
4064,0.026629881168215335,0.0
4065,-0.020804790403277654,0.0
4066,0.04143406010418642,0.0
4067,1.7281903661655158,0.0
4068,7.005122284031531,0.0
4069,-0.35789519990955043,0.0
4070,-0.7717054305833275,0.0
4071,0.6977351844881068,0.0
4072,-0.32299317810500944,0.0
4073,0.2200001218353815,0.0
4074,-0.05831244657576609,0.0
4075,-0.07178571910919102,0.0
4076,0.037667054616140186,0.0
4077,-0.007442302921588307,0.0
4078,0.0266085109953173,0.0
4079,-0.034502749977495764,0.0
4080,0.019132102747334786,0.0
4081,0.03151264311738185,0.0
4082,-0.028335647962215372,0.0
4083,0.08644465510597772,0.0
4084,3.5070303767888564,0.0
4085,6.187476800653024,0.0
4086,-2.857040393774947,0.0
4087,1.1442095871621238,0.0
4088,-0.49648741682185876,0.0
4089,0.19552008608839364,0.0
4090,-0.05790736936840958,0.0
4091,-0.013677224117445961,0.0
4092,0.07038814048372334,0.0
4093,0.12775597220319587,0.0
4094,-0.057372032370688456,0.0
4095,0.04516623384877845,0.0
4096,0.06647705185127471,0.0
4097,-0.03269805903472633,0.0
4098,0.01862043026673099,0.0
4099,0.006180031285849872,0.0
4100,0.5859371040365068,0.0
4101,5.6831353665920545,0.0
4102,3.234252520446927,0.0
4103,-2.7495066509450488,0.0
4104,1.4510560068867655,0.0
4105,-0.7770667862602798,0.0
4106,0.40270113169438965,0.0
4107,-0.053657022447654565,0.0
4108,-0.019963164943432306,0.0
4109,-0.01850317174523031,0.0
4110,0.013120484784449748,0.0
4111,-0.05318176736692842,0.0
4112,0.05846428296403995,0.0
4113,0.006303053815626054,0.0
4114,0.03804641003591664,0.0
4115,0.0001275698445764497,0.0
4116,0.007374179503844036,0.0
4117,1.7224241530588398,0.0
4118,7.002037109698354,0.0
4119,-0.36739077561180083,0.0
4120,-0.838403097699009,0.0
4121,0.7412260417121701,0.0
4122,-0.3653457398925553,0.0
4123,0.16165282874230863,0.0
4124,0.025537411798309262,0.0
4125,0.05259159949098736,0.0
4126,-0.0033575490014497522,0.0
4127,0.032167533897164494,0.0
4128,0.021962340968881784,0.0
4129,0.12088749048571953,0.0
4130,0.0667087797034264,0.0
4131,-0.0959944404985477,0.0
4132,-0.06942156886203577,0.0
4133,0.14272902295529283,0.0
4134,3.538356496975463,0.0
4135,6.111758718532245,0.0
4136,-2.877246908212369,0.0
4137,1.1756332110676968,0.0
4138,-0.34119977591066003,0.0
4139,0.16994795057431816,0.0
4140,-0.06124795296629283,0.0
4141,0.0006618043923942198,0.0
4142,0.05291892934195559,0.0
4143,0.009014827613151932,0.0
4144,-0.10401039621541212,0.0
4145,-0.020820485355819963,0.0
4146,-0.06661834929583839,0.0
4147,-0.05246978462224945,0.0
4148,0.023983131130312967,0.0
