timestamp,value-0,is_anomaly
0,0.16391799558028525,0
1,3.51311804301821,0
2,6.8237475789790745,0
3,-0.26482668870817866,0
4,-1.956974515735764,0
5,1.458790630024904,0
6,-0.8025463962848736,0
7,0.12021226872564872,0
8,-0.007521645747560618,0
9,-0.13694790688740976,0
10,-0.019388048583661208,0
11,-0.06504566907603238,0
12,0.05707859830220942,0
13,-0.029258244075811873,0
14,-0.00414529051892485,0
15,0.003256203224696011,0
16,-0.08554430016891176,0
17,-0.08049397935975926,0
18,-0.12173847531232682,0
19,-0.04644271968121451,0
20,0.19448334598895275,0
21,3.536236700636341,0
22,6.880051274433458,0
23,-0.25615786501466103,0
24,-2.0045726164810898,0
25,1.5089484421006127,0
26,-0.7219651203537385,0
27,0.07050066494136202,0
28,-0.008615425969635451,0
29,-0.15849282651170465,0
30,-0.023269342081809145,0
31,-0.12385227554562483,0
32,-0.11305222426012812,0
33,-0.12365215894841944,0
34,-0.014990853082581523,0
35,-0.12386957811609718,0
36,-0.10652627359000727,0
37,0.058849448578851576,0
38,0.020992315079624964,0
39,-0.12338605483860651,0
40,0.2760162346402987,0
41,3.4272419710820623,0
42,6.771414264687416,0
43,-0.3184986867009291,0
44,-2.041020729481032,0
45,1.6090085467290038,0
46,-0.7937495776937024,0
47,0.03569678981607148,0
48,0.029153600390625513,0
49,-0.15848030668222213,0
50,-0.13050605222493647,0
51,-0.09729341613626254,0
52,-0.004761265861537817,0
53,-0.052569832233122796,0
54,-0.028818025378235565,0
55,0.05374419358200383,0
56,-0.13944615234514735,0
57,-0.04015005549386974,0
58,-0.0028635376845360105,0
59,0.06326453678152892,0
60,0.30588641318131565,0
61,3.516936256023933,0
62,6.898805844965879,0
63,-0.27526904301795585,0
64,-2.026571231245393,0
65,1.459453778973206,0
66,-0.7340660987372434,0
67,0.08379736290121571,0
68,-0.06374835084766595,0
69,-0.11898872540256294,0
70,0.00748121573815921,0
71,-0.04843538150347862,0
72,-0.047434891734193185,0
73,-0.035786466951369764,0
74,-0.053572321500102354,0
75,-0.06776767592491706,0
76,-0.0011662038855160262,0
77,-0.14132390812064116,0
78,-0.043859609324479853,0
79,-0.06461056409551366,0
80,0.21442068887113072,0
81,3.4920800414397917,0
82,6.811247943582868,0
83,-0.33322100374862434,0
84,-1.907347002629859,0
85,1.50173253539002,0
86,-0.7093727534717937,0
87,0.07725530122468031,0
88,0.02981954592985806,0
89,-0.11019952185947679,0
90,-0.09588695240325738,0
91,-0.0184230168739487,0
92,0.006597337225785527,0
93,-0.029667155522640286,0
94,-0.048418038707910366,0
95,-0.0360547225512597,0
96,-0.014100605471479557,0
97,-0.03121799170651491,0
98,-0.08916209410520037,0
99,0.018615527418755228,0
100,0.23901539389565798,0
101,3.517071328679567,0
102,6.8439591174549745,0
103,-0.40735410054366,0
104,-1.9147461216044765,0
105,1.5473166330599077,0
106,-0.7611271351049821,0
107,0.1279774969341066,0
108,0.07892382323840699,0
109,-0.15663165255625336,0
110,-0.05470762614801263,0
111,-0.013883149262240928,0
112,0.07529656856315999,0
113,0.04423926899581724,0
114,-0.10704950656817366,0
115,-0.048770453661591495,0
116,-0.01234129657688986,0
117,0.0004397785274159252,0
118,0.01793014289863286,0
119,-0.0726723181784687,0
120,0.2270250819232223,0
121,3.4885057182957944,0
122,6.853838422333854,0
123,-0.24538726078125198,0
124,-1.9291635802188902,0
125,1.5755502023287988,0
126,-0.7514730858919973,0
127,0.09356416877133186,0
128,0.031072610094444484,0
129,-0.02178056472000263,0
130,0.0582151433894627,0
131,-0.1017845385599898,0
132,-0.02499109890416075,0
133,-0.005246075621544964,0
134,0.01713064669267866,0
135,-0.0038864435563877885,0
136,0.003125647803286782,0
137,0.01727487375168766,0
138,-0.03386303539461893,0
139,-0.02423990072928119,0
140,0.30255349397927744,0
141,3.5676013472794126,0
142,6.9392097721201615,0
143,-0.09558634060300125,0
144,-1.9193490893503,0
145,1.5476939707458115,0
146,-0.6816999116630009,0
147,0.13098151813663872,0
148,0.0007037735437403353,0
149,-0.0033769360492192212,0
150,0.06992288397160071,0
151,0.029995284151859758,0
152,0.0679333327935184,0
153,0.10629497599648421,0
154,0.0006435257758759458,0
155,0.09581908979019438,0
156,0.07103926850415956,0
157,-0.005651517607444874,0
158,-0.0040617944116923335,0
159,0.09692400987398461,0
160,0.24240804011868988,0
161,3.588282524812071,0
162,6.842448785111785,0
163,-0.2059657780468364,0
164,-1.9533696294294516,0
165,1.6234104913819751,0
166,-0.7522735181883479,0
167,0.07315965652924332,0
168,0.103808407839895,0
169,-0.024483762358519894,0
170,0.07429532844953443,0
171,0.04356021725036388,0
172,0.03987146599865924,0
173,-0.09752103433457418,0
174,-0.009321147747809979,0
175,0.038444180468729036,0
176,0.011250965326254473,0
177,0.08948814759424853,0
178,-0.0037318583248064294,0
179,-0.021879174041306314,0
180,0.3002621862746058,0
181,3.611784565033554,0
182,6.853012066679705,0
183,-0.25109818636248193,0
184,-1.9098710022505991,0
185,1.5972772692009447,0
186,-0.7149498736692037,0
187,0.11669770171755452,0
188,0.08728641573232797,0
189,-0.04685237620068058,0
190,0.11547047106104812,0
191,0.04235347990649086,0
192,-0.07757593129968701,0
193,0.06139876738004644,0
194,-0.017135021521028065,0
195,-0.004703916769669471,0
196,0.018353662920698205,0
197,0.04300154255797637,0
198,-0.09904206469575268,0
199,-0.051689429127204756,0
200,0.3048196997846824,0
201,3.5178460186089633,0
202,6.925658241379441,0
203,-0.2401779091315185,0
204,-1.9370436186575937,0
205,1.6060167569803734,0
206,-0.6863257247532898,0
207,0.10199747861208741,0
208,0.0891042819987928,0
209,-0.05820040244630572,0
210,0.0485515417066467,0
211,-0.015449956703851402,0
212,0.011656897576652957,0
213,0.013503634527778799,0
214,0.01630502267827761,0
215,-0.06748243543379573,0
216,-0.03300651389985487,0
217,-0.015306291167686009,0
218,-0.09502559881995025,0
219,-0.03682188974180993,0
220,0.23742973563725234,0
221,3.541655535296251,0
222,7.0325772858790625,0
223,-0.2777263144305484,0
224,-1.9070109315418386,0
225,1.5855352389452382,0
226,-0.6949834345922202,0
227,0.056521027515511704,0
228,-0.01920998044668066,0
229,-0.0076584957485701585,0
230,0.11529152239846704,0
231,0.028608169564174647,0
232,-0.06724011880732667,0
233,-0.10012899647324214,0
234,-0.05262272159684511,0
235,0.14077013104335265,0
236,-0.011064247556488596,0
237,-0.046982575011410864,0
238,0.038018618263066524,0
239,0.04106791513972975,0
240,0.2615100265495615,0
241,3.521051886705186,0
242,6.935099587230148,0
243,-0.30599746150943363,0
244,-1.9890547420093385,0
245,1.49153312666526,0
246,-0.726812188934876,0
247,0.13882620951525249,0
248,0.11135883975130187,0
249,-0.011159138013752692,0
250,0.036385804600950186,0
251,0.036268937956697514,0
252,0.024619799181577095,0
253,-0.005268533203134003,0
254,-0.06494702721545595,0
255,0.10128193130030508,0
256,-0.006222585051211695,0
257,0.05362861237823891,0
258,-0.03968242172638165,0
259,-0.051259631975120144,0
260,0.28400822723549435,0
261,3.5105710488683335,0
262,6.8789551633646555,0
263,-0.3205582264328151,0
264,-1.9517466054160764,0
265,1.4314528469995131,0
266,-0.71604355815053,0
267,0.2623199626100503,0
268,0.12194341247549324,0
269,0.060067681528962164,0
270,-0.08588210317274603,0
271,-0.08497153016724886,0
272,-0.059384265696998915,0
273,0.007288703466782126,0
274,-0.041125745300992736,0
275,-0.03888303689264814,0
276,0.09742181017872317,0
277,-0.049820619195552814,0
278,0.03118477041247735,0
279,-0.045825786699056556,0
280,0.2393453413608164,0
281,3.599720803766388,0
282,6.8763234357542835,0
283,-0.4595742674172997,0
284,-1.9260236152315027,0
285,1.538504262063303,0
286,-0.7165429304953576,0
287,0.15842358005832852,0
288,-0.020945731709473284,0
289,-0.08143677015328765,0
290,0.026936126029742692,0
291,0.05721972345535244,0
292,-0.08589897072023399,0
293,0.030745429882097743,0
294,0.05054635230520072,0
295,0.049027288975855815,0
296,-0.057655213834219454,0
297,0.07693356317375057,0
298,0.02938102087120545,0
299,0.08035780115412305,0
300,0.33157630397140625,0
301,3.5927569977242833,0
302,6.892160968703874,0
303,-0.2897262928131555,0
304,-1.8426455132778,0
305,1.5207169857459277,0
306,-0.7188281510390826,0
307,0.1210871983263708,0
308,0.031159452622943014,0
309,-0.08201791297361397,0
310,0.0760801984837598,0
311,-0.04270256399926424,0
312,-0.05190646159664081,0
313,-0.10721060736796822,0
314,-0.02872380203785623,0
315,-0.02041303106000491,0
316,0.009775173576532131,0
317,-0.01193534550206371,0
318,-0.018923392845817427,0
319,-0.01572433739130988,0
320,0.17972452700426483,0
321,3.5558743458865516,0
322,6.820319123033418,0
323,-0.3440788980269972,0
324,-1.9162126322487039,0
325,1.5329831306462116,0
326,-0.6876066530974777,0
327,0.11638777109002486,0
328,0.04179430912958118,0
329,-0.031864339743367096,0
330,0.12170793363693101,0
331,-0.08381293436194187,0
332,0.04254344361373998,0
333,-0.031519217993239146,0
334,-0.10268949231312188,0
335,-0.07454122930645882,0
336,-0.13198770597005705,0
337,0.04018964027035242,0
338,0.03585709940448453,0
339,-0.09046915622287893,0
340,0.24948655739803366,0
341,3.5654721180141293,0
342,6.905878725918432,0
343,-0.3599718495026782,0
344,-1.8201701674148423,0
345,1.4056700044821149,0
346,-0.7800702001352717,0
347,0.1543145524731675,0
348,0.018806103090329873,0
349,-0.007512725989466021,0
350,-0.02754340855464222,0
351,-0.044718476765960136,0
352,-0.019234352761655325,0
353,0.04400234717297768,0
354,0.001726711434524934,0
355,0.04955739306811367,0
356,-0.01923871300352225,0
357,0.07434208983503598,0
358,-0.0003234098747207405,0
359,-0.05122696619984429,0
360,0.321094598449859,0
361,3.6270559038581984,0
362,6.767767726965187,0
363,-0.3327481950589587,0
364,-1.8321411314733616,0
365,1.5842983416395138,0
366,-0.7452482686476191,0
367,0.07291251510581215,0
368,-0.03949347969106812,0
369,-0.10022228187013826,0
370,0.07674214338594557,0
371,-0.07146514957482844,0
372,0.05319719856929087,0
373,0.06392971656320322,0
374,0.04443095819573201,0
375,0.04823693046120986,0
376,-0.10028858057209165,0
377,-0.0463067826681981,0
378,0.09038098443306083,0
379,0.02743137933279178,0
380,0.3197449206819659,0
381,3.5849372528699393,0
382,6.813199561309197,0
383,-0.3646782705267425,0
384,-1.9389531967188354,0
385,1.4126710889308578,0
386,-0.8216638064675631,0
387,0.1570487213783407,0
388,-0.07000554886720173,0
389,-0.06452526694917471,0
390,-0.06230870227823586,0
391,0.016142258541670465,0
392,-0.03872751095562609,0
393,0.013273417585214078,0
394,0.02209794554893546,0
395,-0.05485355303040636,0
396,0.03713668715259841,0
397,0.046830961190886915,0
398,-0.003154631269544121,0
399,0.02091692607363654,0
400,0.3057560236412848,0
401,3.6479903908221947,0
402,6.877452500052714,0
403,-0.24433678597190828,0
404,-1.8268601105859077,0
405,1.6298998955321709,0
406,-0.6662187423828556,0
407,0.05364086617695982,0
408,0.05683609163243884,0
409,0.025852177514296956,0
410,0.11183459143736926,0
411,0.0033941952116133406,0
412,-0.011552802415727023,0
413,-0.005821832389888816,0
414,-0.05229653579259652,0
415,0.11660604311811879,0
416,-0.0031814286583237185,0
417,-0.03853427836130483,0
418,0.02120102310779052,0
419,0.0025041783865651047,0
420,0.2998954306792318,0
421,3.6478565628330566,0
422,6.878039313392113,0
423,-0.3163914038452169,0
424,-1.8571481690597522,0
425,1.5439783211111657,0
426,-0.8185859753472051,0
427,0.12698766990653287,0
428,0.06865682056560865,0
429,-0.04707432281793021,0
430,0.08818479629015602,0
431,-0.016004908635448248,0
432,-0.0522434224595653,0
433,-0.14140027250410217,0
434,0.07268371370308076,0
435,-0.0515636675541789,0
436,-0.055720613405368546,0
437,0.036744841248137865,0
438,-0.055911887557506805,0
439,0.004978557800864376,0
440,0.21330685472876731,0
441,3.567557943766185,0
442,6.803094930081512,0
443,-0.3703037554516818,0
444,-1.8507421692180743,0
445,1.5232681656555458,0
446,-0.722380334388923,0
447,0.1203360339421595,0
448,0.05464266087779952,0
449,-0.034071932459899326,0
450,0.0807248414413344,0
451,0.04400867242829527,0
452,0.019913248610877156,0
453,-0.0408316110165555,0
454,0.03706670286046804,0
455,-0.048245259669108545,0
456,-0.11200312340053788,0
457,-0.015255041103558669,0
458,-0.03590697127269017,0
459,-0.04865007151516448,0
460,0.26166605313113933,0
461,3.4856325508497914,0
462,6.781582465705259,0
463,-0.34958541614742344,0
464,-1.9930647708510454,0
465,1.428164111425545,0
466,-0.7727532145680863,0
467,0.12105626574821247,0
468,0.07633518094737957,0
469,-0.02829458112350689,0
470,0.04778475937017039,0
471,0.019669563471059033,0
472,-0.054167806593666955,0
473,-0.06194968629963003,0
474,0.009020017457606444,0
475,0.030055552234206064,0
476,0.0163091913779542,0
477,-0.06819824048926038,0
478,0.016590654505851666,0
479,-0.12428451643896939,0
480,0.3110682823890275,0
481,3.6723179047099923,0
482,6.79351218858646,0
483,-0.3756374834310523,0
484,-1.9767375935352411,0
485,1.503741968113384,0
486,-0.6950862420308774,0
487,0.1675423879586826,0
488,0.10060060660824559,0
489,0.0340660764165953,0
490,0.06668149448101668,0
491,-0.048529779578657284,0
492,-0.057539819233711625,0
493,0.07371974865680136,0
494,-0.057085028173352946,0
495,-0.0006754083633209746,0
496,0.06585593996703673,0
497,0.0071974332583618055,0
498,-0.02641171196475183,0
499,0.02290852738569839,0
500,0.2870062713551747,0
501,3.6348972901505285,0
502,6.715885268554906,0
503,-0.48659721123908906,0
504,-1.9012752850230397,0
505,1.5230643196694662,0
506,-0.7253070810346528,0
507,0.05633306592205278,0
508,0.018651218649048684,0
509,-0.03386275262423431,0
510,0.04487748257097187,0
511,-0.026680704308877007,0
512,-0.06157941177430452,0
513,0.08014276566705877,0
514,-0.04961550045221999,0
515,-0.05664594522950456,0
516,-0.02909233577847327,0
517,-0.019700782707134688,0
518,-0.01423458932258452,0
519,-0.016368844578463063,0
520,0.24523983706533378,0
521,3.5546272614859813,0
522,6.831498254781149,0
523,-0.3741115904547156,0
524,-1.858171066393978,0
525,1.5611178576625129,0
526,-0.6692480789053289,0
527,0.07614174780381683,0
528,0.028902001114346994,0
529,-0.07094868766028045,0
530,-0.08899062298460059,0
531,-0.02117049777153492,0
532,-0.028066042189136317,0
533,-0.009523588136431553,0
534,-0.043869515814171006,0
535,-0.1865801583435298,0
536,0.0057712384183197084,0
537,0.05771455839518739,0
538,-0.010822623195682505,0
539,0.09516244081589638,0
540,0.2493969431791627,0
541,3.5758367627336884,0
542,6.8936440181759515,0
543,-0.4151833356716508,0
544,-1.7997365341463984,0
545,1.5459041260888728,0
546,-0.703769136481063,0
547,0.12585945657633407,0
548,0.003542563876701002,0
549,-0.05019273069740381,0
550,0.04094721182300165,0
551,0.0683550605961876,0
552,0.08111821151195314,0
553,0.022855918913140205,0
554,-0.01055793037663049,0
555,-0.057563054296198686,0
556,0.04534898178749891,0
557,0.015174047883894388,0
558,-0.044444088753560755,0
559,0.025524747975988214,0
560,0.3255202024450993,0
561,3.696588274838025,0
562,6.876101043930009,0
563,-0.42681362528122685,0
564,-1.8928578759792658,0
565,1.6000187416290013,0
566,-0.7744504340818755,0
567,0.12485135516152022,0
568,0.06551278565914087,0
569,-0.06815655976591545,0
570,-0.03379217171899187,0
571,-0.006889362757534064,0
572,0.05790819035259952,0
573,0.03241463746144847,0
574,-0.03702319498693338,0
575,-0.03952640218094112,0
576,-0.008343593865529311,0
577,0.01545254231604001,0
578,0.0006989529299735592,0
579,0.10843710086432069,0
580,0.30431306246363665,0
581,3.614613477180003,0
582,6.91423310785585,0
583,-0.3093700527140279,0
584,-1.7456164178666393,0
585,1.685052129893989,0
586,-0.8291027976070485,0
587,0.2208290186618796,0
588,-0.017381466529506444,0
589,-0.001299815931408401,0
590,-0.05797462296148989,0
591,0.04454694143783537,0
592,0.07745762022272593,0
593,0.06821623612447157,0
594,-0.018897404305221376,0
595,-0.00692781329376269,0
596,0.016638902332336555,0
597,0.027574841087086813,0
598,0.02719242113091865,0
599,-0.013474728138581766,0
600,0.30639535104840115,0
601,3.5799883006491737,0
602,6.889748756098369,0
603,-0.4629881343852027,0
604,-1.867522135065853,0
605,1.5559509783638161,0
606,-0.7750468341562448,0
607,0.16280278414115684,0
608,0.03183371668203776,0
609,-0.012425371482758213,0
610,0.021852330749989515,0
611,-0.05121406160804698,0
612,-0.03048442665741837,0
613,-0.07337956659425389,0
614,0.04304085949099687,0
615,0.002897323217202045,0
616,0.030446619755914995,0
617,0.011744680700411063,0
618,-0.027017742629259323,0
619,0.014409329580840485,0
620,0.2619812726121207,0
621,3.576744539810652,0
622,6.712512034308333,0
623,-0.4230955663200374,0
624,-1.9094426554798296,0
625,1.5326475622196893,0
626,-0.7791476298750923,0
627,0.08565101288438866,0
628,0.09320064492177496,0
629,-0.08793929897340791,0
630,-0.016298607501286113,0
631,0.015162609895158186,0
632,0.09273402103189884,0
633,-0.025549206877645392,0
634,0.05361701601022685,0
635,0.0011872054584019485,0
636,0.007899570456243923,0
637,0.033278497894601675,0
638,0.014158971707100926,0
639,0.017931657297593148,0
640,0.33953581749041917,0
641,3.672100294416754,0
642,6.949671458888865,0
643,-0.4126134449742011,0
644,-1.8417826656767156,0
645,1.5748241602875666,0
646,-0.7110756740279693,0
647,0.24996048543928173,0
648,0.08877569655827505,0
649,7.04101374192738e-05,0
650,0.0008313943148846106,0
651,-0.06337438846381202,0
652,0.007521059420683079,0
653,0.07229823764865417,0
654,0.04741920816317623,0
655,0.022897621997386104,0
656,0.05775468404261798,0
657,-0.0074691942197177355,0
658,-0.08487446584974226,0
659,0.04993518388460274,0
660,0.37790781717985517,0
661,3.6627671343525927,0
662,6.864684223058717,0
663,-0.5360746171160713,0
664,-1.8916691785820228,0
665,1.5391712042363976,0
666,-0.7073634286659787,0
667,0.1599341917582194,0
668,0.04312174962543183,0
669,0.003974421166945644,0
670,0.007004187382377066,0
671,0.022368057162322666,0
672,0.025323431189020015,0
673,-0.008122479423706624,0
674,-0.14866515652677179,0
675,-0.024487527488076317,0
676,-0.038860947798143156,0
677,0.03657361488709857,0
678,0.043919547554785575,0
679,0.04795649090698442,0
680,0.2796968600416577,0
681,3.534064561438179,0
682,6.824252176012416,0
683,-0.4759432376816339,0
684,-1.818720173311245,0
685,1.420822672274694,0
686,-0.6790891224071623,0
687,0.08268917294626946,0
688,0.030937790205092297,0
689,0.048789222681852505,0
690,0.04896285522090374,0
691,-0.0004978787596022268,0
692,0.022359990097494037,0
693,-0.008850525327103719,0
694,-0.08672602821744353,0
695,-0.020590329554335814,0
696,0.013360800995453729,0
697,-0.08235043051207569,0
698,0.005360743859353595,0
699,0.005342155949355643,0
700,0.33447424548632354,0
701,3.632645217230251,0
702,6.88644160379615,0
703,-0.4558389967031443,0
704,-1.8784121448335127,0
705,1.4624017105146736,0
706,-0.7949345751308429,0
707,0.23411998595184857,0
708,0.001038255635226297,0
709,-0.08866943040313396,0
710,0.00920532336641973,0
711,-0.020301013784669635,0
712,0.03302490659591526,0
713,0.009272516798319074,0
714,0.04964250095529078,0
715,0.005769741946005353,0
716,-0.06889830763882407,0
717,-0.004339648283845889,0
718,-0.06531868895472155,0
719,0.04144200201404599,0
720,0.2894857756473259,0
721,3.6863900992970255,0
722,6.820328392690048,0
723,-0.3990783973575405,0
724,-1.8101560308468219,0
725,1.5169994147383283,0
726,-0.7455738060977822,0
727,0.19563974764432357,0
728,0.035393250961479106,0
729,-0.07907973566987336,0
730,-0.001408924653894283,0
731,-0.11302396065459841,0
732,-0.0502312833114858,0
733,-0.04408656932909762,0
734,-0.12218527612035907,0
735,0.013465596003612688,0
736,0.09244299284635442,0
737,0.038239087053659034,0
738,0.06579689032851076,0
739,-0.05350324261845425,0
740,0.2685907871345908,0
741,3.6323825045709626,0
742,6.824494691707785,0
743,-0.40972101415981405,0
744,-1.9107193268066522,0
745,1.5008487499185454,0
746,-0.7832718034598716,0
747,0.1348618914751954,0
748,-0.009644725323094364,0
749,-0.07490210154370762,0
750,-0.07715038627724607,0
751,-0.05580836952359009,0
752,-0.032679325459055095,0
753,-0.011461082338977743,0
754,-0.03627390247483567,0
755,-0.05522978845351216,0
756,-0.021723772650117202,0
757,-0.04231548425186291,0
758,-0.0648307495573641,0
759,-0.050262663724465514,0
760,0.21228968744806834,0
761,3.558344583844106,0
762,6.8043419656485815,0
763,-0.5043824964300486,0
764,-1.886728462524667,0
765,1.4670764677545216,0
766,-0.6861818600057324,0
767,0.22415936202776565,0
768,-0.02452375042644323,0
769,-0.06375295082696288,0
770,-0.06018913226865565,0
771,0.010828188591147127,0
772,-0.06486331383477567,0
773,0.018220848713109417,0
774,-0.016545854687333557,0
775,0.03390539522124711,0
776,-0.09923249549572019,0
777,-0.07156404471202872,0
778,-0.0009115666199673959,0
779,0.005264535328368548,0
780,0.32919799221345936,0
781,3.6811752413936607,0
782,6.79214009659262,0
783,-0.5854100817644846,0
784,-1.8677361497859515,0
785,1.4855996223423709,0
786,-0.7896209411708078,0
787,0.18646878874052442,0
788,0.03945699142980262,0
789,-0.050582197167336466,0
790,-0.11073630696311082,0
791,-0.01266690090942756,0
792,0.04938913751869764,0
793,0.027960823431336775,0
794,-0.05224350422503621,0
795,-0.04358376806950001,0
796,-0.11293583732556647,0
797,0.045308372991282556,0
798,-0.05977274612623459,0
799,-0.025178681093091678,0
800,0.2149809060917394,0
801,3.5288176504131044,0
802,6.792709054098602,0
803,-0.4810969355912953,0
804,-1.9597225986648115,0
805,1.492064393750545,0
806,-0.7630319251208519,0
807,0.10346314288294389,0
808,-0.021321073365730824,0
809,-0.06068635554919209,0
810,-0.05476418458277696,0
811,-0.00971275745584689,0
812,-0.07002312409463332,0
813,-0.043125607908628606,0
814,0.07491890677485213,0
815,-0.021063645248947445,0
816,0.002403253983031421,0
817,-0.03548164955758568,0
818,-0.012129208572978563,0
819,-0.1385596168418961,0
820,0.2605610599335733,0
821,3.5904559328751406,0
822,6.750418946063671,0
823,-0.5368667565417202,0
824,-1.821559812066553,0
825,1.4582196425103318,0
826,-0.7724912676545521,0
827,0.10263729199416904,0
828,-0.12842000169504128,0
829,-0.08401838213924159,0
830,-0.062068991083047254,0
831,-0.025127669715986393,0
832,-0.0711050023671933,0
833,-0.07805019655641679,0
834,-0.014649449029084674,0
835,-0.0007238999597286716,0
836,-0.03985572075627425,0
837,-0.07468283713780721,0
838,-0.07929560548346583,0
839,0.00987401621496209,0
840,0.3105106215110802,0
841,3.5747890404213005,0
842,6.870166578216362,0
843,-0.45481606144561615,0
844,-1.864619481340705,0
845,1.4649539830644862,0
846,-0.7367627314418463,0
847,0.12421696277195253,0
848,-0.00853598649527629,0
849,-0.04668017313865039,0
850,-0.07387562881464219,0
851,-0.10294044963592448,0
852,0.013129208337908382,0
853,-0.0058122503979160176,0
854,0.05460373167429383,0
855,0.010894779452708479,0
856,-0.04408589239824489,0
857,-0.049207034049204804,0
858,-0.07832134464452233,0
859,0.006212820100759513,0
860,0.3081343720777715,0
861,3.6576764767771324,0
862,6.883346252295897,0
863,-0.44265793648667234,0
864,-1.81543410801102,0
865,1.6025107613887764,0
866,-0.7955482468845199,0
867,0.12296365070710762,0
868,0.07968132349631307,0
869,-0.027996224455017992,0
870,0.021060064404094705,0
871,-0.10288878094459489,0
872,0.07760950060977084,0
873,0.016616845887727452,0
874,0.03472296469970317,0
875,0.0742168031462984,0
876,0.046309756838107084,0
877,0.01645922063650845,0
878,0.004061715453746759,0
879,0.036636254521608444,0
880,0.20467873737815162,0
881,3.663469898849049,0
882,6.834270159160316,0
883,-0.5823256110349323,0
884,-1.8409974444017565,0
885,1.4816694146687128,0
886,-0.7818054497795783,0
887,0.16613495834333078,0
888,0.02980929385468074,0
889,-0.10067821223906268,0
890,0.03411725122913131,0
891,-0.049925540462035706,0
892,-0.03458241515438176,0
893,0.02707029280619704,0
894,-0.01567956769699886,0
895,-0.051053445502279034,0
896,0.01442251158970845,0
897,0.038798241975938084,0
898,-0.003603924172900808,0
899,0.012080847960986792,0
900,0.33430192810794757,0
901,3.6756993014561608,0
902,6.83796364295775,0
903,-0.5664305040150426,0
904,-1.9011476673202479,0
905,1.505071987454004,0
906,-0.7346309275467713,0
907,0.16503164766704478,0
908,0.012148011487928762,0
909,-0.06995308468041288,0
910,0.05453869409954648,0
911,-0.12183050288227776,0
912,-0.022361276762106887,0
913,0.028092008275759313,0
914,0.033479974392554825,0
915,0.003466584645261509,0
916,0.023679437910340856,0
917,-0.015862814471361703,0
918,0.03875159303874276,0
919,0.05409144986428223,0
920,0.2951466182873231,0
921,3.536123085565137,0
922,6.814643813163268,0
923,-0.5216437902661129,0
924,-1.7846443802978864,0
925,1.5511266674444704,0
926,-0.7208495231061292,0
927,0.10193415871877426,0
928,0.13226986498032578,0
929,-0.09889919617052755,0
930,-0.01847804771633596,0
931,-0.030146506711107704,0
932,0.008380517615121097,0
933,0.0562692010906578,0
934,-0.02496805983948044,0
935,-0.1573872561260219,0
936,-0.011081601396296652,0
937,-0.02805796123030403,0
938,0.040257808324204974,0
939,0.004540634880724634,0
940,0.24344605574612194,0
941,3.586616511095735,0
942,6.764782652343941,0
943,-0.6789657149763155,0
944,-1.9128611841099235,0
945,1.4993660916247462,0
946,-0.7785820713508078,0
947,0.07544326651272981,0
948,-0.057947241709652764,0
949,-0.12776014513802836,0
950,0.0035619649268680727,0
951,0.01328706301549587,0
952,-0.009783108412554885,0
953,0.03257700463686422,0
954,-0.05815017517011907,0
955,-0.01309208139944739,0
956,-0.018765277444142775,0
957,-0.07306375005954774,0
958,0.004424627583333316,0
959,-0.04557373697216226,0
960,0.3323193767193287,0
961,3.584445360033553,0
962,6.726297541930487,0
963,-0.4494737079217781,0
964,-1.8483550330133847,0
965,1.470929830519793,0
966,-0.8503396405635728,0
967,0.0752698406623766,0
968,0.06110365958528238,0
969,0.005303351621466362,0
970,-0.011596190339485215,0
971,-0.026800854946638895,0
972,0.03212443435714426,0
973,-0.10336225988453186,0
974,0.07338843212460798,0
975,-0.005068179646850489,0
976,-0.08161419754848624,0
977,0.0197933949235523,0
978,0.04209305640555503,0
979,-0.1069989368516732,0
980,0.29848754940640015,0
981,3.6223650844966384,0
982,6.76163598715698,0
983,-0.5624180390492505,0
984,-1.8634089161860388,0
985,1.4396116907849084,0
986,-0.7949046674735496,0
987,0.05989989329096964,0
988,-0.03523191636485852,0
989,-0.06533524143108417,0
990,-0.11775497745449795,0
991,-0.05533015398657232,0
992,-0.022623520771988676,0
993,-0.0108590717021958,0
994,-0.054595036725542584,0
995,-0.06349827507072245,0
996,-0.02839074411972786,0
997,-0.09377299186364518,0
998,-0.025144129632320118,0
999,0.03637552302913917,0
1000,0.2872712213558529,0
1001,3.5871973835144306,0
1002,6.842538806778128,0
1003,-0.5949935745382661,0
1004,-1.8810651519476886,0
1005,1.47799955268434,0
1006,-0.7519037075695665,0
1007,0.17580694364152213,0
1008,0.000646863233181031,0
1009,-0.08878968273933652,0
1010,-0.026834713585965418,0
1011,-0.11235192596658519,0
1012,0.025543342687942092,0
1013,-0.01519144407651878,0
1014,-0.00024111806749188905,0
1015,-0.026506228052858804,0
1016,0.03397667954579518,0
1017,-0.09182548251674921,0
1018,-0.0008133622697393435,0
1019,0.010766133143172561,0
1020,0.3515639741572032,0
1021,3.6740171665043873,0
1022,6.8612056569750015,0
1023,-0.5970385932648135,0
1024,-1.8168577912889665,0
1025,1.4408327217016226,0
1026,-0.7346996999931404,0
1027,0.18650540946233113,0
1028,0.03683518164524721,0
1029,-0.09975582825440263,0
1030,-0.04734474335303779,0
1031,-0.10123163689008507,0
1032,0.021044066599203437,0
1033,-0.08095423567756233,0
1034,-0.06442669064842015,0
1035,0.07847076184003618,0
1036,0.003343004196697287,0
1037,0.019447467951728498,0
1038,-0.11860278775634209,0
1039,-0.027896712154780217,0
1040,0.22310854251521764,0
1041,3.6733613715018594,0
1042,6.752334008528889,0
1043,-0.5336926867911828,0
1044,-1.809983374407865,0
1045,1.4279153949147867,0
1046,-0.7840902192553042,0
1047,0.1704592817565857,0
1048,-0.034477291736317285,0
1049,-0.12972647688414551,0
1050,-0.008031281201721831,0
1051,0.01769629463920106,0
1052,-0.015290009297551253,0
1053,-0.03616575253078044,0
1054,-0.016257011244160048,0
1055,-0.0027462718290839766,0
1056,-0.02011376712848112,0
1057,-4.492862659333588e-05,0
1058,-0.025085873590932603,0
1059,0.058685265583257304,0
1060,0.3511094047062284,0
1061,3.6815145557278774,0
1062,6.88981610186581,0
1063,-0.5853631317163893,0
1064,-1.7493103982881864,0
1065,1.4550173957345665,0
1066,-0.7720893423977898,0
1067,0.0854379830837764,0
1068,-0.04295766437042246,0
1069,-0.0029292539556979302,0
1070,-0.00110306694122677,0
1071,-0.08987186357736028,0
1072,-0.010560758531812358,0
1073,-0.020148056985221572,0
1074,0.12490325392493547,0
1075,0.05643637838955734,0
1076,0.001798849598501415,0
1077,-0.03832454301271357,0
1078,0.04647006820719838,0
1079,0.01870027768934515,0
1080,0.21003860118007692,0
1081,3.6934441189645235,0
1082,6.856010523709239,0
1083,-0.5401699467842294,0
1084,-1.8352415579492558,0
1085,1.6706482994363996,0
1086,-0.8007981034347322,0
1087,0.1033666873229592,0
1088,-0.022509938517842186,0
1089,-0.08322282280009578,0
1090,0.05966006243621101,0
1091,-0.019126367152489263,0
1092,0.03203290632327184,0
1093,0.06500960127000394,0
1094,0.015224267388078042,0
1095,-0.05619646022808632,0
1096,-0.07336417931508141,0
1097,0.004038559882809147,0
1098,0.017831651258127315,0
1099,-0.01621795858915344,0
1100,0.34804089024982293,0
1101,3.657350318437498,0
1102,6.720008090525337,0
1103,-0.56089593097246,0
1104,-1.7942021351614525,0
1105,1.4476577788299168,0
1106,-0.735626269911649,0
1107,0.15147762341718435,0
1108,0.08353360768391582,0
1109,-0.033265972362351716,0
1110,0.028405757575724597,0
1111,0.05836175493533435,0
1112,-0.04668736822099346,0
1113,0.0039635084864478864,0
1114,-0.02102164119199576,0
1115,-0.09622821339666154,0
1116,0.07598435814090108,0
1117,-0.07956967932076979,0
1118,0.09941367153240241,0
1119,0.03871845173422844,0
1120,0.20859588618892505,0
1121,3.591788381796056,0
1122,6.841099965719904,0
1123,-0.6053360653833678,0
1124,-1.8144678637014033,0
1125,1.5639882296428005,0
1126,-0.7097320241269274,0
1127,0.2279263827618433,0
1128,0.041362326364153115,0
1129,-0.07209575936926596,0
1130,0.008751676972777282,0
1131,0.008856308500584421,0
1132,-0.13052793756103245,0
1133,0.045562048693516946,0
1134,-0.011049577183880407,0
1135,0.03152721833008267,0
1136,0.026394969568649052,0
1137,-0.052850436896654945,0
1138,-0.04220148743943917,0
1139,0.06552451654930229,0
1140,0.2930837726445661,0
1141,3.7598494476417157,0
1142,6.725959356225943,0
1143,-0.6060363703696008,0
1144,-1.7341117333574536,0
1145,1.5344249217161958,0
1146,-0.7725719336338961,0
1147,0.12869656657268042,0
1148,-0.014631591866178694,0
1149,0.01707108797380437,0
1150,0.0034989510913942395,0
1151,0.032828219352863695,0
1152,0.008617862088475668,0
1153,0.009651407044291405,0
1154,0.006913731844434057,0
1155,0.023827966068134924,0
1156,0.08095598646664798,0
1157,-0.011809158115505897,0
1158,0.022521377087763462,0
1159,-0.043430843796966184,0
1160,0.3195447977687287,0
1161,3.7997850389782686,0
1162,6.843756121637367,0
1163,-0.4884239650127725,0
1164,-1.7589998595866039,0
1165,1.485364803741261,0
1166,-0.7487954235843289,0
1167,0.056177337263517146,0
1168,-0.03305061873201562,0
1169,-0.010123639740765876,0
1170,0.0047538836820779345,0
1171,-0.1677571807235404,0
1172,-0.0036199349989967707,0
1173,-0.012501587407849603,0
1174,-0.05234004848243769,0
1175,-0.141711411649488,0
1176,0.07383208382620339,0
1177,0.0007849531991959754,0
1178,0.013550408106471824,0
1179,0.076653782034844,0
1180,0.2600702511571265,0
1181,3.7127211957452113,0
1182,6.873664382808157,0
1183,-0.5956416940337241,0
1184,-1.6857328724439824,0
1185,1.5730372115707005,0
1186,-0.7063869135117763,0
1187,0.11802225168533714,0
1188,0.1070175454019601,0
1189,0.033489145544892046,0
1190,0.0047665381910014445,0
1191,0.05874380602353026,0
1192,-0.01863266856666935,0
1193,0.04329095284967688,0
1194,-0.02502839520069397,0
1195,0.04706905131342544,0
1196,0.1121913594598424,0
1197,0.04251297065626013,0
1198,-0.019995070032561537,0
1199,0.09214204889157586,0
1200,0.38584717595880597,0
1201,3.68190984249166,0
1202,6.809107883195137,0
1203,-0.5261116841646258,0
1204,-1.7151640750616424,0
1205,1.504892095469574,0
1206,-0.7471429197722206,0
1207,0.29315300155467366,0
1208,-0.020808235291282402,0
1209,-0.08935084054468734,0
1210,0.04023440002462241,0
1211,0.015695791289295394,0
1212,0.044336523347405996,0
1213,0.08040597307358979,0
1214,-0.01559492058357868,0
1215,0.04419672712100341,0
1216,0.10950489891535445,0
1217,-0.03300557693127372,0
1218,0.09215461542332821,0
1219,0.05450808647594307,0
1220,0.3407055782246644,0
1221,3.699220802531316,0
1222,6.8902609822500915,0
1223,-0.44070391607841886,0
1224,-1.681907938913888,0
1225,1.4746615964731762,0
1226,-0.7202268976173737,0
1227,0.10745149326148407,0
1228,0.012267244465031791,0
1229,-0.04931302916009487,0
1230,0.056778839710511786,0
1231,0.07689826792034653,0
1232,-0.03215176113674555,0
1233,-0.014952242355022852,0
1234,0.017620978556294093,0
1235,0.0001563303521629443,0
1236,0.024878332933964714,0
1237,-0.03908255361413154,0
1238,0.030167761684677528,0
1239,-0.012775519845781706,0
1240,0.28098927752349284,0
1241,3.6725030460867174,0
1242,6.718170177059111,0
1243,-0.60811371873967,0
1244,-1.7213043630566869,0
1245,1.530849294725301,0
1246,-0.8210725189196115,0
1247,0.09455097230640205,0
1248,-0.049946738444292545,0
1249,-0.08265597034507645,0
1250,-0.0038881299321522067,0
1251,-0.05184208388727307,0
1252,-0.03374529430710586,0
1253,-0.006312352348765103,0
1254,0.051115232573541884,0
1255,-0.014730295965941744,0
1256,0.024357756635381807,0
1257,0.023771086444813867,0
1258,-0.03764759569053376,0
1259,-0.036235860293498144,0
1260,0.2942574108850682,0
1261,3.7896272679478984,0
1262,6.779080814747193,0
1263,-0.64862379959614,0
1264,-1.7895370481622184,0
1265,1.5428112400675609,0
1266,-0.7022240845559662,0
1267,0.1896712646417426,0
1268,0.03615007666626874,0
1269,-0.0811010966321738,0
1270,-0.04396033777973178,0
1271,0.033479990756348305,0
1272,-0.0019464729655984704,0
1273,-0.025482690575924612,0
1274,0.022392689071348698,0
1275,0.004442595523294328,0
1276,-0.02160288571740323,0
1277,-0.002497633234966004,0
1278,-0.008845008345814477,0
1279,0.057589814496038866,0
1280,0.34500891802145084,0
1281,3.6867767985074034,0
1282,6.828196668596483,0
1283,-0.6390473592016662,0
1284,-1.7232702558271278,0
1285,1.524442991169042,0
1286,-0.8492919887748643,0
1287,0.0917340374005525,0
1288,-0.0715562007846232,0
1289,-0.037966329806820964,0
1290,0.06314285187409323,0
1291,-0.03539211610275188,0
1292,-0.0374926407808044,0
1293,-0.045605367835676265,0
1294,-0.025178177756840902,0
1295,-0.06196556402330107,0
1296,0.014954720777045821,0
1297,-0.029494757505333372,0
1298,-0.10010512508910224,0
1299,-0.032581646335428434,0
1300,0.33150180992765316,0
1301,3.7434768662590727,0
1302,6.873780976649935,0
1303,-0.574862399526282,0
1304,-1.6733683406773918,0
1305,1.4584364601422766,0
1306,-0.8082138065156559,0
1307,0.27790889869413127,0
1308,0.09921039204215848,0
1309,-0.03564878649120195,0
1310,0.06599839804366213,0
1311,0.10875543119015821,0
1312,0.0002867085158563237,0
1313,0.040994308916583996,0
1314,0.03449569284481455,0
1315,-0.010397555810432361,0
1316,0.004437418607033462,0
1317,0.03038732866446102,0
1318,0.01774844152103018,0
1319,0.007664098533372623,0
1320,0.3489725073361693,0
1321,3.743291254219915,0
1322,6.836961405845235,0
1323,-0.5390014103756149,0
1324,-1.7536229833859909,0
1325,1.4525020105988131,0
1326,-0.6473284471593699,0
1327,0.16986247704570692,0
1328,-0.027227071957922313,0
1329,0.031602857171953505,0
1330,0.010983589307594297,0
1331,-0.03422450061560456,0
1332,0.06327815289377248,0
1333,0.027153826226419087,0
1334,-0.14248482413962427,0
1335,0.05735481992810534,0
1336,0.0353073116606414,0
1337,0.07013103403137641,0
1338,0.017949032006533642,0
1339,0.08274512552351705,0
1340,0.2825893408739291,0
1341,3.8500337614957667,0
1342,6.816619920316952,0
1343,-0.5387758074899587,0
1344,-1.7314696300288368,0
1345,1.5438330611233215,0
1346,-0.8770259500101663,0
1347,0.21169821989644494,0
1348,-0.07641654318934199,0
1349,-0.007275412857332609,0
1350,0.0713368407353801,0
1351,-0.07101415172495332,0
1352,0.010219890038343935,0
1353,-0.02791568836150132,0
1354,0.08055755684305857,0
1355,0.01915925442366503,0
1356,0.05617436720135782,0
1357,0.023095370218803635,0
1358,-0.07598669185419327,0
1359,0.041852362262342756,0
1360,0.3533279342021533,0
1361,3.762566991121084,0
1362,6.8692617236621665,0
1363,-0.570033232563192,0
1364,-1.7242711285063157,0
1365,1.4420917310475587,0
1366,-0.6863270785381619,0
1367,0.25050631888759534,0
1368,0.055608071482246856,0
1369,0.008738650428368966,0
1370,0.033905797926046505,0
1371,0.05483871548218913,0
1372,0.03444239490174273,0
1373,0.00782208988527254,0
1374,0.05905067643258106,0
1375,-0.015774135794725426,0
1376,0.05459020054802873,0
1377,0.025768960927312803,0
1378,0.0480439766836397,0
1379,0.0680915772016937,0
1380,0.3553606580348253,0
1381,3.7618923620343985,0
1382,6.837777925970982,0
1383,-0.5661744887868911,0
1384,-1.7529222400532967,0
1385,1.5363782847898064,0
1386,-0.7097242525253724,0
1387,0.14381138806967034,0
1388,0.08341165162401608,0
1389,-0.07923115735602075,0
1390,0.12918625600534073,0
1391,-0.021286142430509265,0
1392,0.01373902813743882,0
1393,-0.014699443575124954,0
1394,0.04750717973714392,0
1395,-0.07839119916739752,0
1396,0.06494247011533351,0
1397,0.0010728344144182549,0
1398,-0.05507271497396423,0
1399,0.09515627854599429,0
1400,0.1530774993731916,0
1401,3.7894171196465005,0
1402,6.827630939325155,0
1403,-0.6448166774201404,0
1404,-1.7747317048961646,0
1405,1.4279161795164552,0
1406,-0.724188201164135,0
1407,0.1858479732728317,0
1408,0.08071860111580856,0
1409,-0.05880297003131843,0
1410,0.05428441060863606,0
1411,0.021168242746637433,0
1412,0.04672676569636902,0
1413,0.10156420601998689,0
1414,-0.025749253138064775,0
1415,0.06339765456293929,0
1416,0.0226816186043523,0
1417,0.04552290609901065,0
1418,0.07932262941176632,0
1419,0.0040219405678104244,0
1420,0.39178143960701317,0
1421,3.720326123678226,0
1422,6.775648349760506,0
1423,-0.703581072029421,0
1424,-1.6646469788948515,0
1425,1.538881250460013,0
1426,-0.811312301666421,0
1427,0.12868065779559096,0
1428,0.05572979579962295,0
1429,-0.013737392564160806,0
1430,0.05369125826864336,0
1431,0.07160443234133071,0
1432,0.020975374250168034,0
1433,-0.06503927544421637,0
1434,0.04074680809869408,0
1435,-0.013941598979288546,0
1436,0.09059737508087991,0
1437,0.050175125431746605,0
1438,0.1091759683701662,0
1439,0.009884789911242791,0
1440,0.3910534723593831,0
1441,3.7672619828096754,0
1442,6.79769646021626,0
1443,-0.6574531036024803,0
1444,-1.8326148290520148,0
1445,1.5330444111119725,0
1446,-0.6886480306314943,0
1447,0.13937848132020797,0
1448,0.03579744674616348,0
1449,-0.013480964688411028,0
1450,0.07688239940623691,0
1451,0.041066715977005744,0
1452,0.0196624022458711,0
1453,0.031613600317637366,0
1454,-0.03853595766356216,0
1455,-0.06299187010558904,0
1456,-0.11281752011957488,0
1457,-0.14430137883773372,0
1458,-0.05064091405005992,0
1459,-0.046682443181368036,0
1460,0.3305997074761599,0
1461,3.7818333486922775,0
1462,6.725185366749789,0
1463,-0.6688138325277789,0
1464,-1.7439713985457168,0
1465,1.5286942136877237,0
1466,-0.8819313525966715,0
1467,0.16739347735707805,0
1468,-0.045339791812497095,0
1469,-0.027001891536038485,0
1470,-0.028652620998723028,0
1471,-0.04862273655824105,0
1472,-0.00995485900762625,0
1473,-0.03672359960105474,0
1474,-0.0021668588347717455,0
1475,-0.0843667010024237,0
1476,0.025873457957233587,0
1477,-0.009439802642043051,0
1478,-0.06394995732749878,0
1479,-0.11615585610795567,0
1480,0.27060534661663016,0
1481,3.7536775630305845,0
1482,6.7824476504249755,0
1483,-0.6717182095532822,0
1484,-1.6629401533908856,0
1485,1.5791663005295251,0
1486,-0.7367795971316226,0
1487,0.1645215514311789,0
1488,-0.06847566813990236,0
1489,-0.0645132056407007,0
1490,-0.08431925245319319,0
1491,-0.007563994588457121,0
1492,-0.06568186353794261,0
1493,-0.050153283595597856,0
1494,-0.07172552679576763,0
1495,-0.10714471885017537,0
1496,-0.04317861236744729,0
1497,0.032394656219716586,0
1498,-0.06096754657666267,0
1499,0.039787039161516775,0
1500,0.21188157491856535,0
1501,3.774273447278322,0
1502,6.617634255277326,0
1503,-0.7418507368895637,0
1504,-1.8243429156027198,0
1505,1.490995156685012,0
1506,-0.8706850137376787,0
1507,0.10473405896589517,0
1508,0.0036014416120426357,0
1509,-0.029972560684379992,0
1510,-0.03654000872763928,0
1511,-0.08631524792820308,0
1512,-0.06669169988120863,0
1513,-0.06802983578675864,0
1514,-0.02759220871566916,0
1515,-0.005498476608337022,0
1516,-0.05250005813693717,0
1517,-0.15127074984744598,0
1518,-0.07969086747381648,0
1519,-0.05654603116895056,0
1520,0.34656288963791326,0
1521,3.733344514211004,0
1522,6.7675444287484865,0
1523,-0.5946722125480941,0
1524,-1.7769040079282772,0
1525,1.5490427670403537,0
1526,-0.7202950126564795,0
1527,0.17297842425765048,0
1528,0.004155446209631614,0
1529,-0.04946368079795585,0
1530,-0.08508520389272609,0
1531,0.05284272948313899,0
1532,-0.06592647860678691,0
1533,-0.03055661540715161,0
1534,-0.06005049285132831,0
1535,-0.07934804831931228,0
1536,-0.03798682705229924,0
1537,0.03332785843062571,0
1538,-0.06585822370853613,0
1539,-0.018454386676544234,0
1540,0.2680382871126713,0
1541,3.7123116203508526,0
1542,6.702134883304681,0
1543,-0.7018406667921875,0
1544,-1.748803448495745,0
1545,1.4254947788960592,0
1546,-0.8300872183448542,0
1547,0.2193123043743104,0
1548,-0.06275227365175984,0
1549,0.012229509738956063,0
1550,-0.10979474133071983,0
1551,-0.03624641177037358,0
1552,0.03818213236384881,0
1553,-0.0032330789909602586,0
1554,-0.09064854640449856,0
1555,-0.055122490671726476,0
1556,-0.00371745562893519,0
1557,-0.0693980421765084,0
1558,-0.07753013846875895,0
1559,-0.007238733547387875,0
1560,0.2625660201213212,0
1561,3.846340849897777,0
1562,6.750128418135843,0
1563,-0.7299262592552366,0
1564,-1.7210896695979916,0
1565,1.5729227091043518,0
1566,-0.6783350321753588,0
1567,0.1824747091054937,0
1568,-0.013903902364554372,0
1569,-0.1027737539923193,0
1570,-0.053185857862672506,0
1571,-0.061633725084573876,0
1572,0.03648960429191885,0
1573,0.02901777047889785,0
1574,-0.02579153544700725,0
1575,0.0645653744066845,0
1576,-0.088914355270881,0
1577,-0.04813140283240879,0
1578,0.009366878692062895,0
1579,0.0556176960930829,0
1580,0.35874731452678027,0
1581,3.810422302704364,0
1582,6.793631542906757,0
1583,-0.7096490700321358,0
1584,-1.7472068528487605,0
1585,1.5670332647830942,0
1586,-0.7295533960095559,0
1587,0.21964695812702642,0
1588,0.037402158226004,0
1589,0.045694785517793796,0
1590,0.060145299679560574,0
1591,0.085505667540048,0
1592,0.09938755678285337,0
1593,0.0033251653402016357,0
1594,0.037695810963370505,0
1595,-0.002898294420522085,0
1596,0.0688804402171603,0
1597,-0.023065239100532153,0
1598,0.021179391664024556,0
1599,0.11000758196806029,0
1600,0.4112353502793875,0
1601,3.855701066787734,0
1602,6.716941026308438,0
1603,-0.6684960461183146,0
1604,-1.6171183929761699,0
1605,1.516220236157004,0
1606,-0.6455499989985867,0
1607,0.2353468674407606,0
1608,0.054801097727222726,0
1609,-0.03113665561323636,0
1610,0.03728298508112595,0
1611,-0.10358839067522979,0
1612,0.0165168679865381,0
1613,-0.02672679513520498,0
1614,-0.10407652079555638,0
1615,-0.05944967001153069,0
1616,-0.06685488201049788,0
1617,-0.028052685499922903,0
1618,-0.05518423887376423,0
1619,-0.059325945303957406,0
1620,0.29592849975103513,0
1621,3.7232630583112596,0
1622,6.720377825144888,0
1623,-0.7358277733700018,0
1624,-1.7945845661719442,0
1625,1.479857159160334,0
1626,-0.8265069475562978,0
1627,0.04583196229591392,0
1628,-0.09884032326600145,0
1629,-0.10259987472242259,0
1630,-0.02245272313165604,0
1631,-0.007380662436320885,0
1632,-0.08204166911807366,0
1633,-0.08139635358039916,0
1634,-0.029305119208012157,0
1635,-0.02546697271964046,0
1636,0.05503689856002138,0
1637,0.023235792773605095,0
1638,-0.00012967321158215833,0
1639,0.02134006462829962,0
1640,0.41341748609390994,0
1641,3.841266555960683,0
1642,6.810415388535044,0
1643,-0.6240171439779835,0
1644,-1.6996943452268745,0
1645,1.5122763000872383,0
1646,-0.7839961239567674,0
1647,0.17820513470790988,0
1648,0.04991895779017417,0
1649,-0.1203927036155612,0
1650,0.01198097095200023,0
1651,-0.013756913018020511,0
1652,-0.10779681840816896,0
1653,-0.0405595160972165,0
1654,0.03190813109842829,0
1655,-0.020838227901488413,0
1656,-0.0007692723039253932,0
1657,-0.014885668493691377,0
1658,-0.034590286901222095,0
1659,-0.1276820504373975,0
1660,0.299249157052652,0
1661,3.7856187894536113,0
1662,6.820265850875336,0
1663,-0.7110875303939894,0
1664,-1.7427087644764714,0
1665,1.5214941381939828,0
1666,-0.7061851585674965,0
1667,0.1385391810672204,0
1668,-0.02224918578854858,0
1669,0.04188493514297753,0
1670,0.010659517194240195,0
1671,-0.024825107052125227,0
1672,-0.02762965575293039,0
1673,0.046270458176834,0
1674,-0.0610855760048529,0
1675,0.04590031356082627,0
1676,-0.02537581041968785,0
1677,-0.013850959922093847,0
1678,-0.035283837466822066,0
1679,-0.020087480441807255,0
1680,0.348833096898065,0
1681,3.7445959108071927,0
1682,6.723431126081116,0
1683,-0.7713917005819395,0
1684,-1.7886262748824815,0
1685,1.4331142926979987,0
1686,-0.8315725344240523,0
1687,0.17264209942905864,0
1688,-0.016398467886494895,0
1689,-0.06990935542150409,0
1690,0.003919455290605512,0
1691,-0.044364167480960316,0
1692,-0.015297515069207132,0
1693,-0.03032740274936769,0
1694,0.03630629836116005,0
1695,-0.010450664748919238,0
1696,0.02029721417938926,0
1697,-0.009224004806513865,0
1698,0.0318351781641554,0
1699,0.039095115270566555,0
1700,0.32358647306580557,0
1701,3.774500648153164,0
1702,6.809942521438482,0
1703,-0.6557250127260047,0
1704,-1.6938535284866505,0
1705,1.453988913929626,0
1706,-0.7433419782928903,0
1707,0.2022442297176795,0
1708,0.0066106985727830275,0
1709,0.030207301028274916,0
1710,0.010761043154540299,0
1711,-0.03709397830689382,0
1712,-0.0770016164835697,0
1713,0.025276486825454823,0
1714,-0.05066320425156415,0
1715,-0.0026701286985097716,0
1716,0.040951516570409865,0
1717,-0.0034523331604703403,0
1718,-0.1311308992695422,0
1719,-0.09375454709706321,0
1720,0.40400275876806624,0
1721,3.7382388985975097,0
1722,6.753395356016268,0
1723,-0.7580933332585781,0
1724,-1.721565113673488,0
1725,1.4848523070603905,0
1726,-0.8803337132015615,0
1727,0.04026967145288514,0
1728,0.06022540921327199,0
1729,-0.013403911568234866,0
1730,-0.07783572935227057,0
1731,-0.040542077522043446,0
1732,-0.03443635327672101,0
1733,0.007158565732011846,0
1734,-0.09077893483063475,0
1735,-0.018135953083671504,0
1736,-0.007233805235929369,0
1737,-0.011292119279519175,0
1738,-0.09832652567862696,0
1739,-0.08711205467993768,0
1740,0.2926744037660743,0
1741,3.82892202371953,0
1742,6.710252114035903,0
1743,-0.7984258419081175,0
1744,-1.695128280277256,0
1745,1.365127959772617,0
1746,-0.7384633699833536,0
1747,0.14330537219759454,0
1748,0.017221408404242314,0
1749,-0.024724639599192244,0
1750,-0.017350544441416517,0
1751,-0.04534168083493985,0
1752,-0.10031061051355204,0
1753,-0.016108306787820124,0
1754,-0.09772085754574933,0
1755,-0.07158008767102705,0
1756,-0.06913071411271766,0
1757,-0.06581612387056285,0
1758,-0.07680956799709265,0
1759,-0.1799483095774263,0
1760,0.3626077603204316,0
1761,3.588424066215537,0
1762,6.721555601844098,0
1763,-0.8849334397852028,0
1764,-1.728072917177311,0
1765,1.362429240388044,0
1766,-0.9607189658545214,0
1767,0.08130924742089592,0
1768,-0.1589355206265718,0
1769,-0.10864558383642711,0
1770,-0.05484778849952929,0
1771,-0.1900767514813552,0
1772,-0.1340151186545509,0
1773,-0.13342159074407584,0
1774,-0.09161024004631661,0
1775,-0.09074956656506566,0
1776,-0.06436794149345658,0
1777,-0.03659687964513285,0
1778,-0.09206957496275518,0
1779,-0.03208850769478316,0
1780,0.3404330864747618,0
1781,3.7982075327188864,0
1782,6.6434108906478455,0
1783,-0.8796090860215965,0
1784,-1.68299019023117,0
1785,1.3849173905014025,0
1786,-0.7909797926676254,0
1787,0.1196729439504972,0
1788,-0.12124217488565192,0
1789,-0.1588826865113079,0
1790,-0.05458326865951038,0
1791,-0.0931626580763607,0
1792,-0.04824390798977628,0
1793,-0.02329188452172612,0
1794,-0.18777133717647576,0
1795,-0.05263643019177808,0
1796,-0.10018908433444744,0
1797,-0.08586084116634728,0
1798,-0.10081844396458889,0
1799,-0.023983945257105344,0
1800,0.31104672337458816,0
1801,3.7783702844078793,0
1802,6.640357040523005,0
1803,-0.7757324051459652,0
1804,-1.7320778933848682,0
1805,1.3756977459954682,0
1806,-0.8609450623147952,0
1807,0.0480530446588274,0
1808,-0.0624955529838732,0
1809,-0.0382709643096756,0
1810,0.03700306670700061,0
1811,0.02020088496850106,0
1812,0.027235343567635288,0
1813,0.04861191537326698,0
1814,-0.08363396706525299,0
1815,-0.04082858022023922,0
1816,-0.059496677588250335,0
1817,-0.10240797455994888,0
1818,0.023257125695987424,0
1819,-0.02157367560764028,0
1820,0.24742629526950982,0
1821,3.7095264210538526,0
1822,6.675579494402947,0
1823,-0.8958962611992524,0
1824,-1.7609672356788248,0
1825,1.4445401033584466,0
1826,-0.7853862601289064,0
1827,0.16389568980263808,0
1828,0.034150661168613615,0
1829,-0.09020860075450246,0
1830,-0.02942660542040567,0
1831,0.05310322893606708,0
1832,-0.051902251131774255,0
1833,-0.06254039791539076,0
1834,0.021988435300416144,0
1835,-0.029023300479244552,0
1836,-0.003566278782439966,0
1837,-0.04797842481922478,0
1838,-0.008907407718976607,0
1839,-0.08108405672230365,0
1840,0.20998583556080502,0
1841,3.6602044514518113,0
1842,6.677672859070942,0
1843,-0.8849364304688518,0
1844,-1.7368073661163435,0
1845,1.3271248516347236,0
1846,-0.9451000268165617,0
1847,0.11999401183835315,0
1848,-0.04351091026976417,0
1849,-0.19797929760338057,0
1850,-0.0952931559483444,0
1851,-0.12651201010490862,0
1852,-0.07789143687549777,0
1853,-0.04739790993314429,0
1854,-0.003368479712835326,0
1855,-0.116040271104329,0
1856,-0.07330046701164752,0
1857,0.03533002512140919,0
1858,0.09998646981149831,0
1859,-0.07823337998592406,0
1860,0.25745574666756754,0
1861,3.8461223401867115,0
1862,6.638670558897654,0
1863,-0.8280811152962101,0
1864,-1.6518745895228242,0
1865,1.414074528704208,0
1866,-0.8864178578967671,0
1867,0.16305759912706172,0
1868,-0.06773198767988553,0
1869,-0.08472482288855217,0
1870,-0.032425373187802406,0
1871,-0.0792972522490038,0
1872,-0.13690601585945733,0
1873,-0.061465259897697855,0
1874,-0.10022121226807133,0
1875,-0.0644874635483549,0
1876,-0.13374407457649823,0
1877,-0.11698678244930852,0
1878,-0.03162815112911371,0
1879,0.013819425883805428,0
1880,0.23334189675187533,0
1881,3.7479263003369527,0
1882,6.658201650003766,0
1883,-0.8692885961525117,0
1884,-1.801764339201931,0
1885,1.3594965023725507,0
1886,-0.90834736349955,0
1887,0.1858442469385389,0
1888,-0.05283109136124512,0
1889,-0.05900320046550458,0
1890,-0.023573321200226385,0
1891,0.01433180771028307,0
1892,0.01220674561491935,0
1893,-0.03138320175160021,0
1894,-0.02409244524266701,0
1895,-0.052860112624553354,0
1896,-0.01096296238271998,0
1897,-0.12513282175763868,0
1898,-0.02825230620521991,0
1899,-0.02076326089412435,0
1900,0.24554834293134536,0
1901,3.7511550121917057,0
1902,6.786322435678689,0
1903,-0.9323085977458501,0
1904,-1.7186890463921376,0
1905,1.4711114967158105,0
1906,-0.8694496167937825,0
1907,0.14446563391262143,0
1908,-0.12644657622804314,0
1909,-0.1077664802012267,0
1910,-0.04765657458521808,0
1911,-0.08250450712697846,0
1912,-0.05386821009202018,0
1913,-0.12206829088728405,0
1914,-0.06489741380351967,0
1915,-0.09213425065999484,0
1916,-0.1551994908190901,0
1917,-0.03631779797133171,0
1918,0.00883040849671498,0
1919,-0.04846973581579081,0
1920,0.23349539785477127,0
1921,3.837107463420285,0
1922,6.745918885718146,0
1923,-0.7726047074272575,0
1924,-1.666565486314451,0
1925,1.4384174532970244,0
1926,-0.8340866589910186,0
1927,0.1000862175676862,0
1928,-0.07892919793085991,0
1929,-0.05866192154741079,0
1930,0.0032039472072978165,0
1931,-0.07556366109732718,0
1932,-2.172559900197324e-05,0
1933,-0.08521010272029815,0
1934,-0.020242886739227195,0
1935,-0.08370152374834641,0
1936,0.017136536213451056,0
1937,-0.15425661146689906,0
1938,-0.04577179286957602,0
1939,-0.12108329117241384,0
1940,0.1371346767471511,0
1941,3.740599464727232,0
1942,6.657171038729017,0
1943,-0.6931001880388771,0
1944,-1.6184430784041834,0
1945,1.480901449371647,0
1946,-0.8723681783754574,0
1947,0.15570891227908765,0
1948,-0.021540112276490837,0
1949,0.06371065022916869,0
1950,-0.06045388429178358,0
1951,-0.05320160390449012,0
1952,0.022587754331599926,0
1953,0.055512154377755016,0
1954,0.06512859144742016,0
1955,0.08497800571271748,0
1956,-0.016667381695677483,0
1957,0.04716758695624896,0
1958,0.005964227583054598,0
1959,0.0012771532591395497,0
1960,0.37366226413816617,0
1961,3.8818672653192,0
1962,6.797983055669222,0
1963,-0.684999935531439,0
1964,-1.7268685481193762,0
1965,1.3938530339938513,0
1966,-0.7563858351788035,0
1967,0.12176205630523186,0
1968,0.10903146004436784,0
1969,-0.035541194339132345,0
1970,-0.09878886175214373,0
1971,0.015613965840052098,0
1972,-0.03414357772212574,0
1973,0.002452795441523197,0
1974,-0.009663630962714014,0
1975,0.017775249886534016,0
1976,0.0008301277805195287,0
1977,-0.030251657557932736,0
1978,-0.1319208159365005,0
1979,0.016556005949903016,0
1980,0.3353874426359134,0
1981,3.691869924313652,0
1982,6.795753053971165,0
1983,-0.8421366815209822,0
1984,-1.7211322580358832,0
1985,1.415709646973459,0
1986,-0.9119156934265794,0
1987,0.0582873548937001,0
1988,-0.057681341535803655,0
1989,-0.09594093545581883,0
1990,-0.04913888831796931,0
1991,-0.10097216682757063,0
1992,0.001566457464078741,0
1993,-0.01407043352981839,0
1994,-0.02606970864633025,0
1995,-0.025203660474655408,0
1996,-0.04066408642271309,0
1997,-0.07876431402193429,0
1998,-0.050134775224603516,0
1999,-0.1009274464364239,0
2000,0.25893452821157986,0
2001,3.833480910664748,0
2002,6.639895770832081,0
2003,-0.7298606102741654,0
2004,-1.6237322948167894,0
2005,1.4431437673657843,0
2006,-0.7948309341548844,0
2007,0.16162740976752477,0
2008,0.024503909077187743,0
2009,-0.028360865092681903,0
2010,0.04418592695041907,0
2011,0.04584316213189708,0
2012,-0.07753308420739244,0
2013,-0.03355688877805793,0
2014,0.027868756717409363,0
2015,-0.018536131598767023,0
2016,0.010302611741500425,0
2017,0.012152529737591799,0
2018,-0.08619815910222363,0
2019,-0.06553584827284234,0
2020,0.37409888672511454,0
2021,3.7712698620935687,0
2022,6.713080017815684,0
2023,-0.8086193996523606,0
2024,-1.7076461734200967,0
2025,1.4343325553623694,0
2026,-0.7113319098935166,0
2027,0.1875380105502883,0
2028,-0.03495159726035148,0
2029,-0.05204648921034274,0
2030,-0.05444382845871608,0
2031,0.0507473235262354,0
2032,0.014039880561389335,0
2033,-0.011466080699505008,0
2034,-0.018400014565510422,0
2035,0.05098133961941302,0
2036,0.023980343306012036,0
2037,-0.059485392636095404,0
2038,0.056018169903294494,0
2039,-0.1067220100753695,0
2040,0.37602512513262143,0
2041,3.8410348970937576,0
2042,6.754223304024791,0
2043,-0.765439342228556,0
2044,-1.6214361888761193,0
2045,1.4181401903600435,0
2046,-0.765755285561769,0
2047,0.23156512017831787,0
2048,-0.05301049981864617,0
2049,-0.05007221424012267,0
2050,0.0035878512325573826,0
2051,-0.11089128056449794,0
2052,0.012973570099811855,0
2053,-0.02338448199150118,0
2054,-0.09851896178768786,0
2055,0.06014184240537992,0
2056,-0.00849756782096021,0
2057,-0.06610973582224552,0
2058,0.04728135443696501,0
2059,0.035953531747707046,0
2060,0.4607555384912768,0
2061,3.904536371089791,0
2062,6.758087619005359,0
2063,-0.7476614168259166,0
2064,-1.549353954825578,0
2065,1.5504675385811388,0
2066,-0.7859126092676001,0
2067,0.2879123735840161,0
2068,0.04901871362805447,0
2069,0.07212824852660205,0
2070,0.08229854566763374,0
2071,-0.030381871938784756,0
2072,0.05168515530821051,0
2073,-0.04521160459685319,0
2074,-0.032417156525523246,0
2075,-0.06794678633222208,0
2076,0.02389993802748104,0
2077,-0.10543205997098588,0
2078,-0.030804172121058248,0
2079,-0.010230789166402004,0
2080,0.374366333527073,0
2081,3.8268464359665497,0
2082,6.683781507537922,0
2083,-0.7893279489155215,0
2084,-1.634702793025882,0
2085,1.4822131214573846,0
2086,-0.826596843963763,0
2087,0.18170954761810432,0
2088,0.03344586887501564,0
2089,-0.046913382109940185,0
2090,0.07536150682087193,0
2091,-0.029956161291334077,0
2092,-0.04495040859785386,0
2093,0.030026957653899417,0
2094,-0.038933460026375176,0
2095,-0.022619236383776647,0
2096,-0.028131106950628103,0
2097,-0.020207695841396145,0
2098,0.016023619819790575,0
2099,-0.04618862002594186,0
2100,0.33587977017104736,0
2101,3.911163192129812,0
2102,6.741751980349046,0
2103,-0.7829732488530197,0
2104,-1.6278465602902856,0
2105,1.5430358230774057,0
2106,-0.6824990660091513,0
2107,0.2572957296382018,0
2108,-0.05662442010392835,0
2109,0.007967248936235573,0
2110,0.13435024001501708,0
2111,0.06601139680573131,0
2112,-0.008860129730614529,0
2113,0.0554902138141936,0
2114,0.03036980545403479,0
2115,0.0646976548637063,0
2116,0.0711062191691795,0
2117,0.033671766108028994,0
2118,-0.022323605168201113,0
2119,-0.03892797689411596,0
2120,0.2879351050599067,0
2121,3.854635243332202,0
2122,6.6837949878250775,0
2123,-0.7961300013315191,0
2124,-1.7325073106975206,0
2125,1.4211410226268884,0
2126,-0.782962252568612,0
2127,0.20345709729293873,0
2128,0.021123988169028718,0
2129,-0.005494520648721871,0
2130,0.028980588419033164,0
2131,0.03125805582257079,0
2132,0.05057216823560926,0
2133,-0.043692862132362585,0
2134,0.029641463201815675,0
2135,0.06046996377810331,0
2136,0.004747955424684123,0
2137,-0.03159859510928042,0
2138,0.0766209074405863,0
2139,0.009811367982915622,0
2140,0.41229294327554267,0
2141,3.904480099578091,0
2142,6.74950329975299,0
2143,-0.8554961270069437,0
2144,-1.5685209591724625,0
2145,1.532164981488512,0
2146,-0.6686833095864797,0
2147,0.25634083284456793,0
2148,0.07774592663986654,0
2149,0.0018967937072496867,0
2150,-0.015442532852541505,0
2151,-0.09025373864788479,0
2152,-0.0030197297435107344,0
2153,0.041601620375700914,0
2154,0.028630264691466515,0
2155,-0.05400706861149274,0
2156,0.07152089058239944,0
2157,0.01615061315035517,0
2158,0.014624158136974569,0
2159,0.07355828428870927,0
2160,0.3902455002257286,0
2161,3.9583421115426582,0
2162,6.792334610179678,0
2163,-0.7212232939437848,0
2164,-1.5623553829153576,0
2165,1.54432341968119,0
2166,-0.6777135958761941,0
2167,0.20975494748777027,0
2168,0.043943126992500345,0
2169,0.07316443849406826,0
2170,0.08258321881985212,0
2171,0.026818236663944298,0
2172,0.03663634045590591,0
2173,-0.013949792415469842,0
2174,0.009618608248703732,0
2175,0.07493483028926184,0
2176,-0.04499268091039907,0
2177,-0.018132174081971784,0
2178,0.054700618646900435,0
2179,0.02888123375902575,0
2180,0.35181565424909955,0
2181,3.901122657005985,0
2182,6.731833820840616,0
2183,-0.8653339355701141,0
2184,-1.636186475642401,0
2185,1.530562914137218,0
2186,-0.7805353337975509,0
2187,0.21606058884624468,0
2188,-0.04510789485566637,0
2189,0.005285427835394912,0
2190,0.14757824787797258,0
2191,0.043261760500445265,0
2192,0.08210554213947815,0
2193,0.09042799183496947,0
2194,0.18122603223583422,0
2195,0.07257843363517048,0
2196,0.08345120061269108,0
2197,0.06993094422149937,0
2198,0.11337069859704185,0
2199,0.06685989733850455,0
2200,0.4181589390857289,0
2201,3.999334805492513,0
2202,6.729455367952585,0
2203,-0.8123078350686149,0
2204,-1.582758516595892,0
2205,1.4771860907950343,0
2206,-0.664640018587295,0
2207,0.2653342397054601,0
2208,0.04593861331553603,0
2209,-0.06944045892539218,0
2210,0.08610410545468934,0
2211,0.06304521141860964,0
2212,0.11545318022281861,0
2213,0.025347330004068035,0
2214,-0.00031218991534054386,0
2215,0.04517614265076309,0
2216,0.03188376339278421,0
2217,0.0005898858873301452,0
2218,0.07222540860997172,0
2219,0.03399649392246146,0
2220,0.462386225018899,0
2221,3.930080197535158,0
2222,6.799722848195377,0
2223,-0.7379652815915376,0
2224,-1.4956679716286176,0
2225,1.4869295523641373,0
2226,-0.7677082546755066,0
2227,0.2487521132489342,0
2228,0.09739777560552311,0
2229,0.016307356317110094,0
2230,0.07339509864881452,0
2231,0.054997117135049935,0
2232,0.08198248066460835,0
2233,0.07441835316717235,0
2234,0.10387471707274855,0
2235,0.0674727178828481,0
2236,0.08929655869915475,0
2237,0.0700961836429293,0
2238,0.013855076681814502,0
2239,0.13186957505101968,0
2240,0.4257160323593777,0
2241,3.93188930550337,0
2242,6.779290027816147,0
2243,-0.7037907875386643,0
2244,-1.5178011467677965,0
2245,1.5331586857104444,0
2246,-0.6058170227347057,0
2247,0.20861049379251384,0
2248,0.11865319287590098,0
2249,0.024123868991790712,0
2250,0.09008218739504802,0
2251,0.06878691433976872,0
2252,0.003864476404709702,0
2253,-0.03541250964024738,0
2254,0.1253239706964932,0
2255,0.10492511528320428,0
2256,0.102827594896282,0
2257,0.04530522398884872,0
2258,0.10357565773348515,0
2259,0.07136100632604214,0
2260,0.4099498751650586,0
2261,3.948409268158013,0
2262,6.753597778567619,0
2263,-0.8536677224279439,0
2264,-1.5449207111059895,0
2265,1.5983299904798474,0
2266,-0.7395585289134176,0
2267,0.34738082624850153,0
2268,0.00048315610394637776,0
2269,0.06448013018765045,0
2270,0.0427479970695623,0
2271,0.1530659864596718,0
2272,0.11233282967698031,0
2273,0.13836279272426572,0
2274,0.16439610403632754,0
2275,0.12042891502807142,0
2276,0.14185280044688378,0
2277,0.14374300433922302,0
2278,0.06482402425727604,0
2279,0.0501273672679567,0
2280,0.515576672187954,0
2281,4.057297295387017,0
2282,6.8105563503606605,0
2283,-0.6929490244437995,0
2284,-1.5369722284897154,0
2285,1.6533859855148727,0
2286,-0.6870775901274434,0
2287,0.30435519504647424,0
2288,-0.0004696904294715504,0
2289,-0.05276814383982582,0
2290,0.034777415512255425,0
2291,-0.07037335867047151,0
2292,0.0037748637740941185,0
2293,-0.07477043862083188,0
2294,0.013609466444471398,0
2295,0.13326648075435082,0
2296,0.15080567266719153,0
2297,0.012725550798213352,0
2298,-0.03214189572617746,0
2299,0.02784942149574234,0
2300,0.3140028711711966,0
2301,3.9627265668697476,0
2302,6.773293618472482,0
2303,-0.7887510442943114,0
2304,-1.4100451791121422,0
2305,1.5890806277846463,0
2306,-0.6907009317771182,0
2307,0.3599657848098556,0
2308,0.0925797381626988,0
2309,0.08514155978179645,0
2310,0.09043599617337154,0
2311,0.07115572880506772,0
2312,0.04023952656604597,0
2313,0.0696403584480233,0
2314,0.19055771075496997,0
2315,0.1130085749240505,0
2316,0.1297747622053387,0
2317,0.13806959840466898,0
2318,0.12557702550000283,0
2319,0.1520954380435248,0
2320,0.4129255722278055,0
2321,4.098972579246395,0
2322,6.8690057178288075,0
2323,-0.8630832407329531,0
2324,-1.4999085272698223,0
2325,1.5566233675678178,0
2326,-0.6623429662985079,0
2327,0.22426370172006127,0
2328,0.08717413362711421,0
2329,0.03460410677458575,0
2330,0.09650424630444851,0
2331,0.04303814188351981,0
2332,0.11114730192806327,0
2333,0.07505739640408715,0
2334,0.05905417378770079,0
2335,0.12338707017443572,0
2336,0.0922535868064614,0
2337,0.11616308818233531,0
2338,0.11583280829382998,0
2339,-0.019187326562350546,0
2340,0.38914391165975876,0
2341,3.9474009141659288,0
2342,6.769052657187176,0
2343,-0.9346144065271921,0
2344,-1.581875190921569,0
2345,1.4893473697019997,0
2346,-0.7781580719315289,0
2347,0.2365721450553137,0
2348,0.06680574115900582,0
2349,-0.05845287123999597,0
2350,0.09562881440933693,0
2351,-0.008191402182545663,0
2352,-0.043521427765742894,0
2353,0.04480809124072555,0
2354,0.12164618321940288,0
2355,0.07729384365440585,0
2356,-0.03060334690794772,0
2357,0.09830847485339925,0
2358,0.07252373754678174,0
2359,0.032851204212062404,0
2360,0.37250742533224246,0
2361,3.9636119975354833,0
2362,6.67725373434402,0
2363,-0.8156751180662914,0
2364,-1.5307349311632854,0
2365,1.5287679598574042,0
2366,-0.6570534942011854,0
2367,0.30918468186690223,0
2368,0.08749190779118395,0
2369,0.06573913283962293,0
2370,0.17384244544199084,0
2371,0.045122104463460815,0
2372,0.1272451933943595,0
2373,0.1720338549940783,0
2374,0.0762167141655256,0
2375,0.12283141720604276,0
2376,0.1590386057820242,0
2377,0.1508952889898217,0
2378,0.09373096759499354,0
2379,0.07813069279722842,0
2380,0.44500581191690636,0
2381,3.9724589598484075,0
2382,6.698133782236756,0
2383,-0.893676578230523,0
2384,-1.5988077077240306,0
2385,1.4252771014354333,0
2386,-0.72507677735827,0
2387,0.19885153620273488,0
2388,-0.014919494589436876,0
2389,-0.03501570915703488,0
2390,0.08065420178872304,0
2391,0.04405142460499265,0
2392,0.038567980340202,0
2393,0.009909552095420715,0
2394,0.0720449835565972,0
2395,0.09847027141552198,0
2396,0.14850775201212768,0
2397,0.07168750333874557,0
2398,0.15739951178957123,0
2399,0.07054391211588229,0
2400,0.5024950493500111,0
2401,4.027619781466657,0
2402,6.725315873088533,0
2403,-0.843792766100951,0
2404,-1.4245261777632454,0
2405,1.5796747310784445,0
2406,-0.7814942631423835,0
2407,0.16375601879359386,0
2408,0.1418045757807112,0
2409,0.052581664159495264,0
2410,0.08530260576615904,0
2411,0.03908411083516071,0
2412,-0.0013449354981510814,0
2413,0.07887286578696734,0
2414,-0.03420169943100168,0
2415,0.02025460206523824,0
2416,0.05278878198511791,0
2417,0.029095392585030556,0
2418,-0.009176031094334503,0
2419,0.0051079945638408215,0
2420,0.2746879213977095,0
2421,3.9461742652733127,0
2422,6.690711764572823,0
2423,-0.93740914151185,0
2424,-1.5351752672333485,0
2425,1.5404127914689796,0
2426,-0.8111651088835106,0
2427,0.26646567144287636,0
2428,0.020151672077975847,0
2429,-0.07904457107650326,0
2430,0.0251765466364339,0
2431,-0.04956362718190123,0
2432,0.037813733577388466,0
2433,0.036501829232404095,0
2434,0.050834190172196016,0
2435,-0.04937539337583324,0
2436,0.09080619008232862,0
2437,0.021205976939041877,0
2438,0.06281839210964534,0
2439,0.10691295131046205,0
2440,0.33669683839521036,0
2441,3.9483288715929064,0
2442,6.7388792396365345,0
2443,-0.8396938469441699,0
2444,-1.5499011623806898,0
2445,1.546339554789315,0
2446,-0.7674831364141611,0
2447,0.14234237707500966,0
2448,-0.029879003209318994,0
2449,-0.021423540913071523,0
2450,0.024146418386713966,0
2451,-0.05838071749581582,0
2452,0.03924322486603844,0
2453,0.011158717710884336,0
2454,0.08125878745619525,0
2455,0.07245325499085331,0
2456,-0.04154603728616413,0
2457,-0.04839082783777236,0
2458,-0.005502295377920428,0
2459,-0.024647282824719563,0
2460,0.3894234724984261,0
2461,4.035759759220541,0
2462,6.704467786664459,0
2463,-0.9106177011521948,0
2464,-1.5972781135061653,0
2465,1.4595125833063456,0
2466,-0.7314591724967724,0
2467,0.181719419744,0
2468,-0.06417303963984651,0
2469,-0.029715443338744207,0
2470,-0.0038858106376207027,0
2471,0.013930183181364911,0
2472,-0.06278319330328558,0
2473,0.005781826376305407,0
2474,0.0004330215850687439,0
2475,0.08482769568158205,0
2476,0.06738108872672707,0
2477,-0.011089748853366202,0
2478,-0.04762828938966597,0
2479,0.025125270989576336,0
2480,0.4082294757342735,0
2481,3.971572514431436,0
2482,6.737777447746287,0
2483,-0.9367620272665842,0
2484,-1.4828498968356056,0
2485,1.422085516216244,0
2486,-0.8450192491436981,0
2487,0.15807057852999992,0
2488,-0.07862731270256718,0
2489,-0.06714762434532948,0
2490,-0.04774291426126892,0
2491,0.0065462047667848855,0
2492,-0.11665360606336227,0
2493,-0.030780059113565256,0
2494,0.010489546784534912,0
2495,-0.11764877487760364,0
2496,0.06947311136149964,0
2497,-0.06649978071003124,0
2498,0.04596690686636005,0
2499,0.01553901285233341,0
2500,0.26141378553260136,0
2501,3.9375886504929034,0
2502,6.703891699676688,0
2503,-0.9450031729464098,0
2504,-1.552077856147091,0
2505,1.4891811908235775,0
2506,-0.7713562928354879,0
2507,0.2356772317801406,0
2508,-0.04172314071857676,0
2509,-0.039181781894263724,0
2510,-0.054031869913302985,0
2511,-0.021962596479062253,0
2512,-0.06573334002076064,0
2513,-0.06108490510522701,0
2514,0.04498849033180115,0
2515,0.07641056008588536,0
2516,0.011838339774472066,0
2517,-0.020338824917200727,0
2518,0.046350551061089,0
2519,-0.05590614947770239,0
2520,0.3553850924938045,0
2521,4.060197439067566,0
2522,6.620494159714851,0
2523,-0.904517174024461,0
2524,-1.6092642328047704,0
2525,1.4712203261079173,0
2526,-0.7673898352903858,0
2527,0.21363914503472758,0
2528,-0.12023008647260416,0
2529,-0.019396319512351975,0
2530,0.0058224821818098,0
2531,0.0535969881682196,0
2532,0.012689311147452441,0
2533,0.07029087991970497,0
2534,0.07060318742611252,0
2535,-0.053482732668611435,0
2536,0.057932919843293594,0
2537,0.12632061424160235,0
2538,0.019224224781037653,0
2539,0.025550866045402226,0
2540,0.3471629211559426,0
2541,3.9410431152891947,0
2542,6.731733639256681,0
2543,-0.9663185392881943,0
2544,-1.536947099999752,0
2545,1.4346969622717627,0
2546,-0.854916107395112,0
2547,0.14504880616703386,0
2548,-0.13594998102520428,0
2549,-0.003277434212992897,0
2550,-0.065475969835615,0
2551,-0.08799618822636626,0
2552,-0.006912327648599434,0
2553,-0.0519780737482149,0
2554,0.01551029348248914,0
2555,-0.0553607595367088,0
2556,-0.022563087935311157,0
2557,-0.020925289677646394,0
2558,-0.02434811008538242,0
2559,-0.04952282066503597,0
2560,0.35780595331076726,0
2561,3.8575307488329744,0
2562,6.62337395331552,0
2563,-1.0105903048781473,0
2564,-1.5270800369509074,0
2565,1.4862517916356592,0
2566,-0.9041914075297349,0
2567,0.29253730383416626,0
2568,-0.028164903786204298,0
2569,-0.1441252829669757,0
2570,-0.058205096007988635,0
2571,-0.18170561926295992,0
2572,-0.07135879150770906,0
2573,-0.08975788415017881,0
2574,-0.05268411884455445,0
2575,-0.003975518975638061,0
2576,-0.04761709860725341,0
2577,0.04126632550984638,0
2578,-0.029162097634099687,0
2579,-0.024360201321533187,0
2580,0.36362145391234996,0
2581,4.021756178854667,0
2582,6.714896343223366,0
2583,-0.9952111629870508,0
2584,-1.5420770789607041,0
2585,1.3765583218923523,0
2586,-0.7344983455478185,0
2587,0.2045586017101615,0
2588,-0.09472097956398888,0
2589,-0.0706907311677993,0
2590,-0.052654614984742734,0
2591,-0.07856429324420032,0
2592,-0.1281136232017183,0
2593,-0.09836929621423131,0
2594,-0.03086042498338358,0
2595,-0.04793306060509463,0
2596,-0.18696107058596462,0
2597,-0.09284857361795355,0
2598,-0.05350914370368261,0
2599,-0.03599504144245469,0
2600,0.3446212541446521,0
2601,3.9070187820252675,0
2602,6.574087580756232,0
2603,-1.095918038452907,0
2604,-1.6313942603728988,0
2605,1.380257492990278,0
2606,-0.8652245314323963,0
2607,0.05872715372861165,0
2608,-0.11166997047362491,0
2609,-0.1477317115626959,0
2610,-0.12189408651402445,0
2611,-0.15129419541962272,0
2612,-0.11992134366352489,0
2613,-0.12964414512355357,0
2614,-0.020032241014725657,0
2615,-0.08642599931126244,0
2616,-0.11989121642986131,0
2617,-0.034373466393657334,0
2618,-0.13027059493164295,0
2619,-0.08198850619569882,0
2620,0.26420736885007023,0
2621,3.8118564176435035,0
2622,6.642358049237483,0
2623,-1.0471660877159221,0
2624,-1.6148410804401765,0
2625,1.3797988383110091,0
2626,-0.8094502743625239,0
2627,0.2379321425135015,0
2628,-0.19530265838689775,0
2629,-0.07159890306070249,0
2630,-0.08501154700714779,0
2631,-0.09828772222595523,0
2632,-0.13438425767590395,0
2633,-0.05978178573566119,0
2634,-0.10434635589167184,0
2635,-0.06127983053215709,0
2636,-0.11683945457489264,0
2637,-0.15963380640858726,0
2638,-0.09160480742388807,0
2639,0.031914366726591065,0
2640,0.3883580861177065,0
2641,3.8394002844860067,0
2642,6.62138088903138,0
2643,-1.0401925011598172,0
2644,-1.5440209326261596,0
2645,1.3017886493425257,0
2646,-0.7846048801626295,0
2647,0.0811911822491898,0
2648,-0.07852420232495223,0
2649,-0.08093687295132568,0
2650,-0.0872933389957101,0
2651,-0.13023007200172576,0
2652,-0.12905589680233637,0
2653,-0.07328882842210183,0
2654,0.0015454103677840364,0
2655,-0.025143578810764275,0
2656,-0.03402408771446996,0
2657,-0.0483704864362113,0
2658,-0.057644551139362565,0
2659,-0.11447502055598235,0
2660,0.24467057891130478,0
2661,3.942293047580042,0
2662,6.5791538373718135,0
2663,-0.9634708522110333,0
2664,-1.5237503258662317,0
2665,1.414103365756028,0
2666,-0.8214107115055994,0
2667,0.17776886902635522,0
2668,-0.1193780025894606,0
2669,-0.09452785443806619,0
2670,-0.12103026883065085,0
2671,0.01477519203558516,0
2672,-0.06198668050001862,0
2673,-0.013490520927317222,0
2674,-0.051510829676431634,0
2675,-0.030633309321052557,0
2676,-0.08916616407551904,0
2677,-0.00505450403017596,0
2678,-0.06622097823931687,0
2679,-0.061986427971193386,0
2680,0.36823599882050073,0
2681,3.8571135004622876,0
2682,6.562802178015658,0
2683,-1.0515576949912993,0
2684,-1.5642260652629407,0
2685,1.4288402230864388,0
2686,-0.9174202160451629,0
2687,0.1319187202952572,0
2688,-0.015282037801429782,0
2689,-0.1401679861677218,0
2690,-0.04409636423988872,0
2691,-0.10073497626624431,0
2692,-0.002721336916950645,0
2693,-0.09679260120123026,0
2694,-0.06779150273608912,0
2695,-0.0924611139713342,0
2696,-0.03536862435655487,0
2697,-0.13771050149729536,0
2698,-0.11405464814818533,0
2699,-0.08407136599685178,0
2700,0.3475476589451602,0
2701,3.979059607859391,0
2702,6.5836353746795275,0
2703,-1.0226681431629927,0
2704,-1.5284302931156473,0
2705,1.3693580978555426,0
2706,-0.8269658528604088,0
2707,0.12418811750315115,0
2708,-0.15501962162966176,0
2709,-0.08995478009120332,0
2710,0.006769667772143231,0
2711,-0.01215801109048461,0
2712,-0.05000620250081,0
2713,-0.044921360814028886,0
2714,-0.08825598555706204,0
2715,0.008775273130182969,0
2716,-0.03141953360107409,0
2717,-0.05199408157475756,0
2718,-0.06399014471711725,0
2719,-0.06094616457309547,0
2720,0.3531986573191898,0
2721,4.049069484184688,0
2722,6.525179261140717,0
2723,-1.078280557053543,0
2724,-1.466199995730834,0
2725,1.3343990468480695,0
2726,-0.7876684393734483,0
2727,0.1893327812220792,0
2728,-0.015761841469526673,0
2729,-0.02644995199701256,0
2730,0.05101457029342387,0
2731,-0.06188378313402827,0
2732,-0.034086062404941664,0
2733,0.029372186181561385,0
2734,-0.046437728976309746,0
2735,-0.0694480659300924,0
2736,0.04994827746570924,0
2737,-0.02632669979455733,0
2738,-0.0662361292869205,0
2739,-0.046916668410821906,0
2740,0.3314324162739086,0
2741,3.980510664838491,0
2742,6.665267305086431,0
2743,-1.0421253054581718,0
2744,-1.6438529179703067,0
2745,1.3364676477985893,0
2746,-0.8505290049037522,0
2747,0.19704900727309038,0
2748,-0.05517482988644685,0
2749,-0.2102390971731376,0
2750,-0.023971735945818102,0
2751,0.001910924060194108,0
2752,-0.0165521469213051,0
2753,-0.12930333246359463,0
2754,0.01084716463616996,0
2755,-0.048700603884365694,0
2756,-0.02377539483684,0
2757,-0.04541579471180143,0
2758,-0.09894482526216003,0
2759,-0.015895516944557587,0
2760,0.40824150748630217,0
2761,4.046978874759161,0
2762,6.59120481391195,0
2763,-0.981188085636272,0
2764,-1.5644191799340799,0
2765,1.4244913704861122,0
2766,-0.8191702775006413,0
2767,0.17816219746651987,0
2768,-0.04590753206590727,0
2769,-0.061260389361956484,0
2770,0.08160864255936746,0
2771,0.051193658112086766,0
2772,-0.041434804932344776,0
2773,0.003081434616194912,0
2774,0.016398295385607716,0
2775,-0.04174956630166933,0
2776,-0.01353296553448439,0
2777,0.12166672313487918,0
2778,0.04500480430529506,0
2779,-0.017102082185015823,0
2780,0.37155839972095384,0
2781,3.951072646648423,0
2782,6.6654330578814545,0
2783,-1.0601678624620345,0
2784,-1.450323063941945,0
2785,1.5278355313182357,0
2786,-0.853793566853781,0
2787,0.1269826093188796,0
2788,-0.10026909381238891,0
2789,-0.025621186175935354,0
2790,-0.124900543783061,0
2791,0.027703522885688458,0
2792,-0.054110842553318675,0
2793,0.039265918091344526,0
2794,0.005460664293880471,0
2795,0.012130939878680023,0
2796,0.05390699761109918,0
2797,0.02031476831268524,0
2798,0.07819266751072476,0
2799,0.057434715258644436,0
2800,0.44510655837039925,0
2801,3.9878862654709732,0
2802,6.721254676909708,0
2803,-0.948058392958091,0
2804,-1.4455530102363274,0
2805,1.4757980338894843,0
2806,-0.7457888520165732,0
2807,0.20725635446102658,0
2808,0.07417228373385674,0
2809,0.03846448271504594,0
2810,-0.026238438135839905,0
2811,0.03520582803881766,0
2812,0.01516586369332344,0
2813,-0.027304687685014508,0
2814,-0.08283517431379853,0
2815,-0.062336790367137296,0
2816,0.05176263031101095,0
2817,-0.007923589336034143,0
2818,0.09809750394312408,0
2819,0.004468341040957932,0
2820,0.3102153855716879,0
2821,3.9663917877228756,0
2822,6.5974939021495045,0
2823,-1.029221011118478,0
2824,-1.5394760254254825,0
2825,1.388323911366671,0
2826,-0.8000039013291643,0
2827,0.2527502381777136,0
2828,-0.0763523572712164,0
2829,-0.019167476503948528,0
2830,0.01952474251703633,0
2831,0.015697912883458915,0
2832,-0.024027757115937062,0
2833,0.03804115180555274,0
2834,0.05770368153008452,0
2835,0.015305372456509847,0
2836,-0.023095523939126582,0
2837,-0.005210742264732578,0
2838,-0.03670348310861617,0
2839,-0.04569423169421909,0
2840,0.3880709749351542,0
2841,4.014266898801966,0
2842,6.598299679080112,0
2843,-0.9813250599764882,0
2844,-1.5414715105767496,0
2845,1.2978603113737475,0
2846,-0.7753395605995089,0
2847,0.1351095635559471,0
2848,-0.06376986005661991,0
2849,-0.10394020614023793,0
2850,0.051339331433200575,0
2851,-0.06417641655647793,0
2852,-0.07397723229167999,0
2853,0.022077088518576878,0
2854,-0.024452040384485063,0
2855,0.039365812917471835,0
2856,0.05390191981847084,0
2857,-0.11313281599599594,0
2858,0.028755266144942445,0
2859,-0.021497090464956802,0
2860,0.39451249049775183,0
2861,3.9207677393555476,0
2862,6.661078667262583,0
2863,-0.9620352883386792,0
2864,-1.3726576371413346,0
2865,1.4470088323426422,0
2866,-0.7445247206321411,0
2867,0.2116658538032414,0
2868,0.0010525128269686709,0
2869,-0.08260711642180257,0
2870,0.022034047941860042,0
2871,0.11891123447440463,0
2872,0.1071121601670364,0
2873,0.0808644685490162,0
2874,-0.011418255035039957,0
2875,-0.016867144389597404,0
2876,0.05566833271502157,0
2877,-0.09275923070206145,0
2878,-0.09295746158808488,0
2879,0.04320386363883649,0
2880,0.4456658100207138,0
2881,4.001419919497919,0
2882,6.668233836862801,0
2883,-1.0142580408168822,0
2884,-1.447939966947825,0
2885,1.43871098103043,0
2886,-0.7281257106782648,0
2887,0.2412380779484791,0
2888,0.016990030760133834,0
2889,-0.049299598845680415,0
2890,-0.007812028191814587,0
2891,0.034911536671535924,0
2892,0.047408570624896604,0
2893,0.06341750784299754,0
2894,0.06681324148455248,0
2895,0.007474549386950665,0
2896,0.0075601297757439505,0
2897,0.0205278368440739,0
2898,-0.026509708502859754,0
2899,-0.07301339588986286,0
2900,0.27237086512770664,0
2901,3.9695584991765047,0
2902,6.6134350644268,0
2903,-1.0424375759692404,0
2904,-1.4894339259972722,0
2905,1.3619457318712611,0
2906,-0.8504959972504157,0
2907,0.08839515332595901,0
2908,-0.09791510082406252,0
2909,-0.00597929181679991,0
2910,-0.05117677592012765,0
2911,-0.04990329713987382,0
2912,0.029863023357768574,0
2913,0.03620384272630302,0
2914,-0.07440515586474752,0
2915,-0.07454953666350202,0
2916,-0.040879657369916944,0
2917,0.013359478944105364,0
2918,-0.037909572709256587,0
2919,-0.03646489076651058,0
2920,0.3387618740063798,0
2921,3.8762825152673663,0
2922,6.573438351198059,0
2923,-0.9801310079614971,0
2924,-1.5562281853113524,0
2925,1.4382446523364492,0
2926,-0.8079740014498608,0
2927,0.11196209108075766,0
2928,-0.031557710752384116,0
2929,-0.027714369249904763,0
2930,-0.01046571697280909,0
2931,-0.0499549546711753,0
2932,0.028605582093891243,0
2933,0.04587404598112319,0
2934,0.029810104703095423,0
2935,-0.007082350733809681,0
2936,-0.009932285496622149,0
2937,0.02828059561132705,0
2938,0.11171678881864777,0
2939,-0.07642150180766598,0
2940,0.4464340837248406,0
2941,4.000547433239989,0
2942,6.658080998440583,0
2943,-1.1032187428896174,0
2944,-1.4714899661608214,0
2945,1.4268462273538847,0
2946,-0.8159953860678588,0
2947,0.23245749210816752,0
2948,0.07443543118829032,0
2949,0.030136003085382095,0
2950,0.03153789189294445,0
2951,0.1291190111575005,0
2952,0.04243056906154246,0
2953,0.00023563286605708667,0
2954,-0.003124129633331897,0
2955,-0.01098850425498378,0
2956,0.012144643354724784,0
2957,0.05237491345891533,0
2958,-0.021437225277267102,0
2959,0.02002185031448523,0
2960,0.3688983275978473,0
2961,4.022306935756714,0
2962,6.661504659701248,0
2963,-1.0301676359655236,0
2964,-1.474609816175895,0
2965,1.5050339069255592,0
2966,-0.7306615042013745,0
2967,0.23675721160085425,0
2968,-0.11081914182527138,0
2969,-0.010176502283347495,0
2970,0.022459007432034748,0
2971,0.037572413431121436,0
2972,-0.06963250108919126,0
2973,-0.04140855892887272,0
2974,0.008445307822598329,0
2975,-0.010749612302839776,0
2976,-0.024398306802165152,0
2977,-0.11088450011608497,0
2978,-0.01579936249328436,0
2979,-0.1253191507636162,0
2980,0.39198003210428506,0
2981,3.9851497141598076,0
2982,6.616651865349125,0
2983,-1.1437390845327433,0
2984,-1.4971633465329455,0
2985,1.435135708997286,0
2986,-0.8224817888588092,0
2987,0.22480137067685063,0
2988,-0.02907765836480554,0
2989,0.053241151680557125,0
2990,-0.03853844324175685,0
2991,0.04818461673988463,0
2992,0.09048997062983802,0
2993,-0.009295048786857614,0
2994,0.013987410905760916,0
2995,-0.040242391960514406,0
2996,-0.05129718617051268,0
2997,0.09061877807770212,0
2998,0.10922439253530276,0
2999,0.12713315580076473,0
3000,0.43446980340167285,0
3001,4.135822222824309,0
3002,6.653864271967243,0
3003,-1.0236637244802769,0
3004,-1.393551886447647,0
3005,1.4680988749024808,0
3006,-0.758026356397826,0
3007,0.23839846969387674,0
3008,0.05575080665447049,0
3009,-0.06075749550407236,0
3010,-0.009818120159804253,0
3011,0.06705365941574144,0
3012,-0.02640497235446611,0
3013,0.0019462287312438844,0
3014,-0.03882686399872867,0
3015,-0.09076218846636462,0
3016,0.06765576642672692,0
3017,0.05696137131589667,0
3018,0.037411825685105086,0
3019,-0.024164469840088663,0
3020,0.37927216065771574,0
3021,4.072332519190724,0
3022,6.674864106874801,0
3023,-1.0712954613526844,0
3024,-1.4824908210721857,0
3025,1.4228368257619628,0
3026,-0.6438900105332072,0
3027,0.2421123390837083,0
3028,-0.06514114859053723,0
3029,0.018702079915229104,0
3030,-0.024029336765572704,0
3031,0.08731149421404996,0
3032,0.019663999247482616,0
3033,-0.05507669769087345,0
3034,0.10690958208482071,0
3035,0.03640284900188094,0
3036,-0.0056460421640065935,0
3037,-0.04101042418245993,0
3038,0.018240481157493812,0
3039,0.014722579179122222,0
3040,0.4755614431250421,0
3041,4.054045712609209,0
3042,6.651243360263845,0
3043,-1.0674323838177477,0
3044,-1.4618282573271464,0
3045,1.4695361706734895,0
3046,-0.7214184349627766,0
3047,0.2629265045030631,0
3048,0.02549879492027212,0
3049,0.010614296861845136,0
3050,0.06170351094637161,0
3051,0.1321715340024164,0
3052,0.028020698321959032,0
3053,0.10166355404266833,0
3054,0.0012098012177465395,0
3055,0.04537199350220003,0
3056,0.06655220248980417,0
3057,0.09900732005438583,0
3058,0.08934660993874927,0
3059,-0.009516170085664452,0
3060,0.4783130027653495,0
3061,3.9167858386797216,0
3062,6.642639637787329,0
3063,-1.0403215508295591,0
3064,-1.4855030111671033,0
3065,1.5453489200534598,0
3066,-0.6880351448974995,0
3067,0.311498299865883,0
3068,-0.0006589360530476068,0
3069,-0.012507675547820354,0
3070,0.14554135227663859,0
3071,0.046792239598788886,0
3072,0.06524389152400414,0
3073,0.10028583402789235,0
3074,0.030220944266350875,0
3075,-0.05946397523585505,0
3076,-0.04808773109758489,0
3077,0.039517583537436514,0
3078,0.08504469563538296,0
3079,0.0038619820443377556,0
3080,0.401848543639205,0
3081,4.017590903194459,0
3082,6.6012336882235845,0
3083,-1.0671244298774223,0
3084,-1.4145001648031221,0
3085,1.3719671505400284,0
3086,-0.6922475733048377,0
3087,0.17868401235522272,0
3088,-0.0013166199576165054,0
3089,0.03213595982829006,0
3090,0.0629436947373086,0
3091,0.010341146656244015,0
3092,0.03032080210955603,0
3093,-0.07328906588179153,0
3094,0.02983584351057402,0
3095,-0.10320110241363914,0
3096,0.14591756597289204,0
3097,0.042769954876914144,0
3098,0.0872366418190637,0
3099,0.13519821076106864,0
3100,0.3906820221209978,0
3101,4.038345372450749,0
3102,6.518839830016103,0
3103,-1.0568908029570776,0
3104,-1.4015190538091098,0
3105,1.417974016828741,0
3106,-0.7523364664371642,0
3107,0.2094684129470682,0
3108,0.1370464793232776,0
3109,-0.05871805747968292,0
3110,0.05140858069927996,0
3111,-0.05057884040267809,0
3112,0.001286417444381252,0
3113,0.1679006611388597,0
3114,0.0523999130532139,0
3115,0.09816611648609938,0
3116,0.079132520656634,0
3117,0.09157714362024807,0
3118,0.09154786156834524,0
3119,0.05558989002571497,0
3120,0.4172875613102975,0
3121,4.162692501883564,0
3122,6.6755337813913656,0
3123,-1.1175767001291692,0
3124,-1.387498949478737,0
3125,1.4668295281658346,0
3126,-0.7575214625240239,0
3127,0.2636258918289665,0
3128,0.04775035400544737,0
3129,-0.003973984739046078,0
3130,-0.012721479024057729,0
3131,-0.05205745320477558,0
3132,-0.029315103455686456,0
3133,0.02844391155688312,0
3134,0.04388810722272238,0
3135,0.050727392451917756,0
3136,-0.09506463201320699,0
3137,-0.041508276594147006,0
3138,0.022976924876050242,0
3139,0.08297164187467174,0
3140,0.5064442837184817,0
3141,4.088293007708237,0
3142,6.593502545214958,0
3143,-0.9690784230715211,0
3144,-1.4161124847420503,0
3145,1.5458909498457567,0
3146,-0.7040886944247406,0
3147,0.3145167482998936,0
3148,0.03853875451920068,0
3149,0.026020470924447436,0
3150,0.0684611535685396,0
3151,0.006161394210045071,0
3152,-0.004964206417191325,0
3153,0.02644142751803212,0
3154,0.011873932981452213,0
3155,0.016690319158549263,0
3156,0.0010658936397407223,0
3157,0.038096663940785494,0
3158,0.026254648750301424,0
3159,0.04106947834320822,0
3160,0.39502478774731853,0
3161,4.167557263865581,0
3162,6.702553909566059,0
3163,-1.0961089683090197,0
3164,-1.4076814110362124,0
3165,1.4614418642046898,0
3166,-0.7399804382539793,0
3167,0.21082516545475366,0
3168,-0.04329628074649851,0
3169,0.026221872075530953,0
3170,-0.06111409247930748,0
3171,0.024736123027439418,0
3172,-0.06846958426585885,0
3173,0.011287971396575263,0
3174,-0.04359890581826673,0
3175,0.03235604305836934,0
3176,0.061244203668281455,0
3177,0.015607084341407904,0
3178,-0.033161735742695535,0
3179,0.015694440292012578,0
3180,0.3955554368953896,0
3181,4.081956364230195,0
3182,6.686240267684832,0
3183,-1.0976273070754259,0
3184,-1.4140702788377917,0
3185,1.3399207831959747,0
3186,-0.7095074038101318,0
3187,0.07933110948075292,0
3188,-0.12279255350613277,0
3189,-0.08431590134212792,0
3190,-0.059437229931863955,0
3191,0.002501021130737972,0
3192,-0.008183905211706336,0
3193,0.05313938115194318,0
3194,-0.051537867098864355,0
3195,-0.035550156035242135,0
3196,-0.04180986938254923,0
3197,-0.04725025241439598,0
3198,0.04207130436302732,0
3199,0.005253135690754845,0
3200,0.29046429100129234,0
3201,3.9518129653372336,0
3202,6.542814344483231,0
3203,-1.2185389858447058,0
3204,-1.4544721925117308,0
3205,1.3881031663897083,0
3206,-0.7815134414345061,0
3207,0.1690713674674495,0
3208,-0.05355027051110581,0
3209,-0.03025882238383889,0
3210,0.08140411126815315,0
3211,0.026316310334975442,0
3212,0.001414798664455529,0
3213,0.07315448948996578,0
3214,-0.007987002472897683,0
3215,0.035010615024977224,0
3216,-0.060070998650563104,0
3217,0.03358314495742884,0
3218,0.025305909543935037,0
3219,-0.06547191277399399,0
3220,0.4191979939869657,0
3221,4.148872519083323,0
3222,6.534657046183154,0
3223,-1.1436889170440026,0
3224,-1.3928469077001002,0
3225,1.460397193890027,0
3226,-0.6345304945890681,0
3227,0.16402406162246977,0
3228,-0.07497956665736824,0
3229,-0.10839723280513469,0
3230,0.020159059327768486,0
3231,0.04851563765147361,0
3232,-0.07509648088956053,0
3233,0.022405516987401293,0
3234,-0.024069439199406857,0
3235,0.05337721061606671,0
3236,-0.09645205695401851,0
3237,-0.0597127062493684,0
3238,-0.05208203092901728,0
3239,-0.009027223670760379,0
3240,0.16246236411338988,0
3241,4.054332092498295,0
3242,6.50382748245391,0
3243,-1.1523221201860663,0
3244,-1.4734230961723136,0
3245,1.3228937908387086,0
3246,-0.8549676398629661,0
3247,0.13962502733366808,0
3248,-0.003284459089827399,0
3249,0.011418467122438256,0
3250,0.027901141703299222,0
3251,0.09152346468940226,0
3252,0.00809969187507141,0
3253,0.07085956366052054,0
3254,0.04001353019099246,0
3255,0.09938756853169299,0
3256,0.08611374428214189,0
3257,0.05630533332943696,0
3258,-0.06895048282391836,0
3259,-0.09165716129529913,0
3260,0.38558605863610157,0
3261,4.068709757124033,0
3262,6.563888933846531,0
3263,-1.1802429319550083,0
3264,-1.4497732691390057,0
3265,1.3982200899022195,0
3266,-0.8992779839521285,0
3267,0.07477131332117255,0
3268,0.0036997509109182175,0
3269,0.016562952363275096,0
3270,-0.05723324996779648,0
3271,-0.041691009438127896,0
3272,0.0017048880286033782,0
3273,-0.008999583574144378,0
3274,-0.02730004384837422,0
3275,-0.08889720185067837,0
3276,-0.06812527494193804,0
3277,-0.045884273701479523,0
3278,-0.012097315938237643,0
3279,0.051205572106562326,0
3280,0.40215320963891266,0
3281,4.099063588010509,0
3282,6.613322567023123,0
3283,-1.1135965212423928,0
3284,-1.4068123178233451,0
3285,1.4638583296002905,0
3286,-0.7748208355544653,0
3287,0.25219126479532006,0
3288,-0.018105747792916245,0
3289,-0.08701770242164944,0
3290,-0.0636242558995787,0
3291,0.031733138532576234,0
3292,-0.020481756485820138,0
3293,-0.02076707828818472,0
3294,-0.08308121130688242,0
3295,-0.11920251530611542,0
3296,-0.10200592256147054,0
3297,-0.01742809074081817,0
3298,0.013831898444291672,0
3299,0.006102802379059653,0
3300,0.44078330310647057,0
3301,4.103359447163792,0
3302,6.559390936447382,0
3303,-1.1937975474977496,0
3304,-1.3530307573199991,0
3305,1.398344977154837,0
3306,-0.7579536082525736,0
3307,0.22138892445495914,0
3308,0.03006377311787337,0
3309,0.0013284953804880706,0
3310,0.015042371526528302,0
3311,0.01916274358579438,0
3312,-0.034774623134223234,0
3313,-0.047831366029812125,0
3314,0.018359956548274797,0
3315,0.007117293599899389,0
3316,-0.0023090625323453594,0
3317,0.08137374627314126,0
3318,-0.03710487152331679,0
3319,0.007764352831019642,0
3320,0.4332528764069361,0
3321,4.046598322095215,0
3322,6.605899127865602,0
3323,-1.1629642549937846,0
3324,-1.4056460462936609,0
3325,1.3063670268843626,0
3326,-0.8131209314625947,0
3327,0.32156186845017243,0
3328,-0.002944449920303689,0
3329,-0.03093047460747457,0
3330,0.06294445137916539,0
3331,0.003675225248874203,0
3332,-0.08306868176645038,0
3333,0.04620474739749983,0
3334,0.023187641717073555,0
3335,-0.009986185278788565,0
3336,0.09301830335484891,0
3337,-0.03617768366627015,0
3338,0.08359981418023882,0
3339,-0.057404924955808685,0
3340,0.38647296120590446,0
3341,4.075514332522423,0
3342,6.563501648287534,0
3343,-1.1057972798322377,0
3344,-1.2841033404759603,0
3345,1.486597252682809,0
3346,-0.7298345372407056,0
3347,0.25777285543940504,0
3348,-0.005182486648099088,0
3349,-0.026144978107854308,0
3350,0.028335222363865282,0
3351,0.05228288967340444,0
3352,0.05354165827072178,0
3353,-0.05648008569407467,0
3354,-0.03007643881479052,0
3355,0.051062111783040195,0
3356,0.004090651155532681,0
3357,-0.03417575245590815,0
3358,-0.02163073066329252,0
3359,0.03362699681368989,0
3360,0.4248205850742124,0
3361,4.100181398071468,0
3362,6.64455413584557,0
3363,-1.0898947028567956,0
3364,-1.3883357135845136,0
3365,1.5179561990692063,0
3366,-0.6806100527538792,0
3367,0.27688725499743927,0
3368,0.06013808972708344,0
3369,0.03171265831098613,0
3370,0.016786980182082967,0
3371,-3.814156829158588e-05,0
3372,-0.06597361427203952,0
3373,-0.07700141277733301,0
3374,0.07870446169009825,0
3375,0.12098048434501978,0
3376,-0.09140682724243922,0
3377,0.041097677862018275,0
3378,-0.028476610521789694,0
3379,0.016110348866324026,0
3380,0.4712112169137179,0
3381,4.1699951017233,0
3382,6.606695056813165,0
3383,-1.0591675651565347,0
3384,-1.3209205623389935,0
3385,1.557903871543709,0
3386,-0.7992130875713905,0
3387,0.28214274581576687,0
3388,0.019317238138726683,0
3389,-0.03672384331831209,0
3390,0.06905203774939805,0
3391,0.10912014951318648,0
3392,0.09477825575287446,0
3393,0.00652914905089463,0
3394,0.01857621248570894,0
3395,-0.03372350319138193,0
3396,0.03822623091426923,0
3397,-0.016571882597410416,0
3398,-0.022529361584372166,0
3399,-0.011467785355160603,0
3400,0.4808646355704422,0
3401,4.1267168989035765,0
3402,6.608719327521128,0
3403,-1.180522430420096,0
3404,-1.3672678382531902,0
3405,1.4925567189465114,0
3406,-0.7874324660680913,0
3407,0.2182851493335836,0
3408,0.03474097006110671,0
3409,0.030059088835605395,0
3410,0.02645632569479421,0
3411,-0.03303331030316017,0
3412,0.11816676972595672,0
3413,0.07237870641352129,0
3414,0.009831792451075051,0
3415,0.0074894779056235775,0
3416,0.034243816473565024,0
3417,0.00390371886530326,0
3418,0.016302011114297743,0
3419,0.08135480667847853,0
3420,0.4142427808720182,0
3421,4.124037694051673,0
3422,6.5799966894714865,0
3423,-1.1299954873781872,0
3424,-1.3268643315352662,0
3425,1.4624558179425684,0
3426,-0.844147005282326,0
3427,0.27601375934775824,0
3428,-0.02835135538923491,0
3429,-0.049449542032885374,0
3430,0.0029720960862979137,0
3431,0.07204598807602178,0
3432,-0.03351337827779538,0
3433,-0.008093960159559894,0
3434,0.08832721738229946,0
3435,0.07315268467187216,0
3436,0.013778518423710456,0
3437,0.10076363220325144,0
3438,0.04758959724387386,0
3439,0.05557303605232861,0
3440,0.3782951211247073,0
3441,4.122250575980081,0
3442,6.6106468548824635,0
3443,-1.1544776579732947,0
3444,-1.3125066923992563,0
3445,1.4356924352956004,0
3446,-0.8394090752540719,0
3447,0.3105099475552465,0
3448,-0.02823421774083265,0
3449,0.013531384694685603,0
3450,-0.0833662840633833,0
3451,-0.03447807719516561,0
3452,0.021269216524869416,0
3453,0.06765666182792571,0
3454,0.07294893243708758,0
3455,0.11159805212455202,0
3456,0.07058717770733472,0
3457,-0.02523696477295088,0
3458,0.03212433637738191,0
3459,0.015713009759190145,0
3460,0.3733430889184095,0
3461,4.144394559079784,0
3462,6.512130051048842,0
3463,-1.137818706123001,0
3464,-1.3501530241884747,0
3465,1.4174663682376762,0
3466,-0.7841456700203416,0
3467,0.1558914421235452,0
3468,0.015153031666370352,0
3469,-0.0015594705129336264,0
3470,-0.02750345639138588,0
3471,-0.09143121215147634,0
3472,-0.04612512129265478,0
3473,-0.10727901310204435,0
3474,-0.001740033614536167,0
3475,-0.03979998868388106,0
3476,-0.04859011240792076,0
3477,0.06784763354168681,0
3478,-0.015652687903476264,0
3479,-0.10689204658852644,0
3480,0.3561929145800765,0
3481,4.011847969232487,0
3482,6.500976340204177,0
3483,-1.2779084656513802,0
3484,-1.4687836683374518,0
3485,1.3655660688909537,0
3486,-0.9086605794365952,0
3487,0.19721900479022697,0
3488,-0.10054295128112498,0
3489,-0.08182666752616542,0
3490,-0.002751007936465162,0
3491,-0.08123006374630103,0
3492,0.03419541027321959,0
3493,0.055522536023361074,0
3494,-0.040259163336241494,0
3495,-0.07627503691323106,0
3496,0.03462312208104755,0
3497,-0.037823391695349054,0
3498,-0.09688327116782774,0
3499,-0.02510628404070562,0
3500,0.4137427890764873,0
3501,4.168506347160523,0
3502,6.5919349773208085,0
3503,-1.1985583467087488,0
3504,-1.4358849923630659,0
3505,1.3476829998904498,0
3506,-0.9057300752430948,0
3507,0.2086019242777195,0
3508,-0.09022772942334556,0
3509,-0.20441526037397748,0
3510,-0.09849835371431584,0
3511,-0.018227107930485396,0
3512,-0.041060496297135915,0
3513,-0.02568573168010593,0
3514,-0.06529870071188017,0
3515,-0.0605171366800247,0
3516,-0.08945901364663514,0
3517,-0.013615426930848416,0
3518,0.035223799851118,0
3519,-0.006541900368392216,0
3520,0.3406033536895751,0
3521,4.20222114528979,0
3522,6.55744826931059,0
3523,-1.1439372196585396,0
3524,-1.301239333794303,0
3525,1.4087519667773563,0
3526,-0.7697181389108181,0
3527,0.2701578136598736,0
3528,0.03547365927011449,0
3529,-0.05144787393385355,0
3530,-0.0021048023905851747,0
3531,-0.058447819030735,0
3532,0.014382409806042166,0
3533,0.1133362651339472,0
3534,-0.07074633205116407,0
3535,-0.019176625317706503,0
3536,-0.08975436373302578,0
3537,-0.054127023324909145,0
3538,-0.077637646656184,0
3539,-0.0743047292565054,0
3540,0.35274001253041043,0
3541,4.047253617326374,0
3542,6.490061591980516,0
3543,-1.2999434805121484,0
3544,-1.425637585695701,0
3545,1.382514707585289,0
3546,-0.8208558226831631,0
3547,0.21193417942819706,0
3548,-0.04301467883726031,0
3549,0.03694713837139509,0
3550,-0.03443103016910011,0
3551,-0.02534970039129985,0
3552,-0.012690417165350458,0
3553,0.12282218885563936,0
3554,0.03694090924108183,0
3555,0.11550343283284867,0
3556,0.052837094815242354,0
3557,0.027711074091857628,0
3558,0.02590807487041163,0
3559,-0.03126895009120803,0
3560,0.5124474524083455,0
3561,4.187437618567959,0
3562,6.620390560261148,0
3563,-1.206008795838374,0
3564,-1.4545282512348863,0
3565,1.5029736452322466,0
3566,-0.7868056670251629,0
3567,0.23663477121869708,0
3568,-0.06390580525617207,0
3569,0.06022582135404608,0
3570,-0.05208074316645872,0
3571,-0.028741948153493516,0
3572,-0.04507967267491936,0
3573,-0.026293807174304726,0
3574,-0.09275005770337452,0
3575,-0.08478214821131175,0
3576,-0.03653522091441122,0
3577,-0.0727577353589191,0
3578,-0.04988325259136291,0
3579,-0.12055476814572494,0
3580,0.3582402522981066,0
3581,4.169570962788995,0
3582,6.530721378329519,0
3583,-1.3111491799464057,0
3584,-1.3618385971940905,0
3585,1.4062722891428863,0
3586,-0.7263324037886074,0
3587,0.22537669773271352,0
3588,0.012384107044813797,0
3589,-0.014867742270423569,0
3590,0.03064834148663225,0
3591,0.0770203038364369,0
3592,-0.029634480042459915,0
3593,-0.11297933717569814,0
3594,-0.07904145993817376,0
3595,-0.16445143704885545,0
3596,-0.0688554981978225,0
3597,0.00442864950656589,0
3598,-0.039312419170718024,0
3599,-0.002807006614738476,0
3600,0.49081793926127854,0
3601,4.1002948268313935,0
3602,6.6204054830834345,0
3603,-1.2218290175946465,0
3604,-1.3543757073890967,0
3605,1.368229212195149,0
3606,-0.8839296940827006,0
3607,0.25392255001072933,0
3608,-0.055043758591283354,0
3609,0.020744858822944356,0
3610,-0.020219256508436888,0
3611,-0.0216950063996543,0
3612,0.007766886649585195,0
3613,-0.01621563040864723,0
3614,-0.01300343872392771,0
3615,-0.0170951683621988,0
3616,0.08684994918362045,0
3617,-0.04941203188563276,0
3618,-0.038769281818318804,0
3619,0.034907694761782106,0
3620,0.4288906510930658,0
3621,4.178467513953574,0
3622,6.554386752922497,0
3623,-1.1281085819200978,0
3624,-1.323738037233587,0
3625,1.5044395931665764,0
3626,-0.7351904821424105,0
3627,0.25545320213348943,0
3628,-0.05866620631378349,0
3629,0.06028819054621551,0
3630,-0.020145615185240273,0
3631,-0.017162772707658754,0
3632,-0.0370964043923893,0
3633,-0.07883378786543632,0
3634,-0.053044103145752274,0
3635,-0.14028118170965886,0
3636,-0.08762845115064025,0
3637,-0.09174214298916072,0
3638,0.05609271752707453,0
3639,-0.03650246790553295,0
3640,0.4163346579983052,0
3641,4.120902383032509,0
3642,6.507944272087217,0
3643,-1.2286824368223965,0
3644,-1.409007740616325,0
3645,1.433468931988398,0
3646,-0.8059568936227712,0
3647,0.26607581343442355,0
3648,-0.06427392692787567,0
3649,-0.00896796202678831,0
3650,-0.0491017579162899,0
3651,-0.026155158363103625,0
3652,-0.04808618055412782,0
3653,-0.06678344644341509,0
3654,0.015420518170081016,0
3655,-0.05382100425853403,0
3656,0.0019777892174157527,0
3657,-0.09962964227931692,0
3658,-0.021601584820118543,0
3659,-0.07372539750270149,0
3660,0.3345168567290228,0
3661,4.131590699125498,0
3662,6.552211550495834,0
3663,-1.2694941616770599,0
3664,-1.4016809975927191,0
3665,1.349692690556629,0
3666,-0.8354144995497771,0
3667,0.14635688738125677,0
3668,-0.07032969105696696,0
3669,-0.023725332457965435,0
3670,0.02717912761082317,0
3671,0.014201003892027551,0
3672,0.024994753683028142,0
3673,-0.024115429217175344,0
3674,0.0077438965153948484,0
3675,-0.01974993778286513,0
3676,0.06179573541948939,0
3677,-0.01874810192269831,0
3678,-0.07656294508953553,0
3679,-0.036426636875135913,0
3680,0.44857090207761063,0
3681,4.004403406983844,0
3682,6.5736049054814,0
3683,-1.2481018883663957,0
3684,-1.3418848362863696,0
3685,1.4546339489582472,0
3686,-0.6738312365651723,0
3687,0.1771343225485659,0
3688,-0.09976694253285266,0
3689,0.011416501796382351,0
3690,-0.06815798396447353,0
3691,-0.05733280251909911,0
3692,0.03467470060465709,0
3693,-0.0585159824399981,0
3694,0.03699829452778504,0
3695,0.02279598981950775,0
3696,0.032006504339718425,0
3697,0.06329237398462245,0
3698,0.016449071489358147,0
3699,0.0011439496601226354,0
3700,0.338755208449283,0
3701,4.1638776672755435,0
3702,6.544651559094126,0
3703,-1.2537625572268882,0
3704,-1.3236709371600759,0
3705,1.3647920177519177,0
3706,-0.7492601536982734,0
3707,0.237514481990226,0
3708,-0.056017484563949727,0
3709,-0.012300907681342435,0
3710,0.006829536539292412,0
3711,-0.00307651062902739,0
3712,0.02384331610229318,0
3713,-0.007111958449888881,0
3714,0.04690590364529335,0
3715,-0.002711551123279905,0
3716,-0.018866919434831993,0
3717,-0.060701065842032005,0
3718,0.021164794372305555,0
3719,-0.0279685691313128,0
3720,0.3676862197458668,0
3721,4.19556166920245,0
3722,6.608731251359774,0
3723,-1.1673736365709886,0
3724,-1.3178680140333066,0
3725,1.4275684403147266,0
3726,-0.7711108921544257,0
3727,0.1678765692273812,0
3728,0.04868117950382905,0
3729,-0.03649680118129499,0
3730,0.0002453517803680961,0
3731,0.01680331290090885,0
3732,-0.06939707311144364,0
3733,-0.006255605314608793,0
3734,0.023039808207771555,0
3735,0.066924582744864,0
3736,-0.04984775173843205,0
3737,0.009624097377616074,0
3738,0.01691081572062195,0
3739,-0.03187186371288633,0
3740,0.3513392735676856,0
3741,4.126996534490734,0
3742,6.636959400970177,0
3743,-1.268506992967459,0
3744,-1.378019870791632,0
3745,1.362704631704968,0
3746,-0.7830498594267424,0
3747,0.18718809322247867,0
3748,0.006358192508780572,0
3749,0.04483108777049333,0
3750,0.01090800403459594,0
3751,-0.019636106202086123,0
3752,0.004886977583304286,0
3753,0.03257971385653062,0
3754,-0.013872732168988254,0
3755,0.05685825995151694,0
3756,-0.013239589089844898,0
3757,-0.0287458216227574,0
3758,-0.02184188260841426,0
3759,-0.11210586736297587,0
3760,0.4130238416483089,0
3761,4.141776311649764,0
3762,6.439148059181125,0
3763,-1.3050961796469127,0
3764,-1.4087159952716095,0
3765,1.3399843202258093,0
3766,-0.781538930037292,0
3767,0.11259479421017733,0
3768,-0.07623727586168132,0
3769,-0.09091799341101835,0
3770,-0.049778157461026824,0
3771,0.006771011215429869,0
3772,-0.09910326466021607,0
3773,-0.03136776693075993,0
3774,0.00881467426717119,0
3775,-0.0216170205101473,0
3776,0.11545150823598012,0
3777,0.005128691286454267,0
3778,0.037660870959253634,0
3779,0.011853133555627048,0
3780,0.4668309138368962,0
3781,4.2316380726856835,0
3782,6.595545980673461,0
3783,-1.1853187363210975,0
3784,-1.3441586308138438,0
3785,1.4433975432940707,0
3786,-0.7728271182960622,0
3787,0.25918545458691816,0
3788,-0.021916545163731718,0
3789,-0.07727287168810848,0
3790,0.00783329661486524,0
3791,-0.11596053802443229,0
3792,-0.08455657481070762,0
3793,0.04767461694819322,0
3794,-0.030438340896941446,0
3795,0.0359334359823525,0
3796,-0.03406840730683974,0
3797,0.03371049685874942,0
3798,-0.057269588123111816,0
3799,0.01612202900884785,0
3800,0.37619327226404725,0
3801,4.124636527200695,0
3802,6.509204946506862,0
3803,-1.3170980990157337,0
3804,-1.223940705338204,0
3805,1.345204258408443,0
3806,-0.7994113336522839,0
3807,0.1716378397926883,0
3808,-0.08636100791761674,0
3809,0.029071740931833803,0
3810,0.09784223189946897,0
3811,0.042128500346174644,0
3812,0.046141923897332404,0
3813,0.003787523771907976,0
3814,-0.04086730356280812,0
3815,-0.04609839195886735,0
3816,-0.05775931663274887,0
3817,-0.00481002098246501,0
3818,0.04634348670600015,0
3819,0.003849633966389555,0
3820,0.43172317567675667,0
3821,4.111183583485829,0
3822,6.583629034357778,0
3823,-1.270389576625989,0
3824,-1.218607651585336,0
3825,1.3783585585756486,0
3826,-0.7577009839302986,0
3827,0.25513244056497464,0
3828,-0.0401669794355467,0
3829,0.07924621943150523,0
3830,0.07152882806505606,0
3831,0.14758037949197117,0
3832,0.07187299921546102,0
3833,0.01215450098494264,0
3834,-0.02874853092917167,0
3835,0.0027150410958609386,0
3836,-0.04503351462386539,0
3837,-0.026661997138447344,0
3838,0.04297469580726511,0
3839,-0.011650790377041398,0
3840,0.42011770004433524,0
3841,4.154894409397557,0
3842,6.461378037632409,0
3843,-1.3093183170141227,0
3844,-1.3984528611276574,0
3845,1.3892229993530765,0
3846,-0.817520302250885,0
3847,0.22359575617587288,0
3848,0.012824198251828858,0
3849,0.009802046764550175,0
3850,0.0007674076063234059,0
3851,0.053329214966046326,0
3852,-0.07356744398599996,0
3853,-0.05734606082130933,0
3854,-0.09782232327309913,0
3855,-0.05447652822811959,0
3856,-0.075050143865477,0
3857,-0.011164089676301558,0
3858,-0.016121478471302318,0
3859,-0.09515468851555607,0
3860,0.43653062654315306,0
3861,4.241542715904415,0
3862,6.46691906293392,0
3863,-1.3629320983754334,0
3864,-1.412287659610131,0
3865,1.4209697959980496,0
3866,-0.8010935554879163,0
3867,0.16833871410783155,0
3868,-0.02533200686463065,0
3869,-0.01355657147396095,0
3870,0.02393730494728937,0
3871,0.012126148011353359,0
3872,-0.09664459754715829,0
3873,-0.05564335992813752,0
3874,-0.04157013284141109,0
3875,0.07696235704049934,0
3876,0.017502225205192977,0
3877,-0.0981832835362851,0
3878,0.0019355921228311028,0
3879,-0.08283564776739778,0
3880,0.341632173190524,0
3881,4.235388238408298,0
3882,6.400929154303531,0
3883,-1.30446491451557,0
3884,-1.2296554758371265,0
3885,1.3402183723129626,0
3886,-0.8140188966537618,0
3887,0.1997960723282178,0
3888,-0.10379797270997877,0
3889,-0.16682250103840202,0
3890,0.033099475499762096,0
3891,-0.01460773578829342,0
3892,-0.05149293754799215,0
3893,-0.09835137702031609,0
3894,-0.002530299936913283,0
3895,0.05715292476656236,0
3896,-0.034476919740681865,0
3897,0.058223193019617245,0
3898,0.004386558720434225,0
3899,0.056690612262174825,0
3900,0.4653672236337256,0
3901,4.179352894246082,0
3902,6.393369898603176,0
3903,-1.4010718629417296,0
3904,-1.3111796813169811,0
3905,1.420684573270171,0
3906,-0.8524218945626718,0
3907,0.3531462748732209,0
3908,-0.10228759553925906,0
3909,-0.16933460658122937,0
3910,0.034540927955978316,0
3911,-0.025481652872406342,0
3912,-0.03242318440427497,0
3913,-0.033453090243172064,0
3914,-0.03328862771178738,0
3915,-0.0781525471358682,0
3916,-0.06319403289173077,0
3917,-0.06931511460006863,0
3918,-0.10122963039570378,0
3919,-0.05017254891202052,0
3920,0.40576929019796876,0
3921,4.210262465106874,0
3922,6.436578479921777,0
3923,-1.2761100867779964,0
3924,-1.3655584399949088,0
3925,1.3151781367511237,0
3926,-0.8064005866416841,0
3927,0.1751124000294321,0
3928,-0.07316339933763646,0
3929,-0.04792959653898595,0
3930,0.05660174628816658,0
3931,-0.024799839548361322,0
3932,-0.038477104914594544,0
3933,0.014784273750238129,0
3934,-0.028446506162010523,0
3935,-0.020065711711969143,0
3936,-0.08976474099232204,0
3937,0.04105733460613284,0
3938,-0.01889602157683064,0
3939,-0.015443407349145297,0
3940,0.382478723421521,0
3941,4.107915502748247,0
3942,6.468427120860486,0
3943,-1.4270433705327172,0
3944,-1.2838869609569739,0
3945,1.3096874173756434,0
3946,-0.7969000936894588,0
3947,0.15713879835987182,0
3948,-0.12441085281725073,0
3949,-0.11843467481927225,0
3950,-0.05131494010115009,0
3951,-0.01990787198509722,0
3952,-0.053599913411684824,0
3953,-0.05626684592599971,0
3954,-0.07072270909215425,0
3955,-0.061188698441425986,0
3956,-0.06568750023086438,0
3957,-0.013140528488719438,0
3958,-0.08637933657386651,0
3959,-0.04836232333710154,0
3960,0.3780062498117218,0
3961,4.120474214855537,0
3962,6.4289887038545785,0
3963,-1.3626429361515964,0
3964,-1.3036871321990324,0
3965,1.406617148710305,0
3966,-0.8825839267679579,0
3967,0.2531366106365834,0
3968,-0.06700504808236658,0
3969,-0.06916031635756129,0
3970,-0.08545244924659007,0
3971,-0.06763331307134225,0
3972,-0.028720499820660318,0
3973,-0.011261386340249376,0
3974,-0.11958342507005304,0
3975,-0.042675485956567685,0
3976,-0.0652891311285167,0
3977,-0.03664433217851393,0
3978,-0.046027562966496224,0
3979,0.01076512069982119,0
3980,0.40678794952201264,0
3981,4.116268021628082,0
3982,6.440072064381291,0
3983,-1.4523101929535382,0
3984,-1.2847660304857011,0
3985,1.3237120244829403,0
3986,-0.8560669724868756,0
3987,0.17495596974685865,0
3988,-0.1676997636577117,0
3989,-0.11154463987522918,0
3990,-0.08238178032510413,0
3991,-0.08432743514794028,0
3992,-0.09402078799138132,0
3993,-0.043915135178369126,0
3994,-0.10545928975038663,0
3995,-0.11424600475642588,0
3996,-0.15143634384212265,0
3997,-0.05189989521484424,0
3998,-0.11642755625625376,0
3999,-0.07091772827103457,0
4000,0.4034209353933382,0
4001,4.163653172370723,0
4002,6.446474352610331,0
4003,-1.370213190606195,0
4004,-1.3423672568303073,0
4005,1.262265990245009,0
4006,-0.9674404403246517,0
4007,0.1660229431899993,0
4008,-0.22465425407644013,0
4009,-0.17426824409874914,0
4010,-0.08953290933071231,0
4011,-0.14561697162269568,0
4012,-0.08254368707809262,0
4013,-0.1465973243670105,0
4014,-0.09681089808275928,0
4015,-0.05588665761226167,0
4016,-0.113233491152117,0
4017,-0.1811768935533736,0
4018,-0.16151182184166232,0
4019,-0.1215889853889208,0
4020,0.33039540660120587,0
4021,4.077785780346826,0
4022,6.439443603731451,0
4023,-1.434901824758088,0
4024,-1.3834806143299492,0
4025,1.2900745470252537,0
4026,-0.846243452418621,0
4027,0.18277601495072315,0
4028,-0.11373222237040756,0
4029,-0.19987176931187928,0
4030,-0.13139550215700188,0
4031,-0.1297115736912949,0
4032,-0.1294977734586377,0
4033,-0.15280951847398852,0
4034,-0.09945688105542383,0
4035,-0.13508317739925768,0
4036,-0.01977962735873573,0
4037,-0.1361315277421791,0
4038,-0.2167749165236376,0
4039,-0.19349355348846045,0
4040,0.25421308282117655,0
4041,4.056940093806388,0
4042,6.390165392791713,0
4043,-1.461245533864181,0
4044,-1.3266962790562897,0
4045,1.2842316929062392,0
4046,-0.9472656284279565,0
4047,0.0720627917092272,0
4048,-0.21536663711585796,0
4049,-0.15521533456626227,0
4050,-0.06008563024078911,0
4051,-0.11430217914236658,0
4052,-0.14646414884525602,0
4053,-0.14337183641140971,0
4054,-0.2633186474170846,0
4055,-0.07683891316650873,0
4056,-0.1326496619387901,0
4057,-0.06464455978669428,0
4058,-0.06916371830707202,0
4059,-0.05941677566770179,0
4060,0.3663632644930557,0
4061,4.062895989083479,0
4062,6.348702757864621,0
4063,-1.3662753592179866,0
4064,-1.3782714987347278,0
4065,1.3273260401301648,0
4066,-0.819635653736451,0
4067,0.19826658875520284,0
4068,-0.07827617156203394,0
4069,-0.10454465998211006,0
4070,-0.0918888010907648,0
4071,-0.06916538189657546,0
4072,-0.07559358976367317,0
4073,-0.10218127254131373,0
4074,-0.18259028096993157,0
4075,-0.13365405120023666,0
4076,-0.06519733392592028,0
4077,-0.023655929739105422,0
4078,-0.06717412769714645,0
4079,-0.11695445961219812,0
4080,0.347552464849605,0
4081,4.151798732881719,0
4082,6.3824037297168035,0
4083,-1.534201562558497,0
4084,-1.3609696426774516,0
4085,1.2343141490573817,0
4086,-0.7557924397402993,0
4087,0.12122999223184763,0
4088,-0.06209311864787431,0
4089,-0.10375849717802814,0
4090,-0.07068105584703269,0
4091,-0.11228259716483073,0
4092,-0.08379424184496555,0
4093,-0.09344108483338194,0
4094,-0.02738025703766031,0
4095,-0.08029204022832745,0
4096,-0.018926328958724425,0
4097,-0.04672352873524099,0
4098,0.02567379438395808,0
4099,-0.12809938258136747,0
4100,0.4197862437320672,0
4101,4.19669343876777,0
4102,6.4037413506758645,0
4103,-1.3015163881392777,0
4104,-1.3902719842366522,0
4105,1.3964296842663024,0
4106,-0.8415595662743713,0
4107,0.0974850579926841,0
4108,-0.07199333827342115,0
4109,-0.0356858541708366,0
4110,-0.006391267176602593,0
4111,-0.018862778587300393,0
4112,-0.022568655209058753,0
4113,-0.05825611724139601,0
4114,-0.036077049764312974,0
4115,-0.041548735338027415,0
4116,0.09102309273734344,0
4117,-0.004847536055651587,0
4118,-0.03166114851938587,0
4119,-0.09459237604593898,0
4120,0.4210935793199921,0
4121,4.1365540467212645,0
4122,6.431518276717889,0
4123,-1.3408603579195324,0
4124,-1.333351619674939,0
4125,1.313994096221532,0
4126,-0.776529683660008,0
4127,0.18822018955817,0
4128,-0.02935513112896336,0
4129,-0.15606208907110436,0
4130,-0.09841579386343219,0
4131,-0.1341377112585561,0
4132,-0.15015622739282647,0
4133,-0.08336923747778044,0
4134,0.00017777952800601682,0
4135,-0.0761244731445155,0
4136,-0.03901299054492463,0
4137,-0.03507038099055211,0
4138,-0.036409967258062066,0
4139,-0.13263043791558043,0
4140,0.34632200356329745,0
4141,4.254696528390764,0
4142,6.512351338423782,0
4143,-1.3812008534327997,0
4144,-1.348527491059675,0
4145,1.4652184219142674,0
4146,-0.7583962841854903,0
4147,0.27377584202452715,0
4148,0.018511146656337376,0
4149,0.0050228702674480555,0
4150,0.040404535924292315,0
4151,-0.0004894726568452114,0
4152,-0.027133296711554192,0
4153,-0.05392192952772569,0
4154,-0.04661612567947895,0
4155,-0.03158429183786522,0
4156,-0.005471317709080027,0
4157,-0.10542501672059032,0
4158,0.005872849449033147,0
4159,-0.05993928647906268,0
4160,0.45795251328564346,0
4161,4.334348468245928,0
4162,6.512352747278586,0
4163,-1.3217231569264847,0
4164,-1.2040847100689225,0
4165,1.3459996302562807,0
4166,-0.7043709663605853,0
4167,0.2126285926931568,0
4168,0.05898828009367127,0
4169,-0.05625266880896258,0
4170,-0.02288194327095311,0
4171,0.033035532031518086,0
4172,-0.009440149452512286,0
4173,0.02060605404993512,0
4174,0.04599323332192902,0
4175,-0.08043254014451695,0
4176,-0.05110666890922552,0
4177,-0.007425888887337433,0
4178,-0.01417356302517541,0
4179,-0.012086240235443284,0
4180,0.41140022906445595,0
4181,4.288268954980073,0
4182,6.439657157565313,0
4183,-1.2242768738349288,0
4184,-1.219448526536333,0
4185,1.3892490527303025,0
4186,-0.8026543729641238,0
4187,0.19040383311875553,0
4188,-0.020477932777977166,0
4189,-0.02336448533874123,0
4190,0.05265759431882509,0
4191,0.021178448286275325,0
4192,0.009376229081540465,0
4193,-0.04604154098528591,0
4194,0.00435595298285706,0
4195,-0.00669095957259235,0
4196,0.04359596289894141,0
4197,0.09063818181799356,0
4198,-0.028593343595432294,0
4199,-0.06481805802245957,0
4200,0.4108573353375538,0
4201,4.285040524214554,0
4202,6.417796111099014,0
4203,-1.4545215462003416,0
4204,-1.3399269331489185,0
4205,1.3913821646289004,0
4206,-0.852457246334453,0
4207,0.24881879518263345,0
4208,-0.08730718053272114,0
4209,-0.12663840290136996,0
4210,-0.0055440898236304124,0
4211,-0.11400293248516215,0
4212,-0.04975230158630803,0
4213,-0.07642092718207157,0
4214,-0.05020009003464028,0
4215,-0.01741073579294522,0
4216,-0.004359196674490362,0
4217,-0.024491991459150587,0
4218,-0.019120955139615863,0
4219,-0.04597575304514733,0
4220,0.443167135147567,0
4221,4.176525321757857,0
4222,6.44893020480011,0
4223,-1.328202695884761,0
4224,-1.332618224207969,0
4225,1.3289916442520175,0
4226,-0.8845509623251687,0
4227,0.2553306296274972,0
4228,-0.05953532625930802,0
4229,-0.08337635674156439,0
4230,-0.0019599195527221086,0
4231,-0.12784163245298566,0
4232,0.010518488047492294,0
4233,-0.043384053804658415,0
4234,0.007622854246446938,0
4235,-0.09230435754817698,0
4236,0.011720079430423573,0
4237,0.032255717410102094,0
4238,-0.004021381037511769,0
4239,0.04588917178570959,0
4240,0.3872381872525651,0
4241,4.279825484080786,0
4242,6.460469205781455,0
4243,-1.3570979813974422,0
4244,-1.2765231291513206,0
4245,1.2986975706500818,0
4246,-0.8467699260739341,0
4247,0.24747433824407045,0
4248,-0.001694374394330879,0
4249,-0.05069479214113411,0
4250,-0.02899333837207847,0
4251,-0.026277246280901435,0
4252,0.01466892424169032,0
4253,-0.004575934208073139,0
4254,-0.017713844577004104,0
4255,-0.07382326963934611,0
4256,-0.11287078057162034,0
4257,-0.15257717161527076,0
4258,-0.09459903147323903,0
4259,0.012359619963547584,0
4260,0.37784674710590704,0
4261,4.310627253266723,0
4262,6.455622578049573,0
4263,-1.433972451411511,0
4264,-1.303605515196308,0
4265,1.2716577520830321,0
4266,-0.7872490615389643,0
4267,0.14369287612279544,0
4268,-0.051500546745773534,0
4269,-0.04837386330068194,0
4270,0.028320078884389702,0
4271,-0.013383026400774278,0
4272,-0.03751826299832174,0
4273,0.02443625690488336,0
4274,-0.03395940641780326,0
4275,0.02541341237818954,0
4276,-0.037271527586773504,0
4277,-0.024133099882547287,0
4278,0.03082592245268093,0
4279,0.12067713849129734,0
4280,0.4413397583094956,0
4281,4.229287804182677,0
4282,6.390207981428088,0
4283,-1.4226803608784753,0
4284,-1.2694509578452335,0
4285,1.338629631964584,0
4286,-0.7684012038615696,0
4287,0.12588502798176793,0
4288,-0.027538428629055554,0
4289,0.009772727817637071,0
4290,-0.04697642135323695,0
4291,0.005284894143313262,0
4292,-0.07847959963496204,0
4293,-0.03556224521845801,0
4294,-0.07203109507881707,0
4295,-0.05134190524660169,0
4296,-0.07464810281533618,0
4297,-0.10192385401588092,0
4298,-0.0022847066236524535,0
4299,0.030030703318355063,0
4300,0.42795320168917816,0
4301,4.270316563821274,0
4302,6.422585323869468,0
4303,-1.418920923857079,0
4304,-1.258052811811904,0
4305,1.367480287597751,0
4306,-0.8259814377104063,0
4307,0.2225990619128347,0
4308,-0.012392528840927008,0
4309,-0.00849979136703772,0
4310,-0.01648954356536298,0
4311,-0.034399926996385694,0
4312,0.005873752781163394,0
4313,-0.0266625108960186,0
4314,-0.09633136233307527,0
4315,-0.017591423900836414,0
4316,0.006685169210892936,0
4317,0.09336268900627799,0
4318,-0.005138934331849886,0
4319,0.07015643521737934,0
4320,0.44113592304458366,0
4321,4.28183654363095,0
4322,6.419677124991525,0
4323,-1.4299073596682068,0
4324,-1.2238055028120713,0
4325,1.303909061490785,0
4326,-0.8828572975200238,0
4327,0.22679447759030927,0
4328,-0.0014873140134443047,0
4329,-0.14487082425016398,0
4330,0.08328353540531529,0
4331,-0.007709622482466559,0
4332,0.035068185463804843,0
4333,0.007556142582634019,0
4334,-0.0004687076406158508,0
4335,-0.0012371843086071942,0
4336,-0.043286409904795514,0
4337,-0.02353630082727301,0
4338,-0.03844663392593076,0
4339,-0.06334622208308978,0
4340,0.4549185856731061,0
4341,4.252705430082641,0
4342,6.507530840725473,0
4343,-1.4379618613396847,0
4344,-1.2240228346910258,0
4345,1.4225571365217664,0
4346,-0.8108693558001812,0
4347,0.28232570444762833,0
4348,-0.009149699594868652,0
4349,-0.0923132703544557,0
4350,0.048003266775618635,0
4351,-0.021288519389515724,0
4352,0.013424715049322477,0
4353,-0.08541502417463205,0
4354,0.0009465021101067086,0
4355,0.08823298492454784,0
4356,-0.030167426107647784,0
4357,-0.02067398236483986,0
4358,-0.10075395613378443,0
4359,-0.03529543920239282,0
4360,0.5132491580371895,0
4361,4.20605159366871,0
4362,6.4233358865905,0
4363,-1.409088262877533,0
4364,-1.1651305958635079,0
4365,1.285375158869372,0
4366,-0.8503111116923785,0
4367,0.2948537771337765,0
4368,-0.018346006049449595,0
4369,-0.046947909944775684,0
4370,-0.0026780090984563753,0
4371,-0.07355458935639,0
4372,-0.014029572507858676,0
4373,-0.002894381260963963,0
4374,0.009067071967625968,0
4375,-0.027343012129812792,0
4376,0.015615569732678948,0
4377,0.020954354767643926,0
4378,-0.0793941542049991,0
4379,-0.06723225124608131,0
4380,0.539142440198674,0
4381,4.278158507053145,0
4382,6.429070952746706,0
4383,-1.3375995224953559,0
4384,-1.221702462410858,0
4385,1.324381390058538,0
4386,-0.826749147638379,0
4387,0.12937678549537135,0
4388,0.003002531930931914,0
4389,0.039165861735239,0
4390,-0.019671060217404,0
4391,-0.02689811614530079,0
4392,-0.016747738935995488,0
4393,-0.024194114202178228,0
4394,-0.021503145819669944,0
4395,0.04597601818992576,0
4396,-0.040387036108604085,0
4397,-0.06248901747232808,0
4398,-0.04376684829187156,0
4399,0.007806026866751421,0
4400,1.5439964108646267,1
4401,3.6104561402432047,1
4402,0.9137032780649499,1
4403,-0.43252879110532816,1
4404,-0.18566775541733638,1
4405,0.01909661180505695,1
4406,-0.05173701395884548,1
4407,-0.0347097070473842,1
4408,0.0053589716173982095,1
4409,-0.04697247468691354,1
4410,1.537353918902036,1
4411,3.4631041885128204,1
4412,0.9651774986435694,1
4413,-0.43805903827355136,1
4414,-0.15864512897582608,1
4415,-0.03962415199272981,1
4416,-0.013987738460945393,1
4417,0.05205991693828447,1
4418,0.051126253858529216,1
4419,-0.0153252862373694,1
4420,1.607498559393627,1
4421,3.506297942404867,1
4422,0.9915952549039825,1
4423,-0.498118283346651,1
4424,-0.07742407865410447,1
4425,-0.008403314354164172,1
4426,-0.06233549467516433,1
4427,-0.010100422984084523,1
4428,-0.018730793247611732,1
4429,0.06361745143800422,1
4430,1.573649780519752,1
4431,3.459349310366867,1
4432,1.0101679574243805,1
4433,-0.3585733092844669,1
4434,-0.19024714442819238,1
4435,-0.026473549383529915,1
4436,0.02232868204288411,1
4437,-0.09731549728921296,1
4438,-0.1613497327460709,1
4439,-0.0028683711023260103,1
4440,1.5181622939130097,1
4441,3.4649719251323647,1
4442,1.0955749664325327,1
4443,-0.3767929810895415,1
4444,-0.1161120428960561,1
4445,-0.07945369976051597,1
