timestamp,value-0,is_anomaly
0,8.316812250089107,0.0
1,11.47323623310244,0.0
2,14.97400315523246,0.0
3,7.820492226490439,0.0
4,5.970345409584541,0.0
5,9.499669721881435,0.0
6,7.245178673108378,0.0
7,8.16960156245864,0.0
8,7.921686693263907,0.0
9,7.999099436804786,0.0
10,8.023423383099276,0.0
11,8.087598027418265,0.0
12,7.8376796913585025,0.0
13,7.981313719222247,0.0
14,7.96444484680354,0.0
15,8.082766718744306,0.0
16,7.9155316617529605,0.0
17,7.919474119987715,0.0
18,8.012480787139408,0.0
19,8.142025441880515,0.0
20,8.271601501295407,0.0
21,11.56008318648303,0.0
22,14.795233008928175,0.0
23,7.823797026828232,0.0
24,5.982899848314818,0.0
25,9.49524311052898,0.0
26,7.150023550668695,0.0
27,7.915219093491769,0.0
28,8.081921376837858,0.0
29,7.955067949202275,0.0
30,7.979726535885292,0.0
31,7.896852627622185,0.0
32,7.932130200591109,0.0
33,7.906630618120242,0.0
34,7.935794079840491,0.0
35,7.866310790762979,0.0
36,7.849443924580133,0.0
37,7.867395427348104,0.0
38,7.845573259209915,0.0
39,7.825455286262672,0.0
40,8.179576181313298,0.0
41,11.384452704592446,0.0
42,14.735161004580213,0.0
43,7.59536359419944,0.0
44,5.984056839318452,0.0
45,9.45074889755076,0.0
46,7.040250185803618,0.0
47,8.033460303897412,0.0
48,7.865460853109342,0.0
49,7.8313654366159255,0.0
50,7.9493718585194655,0.0
51,7.769301318152179,0.0
52,7.889958069780108,0.0
53,7.935723483563765,0.0
54,7.81082944555475,0.0
55,7.844425991492543,0.0
56,7.809000968108393,0.0
57,7.86206588134038,0.0
58,7.7263991185951335,0.0
59,7.905815953827114,0.0
60,8.074650676092853,0.0
61,11.379648625981401,0.0
62,14.692019809280815,0.0
63,7.606861337773376,0.0
64,5.831504826184176,0.0
65,9.257195157665198,0.0
66,7.136772300861805,0.0
67,7.865458261871258,0.0
68,7.799317496864718,0.0
69,7.650180680229643,0.0
70,7.811884111396235,0.0
71,7.7130356261562465,0.0
72,7.846940774338864,0.0
73,7.650654081572427,0.0
74,7.7124135297484395,0.0
75,7.760824772214912,0.0
76,7.705157983540121,0.0
77,7.7051540134724865,0.0
78,7.808992641773282,0.0
79,7.624015769686539,0.0
80,7.979954473058753,0.0
81,11.20812786533523,0.0
82,14.467802497038534,0.0
83,7.3673984432902175,0.0
84,5.825315485437142,0.0
85,9.17001839029763,0.0
86,6.972648122778495,0.0
87,7.700788825612661,0.0
88,7.681506147353224,0.0
89,7.628265819812433,0.0
90,7.771548388581952,0.0
91,7.695356542760353,0.0
92,7.629844627348158,0.0
93,7.694231283486937,0.0
94,7.612754163594843,0.0
95,7.684678008549156,0.0
96,7.604861549103622,0.0
97,7.625690095271567,0.0
98,7.465801233625104,0.0
99,7.6835350220791305,0.0
100,7.834118183241297,0.0
101,11.099832416651262,0.0
102,14.461797533066935,0.0
103,7.338169449261804,0.0
104,5.61710840630656,0.0
105,9.10241404180842,0.0
106,6.8627555771519155,0.0
107,7.681737654491521,0.0
108,7.729624660386284,0.0
109,7.615796281567882,0.0
110,7.641106600220092,0.0
111,7.681907584915203,0.0
112,7.661588944955786,0.0
113,7.59899499478077,0.0
114,7.712553886492991,0.0
115,7.610949517097516,0.0
116,7.657805783855209,0.0
117,7.462742606354886,0.0
118,7.692383490514274,0.0
119,7.515803785026268,0.0
120,7.780697271834859,0.0
121,11.026433877723587,0.0
122,14.430962637927568,0.0
123,7.117702829371626,0.0
124,5.486933760012679,0.0
125,9.087216777771687,0.0
126,6.825224971313801,0.0
127,7.567347762570633,0.0
128,7.556109273466058,0.0
129,7.439473867306489,0.0
130,7.560043463077324,0.0
131,7.529758696536884,0.0
132,7.411406738388191,0.0
133,7.546914172822586,0.0
134,7.5094674802523365,0.0
135,7.491786427823919,0.0
136,7.425392995874845,0.0
137,7.40530845182546,0.0
138,7.508132106109104,0.0
139,7.397659876140652,0.0
140,7.709935859343618,0.0
141,10.927985859171955,0.0
142,14.276169653926196,0.0
143,7.128589071556483,0.0
144,5.493478412812742,0.0
145,8.916355539001344,0.0
146,6.680931638189723,0.0
147,7.49486020223112,0.0
148,7.535589790354856,0.0
149,7.246459777166875,0.0
150,7.31520246989968,0.0
151,7.3222034610409965,0.0
152,7.35177604427685,0.0
153,7.302984685673047,0.0
154,7.346245890675603,0.0
155,7.3811240329873105,0.0
156,7.317722059155867,0.0
157,7.389820094539251,0.0
158,7.282886262834854,0.0
159,7.338617314412511,0.0
160,7.6304866871171235,0.0
161,10.893086280371367,0.0
162,14.26934080174328,0.0
163,7.053260254794832,0.0
164,5.418341738476823,0.0
165,8.92292257701503,0.0
166,6.582152969170519,0.0
167,7.43351252561507,0.0
168,7.393392097574905,0.0
169,7.249070946103901,0.0
170,7.390283543023681,0.0
171,7.451730323149277,0.0
172,7.343208406670449,0.0
173,7.334933037679187,0.0
174,7.432460570712145,0.0
175,7.31701407891062,0.0
176,7.489053931144471,0.0
177,7.248687702093995,0.0
178,7.281648565690016,0.0
179,7.334668812991138,0.0
180,7.582613917922054,0.0
181,10.856495809726226,0.0
182,14.138022821428578,0.0
183,6.970241861101195,0.0
184,5.268042917793614,0.0
185,8.939830234869472,0.0
186,6.594875755514117,0.0
187,7.322255655348277,0.0
188,7.31088887182281,0.0
189,7.217063374035145,0.0
190,7.31120833061195,0.0
191,7.1743678856101605,0.0
192,7.2561105746798225,0.0
193,7.333537315673412,0.0
194,7.226093646819856,0.0
195,7.3092432238744145,0.0
196,7.130697835975739,0.0
197,7.236523369496997,0.0
198,7.319316010779677,0.0
199,7.285607280904985,0.0
200,7.5667043043075495,0.0
201,10.71462631783738,0.0
202,14.155339212701573,0.0
203,6.8904300521421575,0.0
204,5.378864108924416,0.0
205,8.671471326682557,0.0
206,6.4653569147551355,0.0
207,7.460234885140749,0.0
208,7.076767081766995,0.0
209,7.205537638874693,0.0
210,7.296736882794463,0.0
211,7.18661086419474,0.0
212,7.185613785582492,0.0
213,7.349011553325122,0.0
214,7.161261195227563,0.0
215,7.248869503267543,0.0
216,7.166995460446233,0.0
217,7.068428841428812,0.0
218,7.179377574670879,0.0
219,7.261073837041586,0.0
220,7.4246195308786165,0.0
221,10.749781967987772,0.0
222,13.99281482710785,0.0
223,7.026630307057484,0.0
224,5.241449085299957,0.0
225,8.80588083427461,0.0
226,6.49881536393183,0.0
227,7.1693706581649765,0.0
228,7.1607296719868145,0.0
229,7.103579244276366,0.0
230,7.1292899789096555,0.0
231,7.183698620546164,0.0
232,7.141148033247264,0.0
233,7.133588079552403,0.0
234,7.110692000633995,0.0
235,7.122762530554732,0.0
236,7.135665309174062,0.0
237,7.026014788433299,0.0
238,7.01727295504132,0.0
239,6.865884472769004,0.0
240,7.405368283452272,0.0
241,10.778957087082027,0.0
242,13.88237807224506,0.0
243,6.715782001510661,0.0
244,5.198439570836257,0.0
245,8.639634079172934,0.0
246,6.377791721306351,0.0
247,7.1498008133852675,0.0
248,7.005747716119486,0.0
249,6.911219316164922,0.0
250,7.037067355824926,0.0
251,6.974278716244854,0.0
252,7.029373859709131,0.0
253,6.980088707058859,0.0
254,7.0466715982109704,0.0
255,6.93234887346491,0.0
256,7.0007270951921,0.0
257,7.000441857550807,0.0
258,6.932639312265937,0.0
259,6.848543856283849,0.0
260,7.095986358422361,0.0
261,10.402203830182788,0.0
262,13.831715245857502,0.0
263,6.633406582980709,0.0
264,5.038561062070276,0.0
265,8.726189716965987,0.0
266,6.19174963403661,0.0
267,7.09684103123259,0.0
268,6.994934055714197,0.0
269,6.779724477148421,0.0
270,7.0293722415843,0.0
271,6.8618584652892665,0.0
272,6.816579833905914,0.0
273,6.985245205668784,0.0
274,6.868024572846432,0.0
275,6.883329878091646,0.0
276,7.0394680307707915,0.0
277,6.877769883998887,0.0
278,6.827545182978906,0.0
279,6.8649985415536765,0.0
280,7.1308747342532595,0.0
281,10.394272235441974,0.0
282,13.800318183690166,0.0
283,6.490145870910034,0.0
284,4.979010149442467,0.0
285,8.47275818374211,0.0
286,6.216437968474045,0.0
287,6.905538196915135,0.0
288,6.936822301502958,0.0
289,6.860810190138239,0.0
290,6.828044540544013,0.0
291,6.767597021141393,0.0
292,6.8179301628430204,0.0
293,6.773476718514632,0.0
294,6.89361053863009,0.0
295,6.796776490508074,0.0
296,7.041976356999334,0.0
297,6.899885885379232,0.0
298,6.825928578972686,0.0
299,6.775483053182656,0.0
300,7.082471118115991,0.0
301,10.304077863204638,0.0
302,13.57846963467886,0.0
303,6.41366188754225,0.0
304,4.9538593485805755,0.0
305,8.342084103911757,0.0
306,6.133024430734264,0.0
307,6.942648930775862,0.0
308,6.721985948864669,0.0
309,6.618615135901393,0.0
310,6.749236319722922,0.0
311,6.821039474110745,0.0
312,6.827300919944246,0.0
313,6.790040566529102,0.0
314,6.749664024712473,0.0
315,6.738324518426345,0.0
316,6.811236783051208,0.0
317,6.728509971560043,0.0
318,6.883162625716147,0.0
319,6.717673647801941,0.0
320,7.146873294481756,0.0
321,10.321519796037132,0.0
322,13.609975688570138,0.0
323,6.366758199779866,0.0
324,4.878248502105426,0.0
325,8.257824574640175,0.0
326,5.918505901502547,0.0
327,6.876332403453388,0.0
328,6.6752547191375555,0.0
329,6.599105024933621,0.0
330,6.771276071013985,0.0
331,6.604764604787904,0.0
332,6.819460407036869,0.0
333,6.608352960417785,0.0
334,6.734332654052349,0.0
335,6.748979676541262,0.0
336,6.7465815508045175,0.0
337,6.739358342907556,0.0
338,6.7110354566891735,0.0
339,6.656634056758714,0.0
340,6.945706553249847,0.0
341,10.158847737382166,0.0
342,13.4759315908491,0.0
343,6.349041494958503,0.0
344,4.760189734733313,0.0
345,8.161218712703656,0.0
346,5.924760380507993,0.0
347,6.7257907907415415,0.0
348,6.842810708081443,0.0
349,6.6035774068468385,0.0
350,6.702235373046848,0.0
351,6.726411332085526,0.0
352,6.675012406276607,0.0
353,6.706986936947533,0.0
354,6.635353148683939,0.0
355,6.619546365065242,0.0
356,6.697974452125915,0.0
357,6.68963704125605,0.0
358,6.540324020919987,0.0
359,6.590449298397476,0.0
360,6.860008087953186,0.0
361,10.130838689107627,0.0
362,13.523382240695932,0.0
363,6.2197691594676705,0.0
364,4.665946819289895,0.0
365,8.234092311503984,0.0
366,5.799134502776488,0.0
367,6.711916619572256,0.0
368,6.476361945060432,0.0
369,6.508781211293191,0.0
370,6.656889430623286,0.0
371,6.63333009072669,0.0
372,6.632391379051912,0.0
373,6.453462079211923,0.0
374,6.531121643132181,0.0
375,6.537923175530982,0.0
376,6.567208001100677,0.0
377,6.602003613416695,0.0
378,6.5611386164146355,0.0
379,6.570347278031092,0.0
380,6.781395143262979,0.0
381,10.172738295913865,0.0
382,13.43452214615716,0.0
383,6.230648570597234,0.0
384,4.540070077899336,0.0
385,8.182990626056181,0.0
386,5.816730681347745,0.0
387,6.578045999382972,0.0
388,6.408927249229146,0.0
389,6.3826764110701095,0.0
390,6.481017303847425,0.0
391,6.431970042331197,0.0
392,6.394182776436184,0.0
393,6.34199224248986,0.0
394,6.4026099896277975,0.0
395,6.600984585022146,0.0
396,6.546993631557227,0.0
397,6.461727232675521,0.0
398,6.625325600083313,0.0
399,6.3766035959168805,0.0
400,6.698259928551615,0.0
401,10.110004578109109,0.0
402,13.356439416538272,0.0
403,6.207642828085869,0.0
404,4.488860559877512,0.0
405,7.928864886180652,0.0
406,5.728046352502284,0.0
407,6.548633552791049,0.0
408,6.510850529818101,0.0
409,6.400219265185495,0.0
410,6.587654027255066,0.0
411,6.449718586255118,0.0
412,6.4423393775264035,0.0
413,6.352321544825018,0.0
414,6.391121080484546,0.0
415,6.599001159539427,0.0
416,6.48145599066842,0.0
417,6.432782496125077,0.0
418,6.432740446089126,0.0
419,6.423131900839836,0.0
420,6.765108258480412,0.0
421,10.069121626284998,0.0
422,13.286926838311071,0.0
423,6.128301280999905,0.0
424,4.493809090550915,0.0
425,7.964434506985337,0.0
426,5.662388752864982,0.0
427,6.600849660840901,0.0
428,6.320465249802382,0.0
429,6.3113754291309725,0.0
430,6.470470796317599,0.0
431,6.370231659189635,0.0
432,6.482358264659437,0.0
433,6.383213849822672,0.0
434,6.404659383867961,0.0
435,6.296676477125336,0.0
436,6.294589767303338,0.0
437,6.287016444760158,0.0
438,6.319111604421882,0.0
439,6.3833224335843965,0.0
440,6.797705861547538,0.0
441,9.935935003667716,0.0
442,13.167199639085162,0.0
443,6.024531159321194,0.0
444,4.579527293479034,0.0
445,7.784076134703457,0.0
446,5.540223676640055,0.0
447,6.454330601400723,0.0
448,6.209674717944391,0.0
449,6.186380922624515,0.0
450,6.525775934357251,0.0
451,6.2734689352258295,0.0
452,6.21593044628054,0.0
453,6.205355323114801,0.0
454,6.353008779909082,0.0
455,6.290150549705463,0.0
456,6.291913024590974,0.0
457,6.190506412831706,0.0
458,6.279025169495992,0.0
459,6.181246978228948,0.0
460,6.528174541210926,0.0
461,9.806711190063268,0.0
462,13.193760950785915,0.0
463,5.8755320621809854,0.0
464,4.418390552226829,0.0
465,7.820524572322914,0.0
466,5.536607260605974,0.0
467,6.3914579084944565,0.0
468,6.334961720975679,0.0
469,6.329444202584318,0.0
470,6.350727347105363,0.0
471,6.319877661568675,0.0
472,6.233993345712131,0.0
473,6.2174097672296265,0.0
474,6.266195575852093,0.0
475,6.202097979762355,0.0
476,6.150432907398895,0.0
477,6.162619994824687,0.0
478,6.325562190597445,0.0
479,6.201542869483529,0.0
480,6.477667194967956,0.0
481,10.000279443218458,0.0
482,13.115939535744658,0.0
483,5.890031341343256,0.0
484,4.273599352134736,0.0
485,7.726298928916522,0.0
486,5.567097931121182,0.0
487,6.343252113496646,0.0
488,6.156380021127655,0.0
489,6.140828044835497,0.0
490,6.301279443774591,0.0
491,6.105321984670605,0.0
492,6.137898489688496,0.0
493,6.1592899270796115,0.0
494,6.089235962569771,0.0
495,6.158873058813378,0.0
496,6.221081865356341,0.0
497,6.15541349105101,0.0
498,6.166796029585976,0.0
499,6.104438530674701,0.0
500,6.385483796772645,0.0
501,9.732846063314765,0.0
502,13.092389394705778,0.0
503,5.669375980825248,0.0
504,4.256807264450352,0.0
505,7.714374656025663,0.0
506,5.299901432706026,0.0
507,6.19116845949091,0.0
508,6.065282462410269,0.0
509,5.9309783798639435,0.0
510,6.054214932456171,0.0
511,6.059993778820765,0.0
512,6.099287333363227,0.0
513,6.070701234959182,0.0
514,6.007953444754355,0.0
515,6.138337325971491,0.0
516,6.116017129882389,0.0
517,6.057510167128079,0.0
518,6.106938007169525,0.0
519,6.144000857765329,0.0
520,6.323453003164598,0.0
521,9.730003457332458,0.0
522,13.029437075685635,0.0
523,5.775150582153728,0.0
524,4.216920941581279,0.0
525,7.597698725836935,0.0
526,5.360869636353471,0.0
527,6.1594283523096305,0.0
528,6.069379351379815,0.0
529,5.999841851545918,0.0
530,6.02921330496033,0.0
531,5.968400312063373,0.0
532,6.0987748831524415,0.0
533,6.0056053037373625,0.0
534,6.169830914943439,0.0
535,6.108433320337483,0.0
536,5.977108675425433,0.0
537,6.0267557531863,0.0
538,6.021521609168249,0.0
539,5.940669915076487,0.0
540,6.4492567526782265,0.0
541,9.65694497677974,0.0
542,12.980762137171457,0.0
543,5.647876952879438,0.0
544,4.233729930006785,0.0
545,7.632203091517186,0.0
546,5.264664902477107,0.0
547,6.206986362038672,0.0
548,6.005845422390169,0.0
549,5.931428570908943,0.0
550,6.1293911096925475,0.0
551,5.950462519509486,0.0
552,6.073560497652928,0.0
553,5.867862978931297,0.0
554,5.997424223516608,0.0
555,5.9715836209172775,0.0
556,6.048794522600565,0.0
557,6.006516082982454,0.0
558,5.942413820990314,0.0
559,5.922654528817455,0.0
560,6.300709597560852,0.0
561,9.51979828597182,0.0
562,12.829612540156653,0.0
563,5.594749551867459,0.0
564,4.20061549959855,0.0
565,7.503505990841761,0.0
566,5.201458658175762,0.0
567,6.033050657986799,0.0
568,5.816452151241451,0.0
569,5.956462694122588,0.0
570,5.9659449716987165,0.0
571,5.891101465146866,0.0
572,5.934535629682982,0.0
573,5.905773651059747,0.0
574,5.942068355414963,0.0
575,5.950990760432018,0.0
576,5.948939172452226,0.0
577,5.898701556669483,0.0
578,5.97865919336959,0.0
579,6.02283001849698,0.0
580,5.996771242269649,0.0
581,9.488804635370522,0.0
582,12.738795737617174,0.0
583,5.672720710562836,0.0
584,3.9928047644499784,0.0
585,7.379591489880978,0.0
586,5.1134843009497555,0.0
587,5.933460597345937,0.0
588,5.857915270914555,0.0
589,5.816537346598253,0.0
590,5.846917459376277,0.0
591,5.864952506779342,0.0
592,5.849762191619497,0.0
593,5.84015290537465,0.0
594,5.895438250474537,0.0
595,5.823114474025688,0.0
596,5.903216876401077,0.0
597,5.896431112951099,0.0
598,5.840106849061547,0.0
599,5.738671725171394,0.0
600,6.1866957847573,0.0
601,9.394798018137609,0.0
602,12.741903557848403,0.0
603,5.39796577262679,0.0
604,4.02811551569338,0.0
605,7.374171631241177,0.0
606,5.068848809107266,0.0
607,5.9389542688367865,0.0
608,5.714702959058299,0.0
609,5.88843608466707,0.0
610,5.915342265909441,0.0
611,5.618705612086816,0.0
612,5.676822983257748,0.0
613,5.755438021377049,0.0
614,5.9124668832232405,0.0
615,5.8331021873124485,0.0
616,5.912059426418865,0.0
617,5.918104450255669,0.0
618,5.811709677398558,0.0
619,5.721559535822407,0.0
620,6.076214003007431,0.0
621,9.354866048369525,0.0
622,12.504181641343987,0.0
623,5.311323340037545,0.0
624,3.9006026518272012,0.0
625,7.171297083617271,0.0
626,4.940591214461725,0.0
627,5.869476487929953,0.0
628,5.7599517021096345,0.0
629,5.721464399394299,0.0
630,5.7983524591349385,0.0
631,5.788834147844548,0.0
632,5.682441344964687,0.0
633,5.740627635973456,0.0
634,5.661228637418594,0.0
635,5.7071778326811575,0.0
636,5.692979275360438,0.0
637,5.756315896957751,0.0
638,5.7923731125581845,0.0
639,5.691872008149179,0.0
640,5.871928145250508,0.0
641,9.337855833278576,0.0
642,12.50074627733254,0.0
643,5.302856541998626,0.0
644,3.903068002318335,0.0
645,7.264654326765738,0.0
646,4.94446095687694,0.0
647,5.833490877227522,0.0
648,5.82016547661944,0.0
649,5.727694352364416,0.0
650,5.710313679392317,0.0
651,5.6034140267577115,0.0
652,5.690284977253189,0.0
653,5.648521013522365,0.0
654,5.732921432558245,0.0
655,5.595935745222566,0.0
656,5.659177671687237,0.0
657,5.679265079289219,0.0
658,5.65189016734592,0.0
659,5.738905265593491,0.0
660,5.818354660773627,0.0
661,9.294288715647259,0.0
662,12.48303097849519,0.0
663,5.208275753308659,0.0
664,3.690724538261154,0.0
665,7.208061259614295,0.0
666,4.93035163491311,0.0
667,5.7396417031812765,0.0
668,5.539509446962567,0.0
669,5.524392125589392,0.0
670,5.6080154334744154,0.0
671,5.566159871945216,0.0
672,5.692041934387816,0.0
673,5.6225096141132695,0.0
674,5.541022234104114,0.0
675,5.688449476898519,0.0
676,5.524197630789391,0.0
677,5.546887899809998,0.0
678,5.514406354795119,0.0
679,5.652095429967639,0.0
680,5.882695243954596,0.0
681,9.204101528375123,0.0
682,12.379281608915472,0.0
683,5.1514233165335055,0.0
684,3.731692992905456,0.0
685,7.066855404342419,0.0
686,4.808783585930232,0.0
687,5.799067579314326,0.0
688,5.5797780355527,0.0
689,5.512843380652375,0.0
690,5.571046299855432,0.0
691,5.541272523017145,0.0
692,5.523529820635516,0.0
693,5.57387171639574,0.0
694,5.496560207862362,0.0
695,5.41860858098133,0.0
696,5.5831411735858,0.0
697,5.473780948401867,0.0
698,5.431501759158745,0.0
699,5.410781550793065,0.0
700,5.835811891002368,0.0
701,9.132989315012487,0.0
702,12.28135888997383,0.0
703,4.909785006486962,0.0
704,3.6440724783748477,0.0
705,6.987323372157698,0.0
706,4.733490133292377,0.0
707,5.580216852918947,0.0
708,5.514590789984682,0.0
709,5.3325042933701905,0.0
710,5.373096614941748,0.0
711,5.46421290599763,0.0
712,5.340643947045143,0.0
713,5.41069301019172,0.0
714,5.3251916784198094,0.0
715,5.353525481669575,0.0
716,5.4259166272493005,0.0
717,5.387721387497683,0.0
718,5.461518829612483,0.0
719,5.448649324711082,0.0
720,5.650489484935037,0.0
721,9.195595136072614,0.0
722,12.275638475639887,0.0
723,4.8877918748842415,0.0
724,3.548921382823708,0.0
725,6.8678692445166165,0.0
726,4.709397064065315,0.0
727,5.572944074139297,0.0
728,5.417251521526712,0.0
729,5.469609345035607,0.0
730,5.3619208862828875,0.0
731,5.369304229874307,0.0
732,5.415807274094119,0.0
733,5.4401697069487005,0.0
734,5.51582521033928,0.0
735,5.422262489867908,0.0
736,5.399960287435936,0.0
737,5.438657702935882,0.0
738,5.337047928877636,0.0
739,5.484752180584312,0.0
740,5.675442730547806,0.0
741,9.00773261897543,0.0
742,12.313707017113252,0.0
743,4.988174698561518,0.0
744,3.577710034816911,0.0
745,6.875635877162482,0.0
746,4.67599393386724,0.0
747,5.485461644798834,0.0
748,5.400570728516751,0.0
749,5.361969610075904,0.0
750,5.383158655648849,0.0
751,5.2730232508812085,0.0
752,5.199237580133271,0.0
753,5.161639523439116,0.0
754,5.249019699014347,0.0
755,5.286380786190091,0.0
756,5.223209736515382,0.0
757,5.416371020250722,0.0
758,5.316119554260871,0.0
759,5.2724648211249425,0.0
760,5.521928275162469,0.0
761,8.938430598611358,0.0
762,12.165955773274943,0.0
763,4.8985808972402385,0.0
764,3.519375393222094,0.0
765,6.719760810619152,0.0
766,4.526949859581422,0.0
767,5.509846898283615,0.0
768,5.2203799495413925,0.0
769,5.246506483735574,0.0
770,5.108370915503416,0.0
771,5.129792528110571,0.0
772,5.206894678866693,0.0
773,5.108027227838189,0.0
774,5.215765953780356,0.0
775,5.180897726897813,0.0
776,5.202016590742615,0.0
777,5.408599100436225,0.0
778,5.224045185632326,0.0
779,5.073969754984244,0.0
780,5.536105435708401,0.0
781,8.751630964372744,0.0
782,12.030536937183065,0.0
783,4.645531819244841,0.0
784,3.3171362513333698,0.0
785,6.895551723823851,0.0
786,4.492814627748496,0.0
787,5.3169578652226255,0.0
788,5.251609682357625,0.0
789,5.122653413879055,0.0
790,5.235174644781162,0.0
791,5.068530855917931,0.0
792,5.114821037504824,0.0
793,5.201368596123232,0.0
794,5.147728809277021,0.0
795,5.104207378092848,0.0
796,5.27186668759029,0.0
797,5.0504857558786425,0.0
798,5.23494675294644,0.0
799,5.167553096672723,0.0
800,5.366103258071637,0.0
801,8.804643239452421,0.0
802,12.047595433113806,0.0
803,4.677988706133129,0.0
804,3.2427988378540586,0.0
805,6.566327359539535,0.0
806,4.277439450563605,0.0
807,5.089253465988538,0.0
808,5.107158259968148,0.0
809,5.122175708112841,0.0
810,5.091488674527028,0.0
811,4.996912235285987,0.0
812,4.9538638599177,0.0
813,5.1580496796001825,0.0
814,5.031280804878375,0.0
815,5.093979694963171,0.0
816,4.963198837890361,0.0
817,5.042251254422111,0.0
818,5.170448487606409,0.0
819,5.03527053289491,0.0
820,5.413155919710993,0.0
821,8.718759507328526,0.0
822,11.853905260720175,0.0
823,4.515337179779599,0.0
824,3.1025306779947006,0.0
825,6.513518654929912,0.0
826,4.322115949235315,0.0
827,5.18161463498451,0.0
828,5.035491026413441,0.0
829,5.101169096353475,0.0
830,5.171304163048439,0.0
831,4.936554301184183,0.0
832,5.118896512312316,0.0
833,5.000957138439668,0.0
834,4.954587040140387,0.0
835,4.985376109651337,0.0
836,5.044731058373796,0.0
837,4.886002906902436,0.0
838,4.871506609335372,0.0
839,4.939376037248581,0.0
840,5.286029624365604,0.0
841,8.572634186842034,0.0
842,11.806386059666444,0.0
843,4.527518074104485,0.0
844,3.060699849191704,0.0
845,6.453030485312947,0.0
846,4.225710902823803,0.0
847,5.190543863190626,0.0
848,5.026637113870464,0.0
849,4.95272653294925,0.0
850,5.145689869132786,0.0
851,5.127042972856776,0.0
852,5.024312466199614,0.0
853,5.140329962162446,0.0
854,5.037484978527813,0.0
855,4.934418048288717,0.0
856,5.043144052156764,0.0
857,5.0119060538594775,0.0
858,4.9316045302028755,0.0
859,4.98023577006328,0.0
860,5.400156751390064,0.0
861,8.511521308699432,0.0
862,11.787508107963767,0.0
863,4.439853226137997,0.0
864,2.955983244873396,0.0
865,6.434856198077419,0.0
866,4.271422081331746,0.0
867,5.071846406707167,0.0
868,4.859697459450423,0.0
869,4.800987665382426,0.0
870,4.978524795037671,0.0
871,4.904885082651745,0.0
872,4.93714860229945,0.0
873,4.7798135216630415,0.0
874,4.92675518536117,0.0
875,4.907593114098635,0.0
876,4.952686537135807,0.0
877,4.8295406754927654,0.0
878,4.839027184308126,0.0
879,4.836130213060806,0.0
880,5.076454421018547,0.0
881,8.32034795305727,0.0
882,11.648777436786597,0.0
883,4.338993343865535,0.0
884,2.957638355721425,0.0
885,6.472835758892922,0.0
886,4.119774612626231,0.0
887,4.9859281823575,0.0
888,4.925064085086714,0.0
889,4.700632878868039,0.0
890,4.8589374049814875,0.0
891,4.777112881592914,0.0
892,4.792734438990393,0.0
893,4.822320425821949,0.0
894,4.893953161634015,0.0
895,4.801917994675908,0.0
896,4.7701610142310615,0.0
897,4.761241465197336,0.0
898,4.723624442999116,0.0
899,4.710640731869355,0.0
900,5.017048363039698,0.0
901,8.469444730732654,0.0
902,11.596704551439986,0.0
903,4.27666555386536,0.0
904,3.147073675381356,0.0
905,6.245918855929413,0.0
906,4.004614794841322,0.0
907,4.750611299574556,0.0
908,4.761985931506016,0.0
909,4.605844022499596,0.0
910,4.803932774655496,0.0
911,4.570479249525821,0.0
912,4.766838165152407,0.0
913,4.705497888831802,0.0
914,4.605838160403221,0.0
915,4.544107356198644,0.0
916,4.6943884240032,0.0
917,4.77700843254573,0.0
918,4.722961199859136,0.0
919,4.607470675109345,0.0
920,4.895270772967975,0.0
921,8.402539956354598,0.0
922,11.470019467033481,0.0
923,4.168021499562907,0.0
924,2.837371549117786,0.0
925,6.185223499021248,0.0
926,3.9785318894342234,0.0
927,4.755490489042444,0.0
928,4.656847428860338,0.0
929,4.5486194249228165,0.0
930,4.779675640124311,0.0
931,4.6113659481793015,0.0
932,4.440094124956071,0.0
933,4.62316574548231,0.0
934,4.596361043359157,0.0
935,4.672766716225539,0.0
936,4.57646787938241,0.0
937,4.65304905752279,0.0
938,4.655314035041314,0.0
939,4.726993147519809,0.0
940,4.982488248939658,0.0
941,8.384443409613624,0.0
942,11.422231848067508,0.0
943,4.149924878674421,0.0
944,2.8105783246425204,0.0
945,6.158586159484672,0.0
946,4.00407760108292,0.0
947,4.867022944070033,0.0
948,4.671162713206336,0.0
949,4.6422161808962645,0.0
950,4.71706544823259,0.0
951,4.581564484381716,0.0
952,4.564173165997624,0.0
953,4.645650260211636,0.0
954,4.530333611563221,0.0
955,4.605341876848515,0.0
956,4.552860451132965,0.0
957,4.624239472114963,0.0
958,4.583713589043575,0.0
959,4.43394274365392,0.0
960,4.873733966624389,0.0
961,8.284957538009762,0.0
962,11.401037524131777,0.0
963,4.115234987087025,0.0
964,2.718243893170049,0.0
965,5.994382599172823,0.0
966,3.6930301597814754,0.0
967,4.7484851717520025,0.0
968,4.565094590179465,0.0
969,4.340764564683154,0.0
970,4.637241190484335,0.0
971,4.546037093076314,0.0
972,4.596254827332656,0.0
973,4.505507983348585,0.0
974,4.517336074704286,0.0
975,4.439912556920867,0.0
976,4.576728528059391,0.0
977,4.564190594716653,0.0
978,4.635455557984498,0.0
979,4.535082792052908,0.0
980,4.859926989848912,0.0
981,8.21212662072022,0.0
982,11.281694439181749,0.0
983,3.9899377764318658,0.0
984,2.776941757306031,0.0
985,5.8826943870253325,0.0
986,3.7284046407618625,0.0
987,4.715899192700342,0.0
988,4.476220269639926,0.0
989,4.507859251260155,0.0
990,4.498640312422809,0.0
991,4.400206432663106,0.0
992,4.440794775901932,0.0
993,4.457674885555957,0.0
994,4.381394882973741,0.0
995,4.492627141262567,0.0
996,4.335073117078977,0.0
997,4.447673371268142,0.0
998,4.404536369894129,0.0
999,4.385235196222645,0.0
1000,4.69994952011613,0.0
1001,7.971050997216691,0.0
1002,11.15523686439085,0.0
1003,3.8853171129513484,0.0
1004,2.5746279409300676,0.0
1005,6.034074329439423,0.0
1006,3.6744209164987898,0.0
1007,4.514024986905407,0.0
1008,4.518014705629213,0.0
1009,4.314933403362425,0.0
1010,4.368335584973141,0.0
1011,4.413709514563913,0.0
1012,4.462299033018811,0.0
1013,4.380611231629197,0.0
1014,4.465929666305527,0.0
1015,4.344655626586155,0.0
1016,4.556377688688665,0.0
1017,4.305367159153754,0.0
1018,4.3627219745969334,0.0
1019,4.318449173317487,0.0
1020,4.526036533436333,0.0
1021,8.092330388644346,0.0
1022,11.21586446568027,0.0
1023,3.686708301657961,0.0
1024,2.640022745922919,0.0
1025,5.9867225743849986,0.0
1026,3.768849776956934,0.0
1027,4.4934853885772545,0.0
1028,4.539765239454067,0.0
1029,4.383029060700095,0.0
1030,4.328127509621321,0.0
1031,4.216261833709002,0.0
1032,4.276024641711776,0.0
1033,4.237994184547026,0.0
1034,4.459561139665939,0.0
1035,4.330136446494559,0.0
1036,4.4461426632337595,0.0
1037,4.261342105490579,0.0
1038,4.250228719172945,0.0
1039,4.347936611850066,0.0
1040,4.670177722088495,0.0
1041,7.943821225083305,0.0
1042,11.197660851741887,0.0
1043,3.7038104457745367,0.0
1044,2.68492715532779,0.0
1045,5.7340247214357145,0.0
1046,3.5313834433718485,0.0
1047,4.532478160596866,0.0
1048,4.243393517444396,0.0
1049,4.043454524143559,0.0
1050,4.408868416734529,0.0
1051,4.258453735986074,0.0
1052,4.270284218448181,0.0
1053,4.3566083482083915,0.0
1054,4.172599350999715,0.0
1055,4.329156104790936,0.0
1056,4.210308804753614,0.0
1057,4.25892800203476,0.0
1058,4.218809667755634,0.0
1059,4.217932583887999,0.0
1060,4.47196880703288,0.0
1061,7.919150825742773,0.0
1062,11.033639092853061,0.0
1063,3.608613466136486,0.0
1064,2.3886733435821452,0.0
1065,5.838515485770644,0.0
1066,3.493645737797165,0.0
1067,4.4202728741542625,0.0
1068,4.293204237057213,0.0
1069,4.1992227493114065,0.0
1070,4.328208759866415,0.0
1071,4.256096058441828,0.0
1072,4.33086961023632,0.0
1073,4.408536024122494,0.0
1074,4.311320586126494,0.0
1075,4.281514311048467,0.0
1076,4.297011363879521,0.0
1077,4.307330982394659,0.0
1078,4.21044780645114,0.0
1079,4.116480088379577,0.0
1080,4.47706717331928,0.0
1081,7.771387648727441,0.0
1082,10.909403809994217,0.0
1083,3.582819642297928,0.0
1084,2.3715107877072814,0.0
1085,5.603686437089285,0.0
1086,3.312842395350402,0.0
1087,4.300909129138922,0.0
1088,4.21662732564013,0.0
1089,4.0903563499990625,0.0
1090,4.165988041997673,0.0
1091,4.1281725022504965,0.0
1092,4.079840933623293,0.0
1093,4.136445542192348,0.0
1094,4.128060969969573,0.0
1095,4.217901246575976,0.0
1096,4.130814781799284,0.0
1097,4.0791116218274075,0.0
1098,4.138833793779964,0.0
1099,4.248849764109936,0.0
1100,4.453068983380256,0.0
1101,7.898751092371134,0.0
1102,10.928181663124402,0.0
1103,3.6260594565316207,0.0
1104,2.4336260667036327,0.0
1105,5.543216774976832,0.0
1106,3.3723141570041713,0.0
1107,4.315146811538804,0.0
1108,4.042206469166928,0.0
1109,3.9021009747085547,0.0
1110,4.027585041173961,0.0
1111,4.075339954082856,0.0
1112,4.035953357634359,0.0
1113,4.047579449002762,0.0
1114,4.0635569047496345,0.0
1115,4.111007944418465,0.0
1116,4.0909924174149594,0.0
1117,4.0109141688514285,0.0
1118,3.9574492125857583,0.0
1119,4.224181833154963,0.0
1120,4.52737204364715,0.0
1121,7.804721256247295,0.0
1122,10.94728348041097,0.0
1123,3.7786275378250234,0.0
1124,2.3239593248672605,0.0
1125,5.751259883252738,0.0
1126,3.3435995905522824,0.0
1127,4.248160367964752,0.0
1128,4.137186197753046,0.0
1129,4.203904180725696,0.0
1130,4.275323029178132,0.0
1131,4.119603694921901,0.0
1132,4.18520398775509,0.0
1133,4.120900846395162,0.0
1134,4.169907811751965,0.0
1135,4.11321680651938,0.0
1136,4.102083842361203,0.0
1137,4.078290036049752,0.0
1138,4.020333373208864,0.0
1139,4.010514233320808,0.0
1140,4.247158555140566,0.0
1141,7.764229581860002,0.0
1142,10.818794152468799,0.0
1143,3.4319316254705807,0.0
1144,2.2080826571557703,0.0
1145,5.322959111860903,0.0
1146,3.1128044632956238,0.0
1147,4.119915844661354,0.0
1148,3.9009879688685607,0.0
1149,3.720539685569245,0.0
1150,3.896170328178687,0.0
1151,3.8194590030004383,0.0
1152,3.80739944077852,0.0
1153,3.7991269182845597,0.0
1154,4.014973135330547,0.0
1155,3.9189734719421296,0.0
1156,3.976785116354701,0.0
1157,4.013349384475392,0.0
1158,3.9535487458993153,0.0
1159,3.994344872088319,0.0
1160,4.3468885885362925,0.0
1161,7.758616470066641,0.0
1162,10.665540337682776,0.0
1163,3.410685022609961,0.0
1164,2.24507088412172,0.0
1165,5.549633906028765,0.0
1166,3.20885749979762,0.0
1167,4.05008609559875,0.0
1168,4.023382205914656,0.0
1169,3.8861227010213173,0.0
1170,3.8901609619762167,0.0
1171,3.914180587915385,0.0
1172,3.88115701979657,0.0
1173,3.8666366921852777,0.0
1174,3.9583085249868115,0.0
1175,4.060216724903241,0.0
1176,3.915676515108641,0.0
1177,3.961514759020137,0.0
1178,3.810195804403318,0.0
1179,3.8678855521891133,0.0
1180,4.354026254678607,0.0
1181,7.755153951539054,0.0
1182,10.608699577786135,0.0
1183,3.244886236258882,0.0
1184,2.1934961634159738,0.0
1185,5.436913633549072,0.0
1186,3.20710366930296,0.0
1187,4.042368758873625,0.0
1188,3.937855112641318,0.0
1189,3.852951347199524,0.0
1190,3.9780318585187717,0.0
1191,3.727108634983068,0.0
1192,3.9016370405038474,0.0
1193,3.819338322097648,0.0
1194,4.008548093642098,0.0
1195,3.717402656745611,0.0
1196,3.907296818168671,0.0
1197,3.909021115264062,0.0
1198,3.781098026244073,0.0
1199,3.7569882614603327,0.0
1200,4.084269232658963,0.0
1201,7.5577840423486835,0.0
1202,10.684787008869371,0.0
1203,3.271412733000112,0.0
1204,2.14189022503257,0.0
1205,5.3764534212175406,0.0
1206,3.053755654790614,0.0
1207,3.90020712255665,0.0
1208,3.7836590041614913,0.0
1209,3.6422486591467305,0.0
1210,3.7970420839378276,0.0
1211,3.7516158060420484,0.0
1212,3.8026877200691027,0.0
1213,3.880702444643803,0.0
1214,3.8246626365449448,0.0
1215,3.784759350259273,0.0
1216,3.8232950765920104,0.0
1217,3.7086024936244923,0.0
1218,3.724257649479593,0.0
1219,3.583322762505455,0.0
1220,4.075619859677837,0.0
1221,7.513033369243196,0.0
1222,10.46100939272199,0.0
1223,3.199542397364402,0.0
1224,2.0215144112704238,0.0
1225,5.164899308213052,0.0
1226,2.9221829731323785,0.0
1227,3.8793482568703745,0.0
1228,3.7735530164261397,0.0
1229,3.8461094353691547,0.0
1230,3.901607941022193,0.0
1231,3.6730905628502852,0.0
1232,3.7362142027067233,0.0
1233,3.767456358173888,0.0
1234,3.594487620817759,0.0
1235,3.631480527188378,0.0
1236,3.673672353381309,0.0
1237,3.791929164305022,0.0
1238,3.7728911770039115,0.0
1239,3.7429453035595968,0.0
1240,4.068882852877642,0.0
1241,7.378473416574433,0.0
1242,10.57591483180311,0.0
1243,3.1963444211757395,0.0
1244,2.030889759720202,0.0
1245,5.155821352999787,0.0
1246,3.0289719425639383,0.0
1247,3.7851987398037266,0.0
1248,3.6990991701668676,0.0
1249,3.5100337601015172,0.0
1250,3.6483732448534227,0.0
1251,3.5516837096599443,0.0
1252,3.8096367760966103,0.0
1253,3.647376451850863,0.0
1254,3.6244866205897246,0.0
1255,3.920075853553046,0.0
1256,3.6924636873085728,0.0
1257,3.7275669360715193,0.0
1258,3.6672341156222026,0.0
1259,3.647415989132442,0.0
1260,3.955132227811612,0.0
1261,7.404648347104354,0.0
1262,10.496897724193666,0.0
1263,3.215687109447333,0.0
1264,1.8727710885653717,0.0
1265,5.186531838396202,0.0
1266,2.9755499628150086,0.0
1267,3.8381636517857736,0.0
1268,3.6834953178225263,0.0
1269,3.6816893724226496,0.0
1270,3.700862584384625,0.0
1271,3.7174181934706323,0.0
1272,3.692741500428981,0.0
1273,3.5713453664984396,0.0
1274,3.7240052827975085,0.0
1275,3.6425326187794314,0.0
1276,3.5528935897608718,0.0
1277,3.5455059492184198,0.0
1278,3.4338500946561714,0.0
1279,3.5944435981073273,0.0
1280,3.8525687352394824,0.0
1281,7.223212345485695,0.0
1282,10.25952181254452,0.0
1283,2.8923866610478726,0.0
1284,1.641635717672144,0.0
1285,5.063685649939318,0.0
1286,2.7680837425362848,0.0
1287,3.7417238304925884,0.0
1288,3.3673192195862813,0.0
1289,3.461411142266488,0.0
1290,3.5275133508595715,0.0
1291,3.4501310467034143,0.0
1292,3.5838111565941424,0.0
1293,3.529667917971678,0.0
1294,3.6354125547620555,0.0
1295,3.48323133326069,0.0
1296,3.624567849303925,0.0
1297,3.671108651990724,0.0
1298,3.6123090625146497,0.0
1299,3.599188943628379,0.0
1300,3.8952291832614367,0.0
1301,7.264835539061915,0.0
1302,10.34942660248546,0.0
1303,2.9313873111197215,0.0
1304,1.7659850774817534,0.0
1305,5.120922894584366,0.0
1306,2.724328277918965,0.0
1307,3.6334730415984544,0.0
1308,3.5400338526585475,0.0
1309,3.4168145101961267,0.0
1310,3.4273152153290174,0.0
1311,3.5892643827758954,0.0
1312,3.480633088975881,0.0
1313,3.600897224702344,0.0
1314,3.5743368911532607,0.0
1315,3.3608448423164896,0.0
1316,3.535747726622635,0.0
1317,3.3852803356134156,0.0
1318,3.4903914737442197,0.0
1319,3.3379070265417257,0.0
1320,3.723394871471511,0.0
1321,7.019466387796323,0.0
1322,10.176265304773386,0.0
1323,2.8553969135801607,0.0
1324,1.6774188673996013,0.0
1325,4.874637455547262,0.0
1326,2.688363124986973,0.0
1327,3.5217679847092107,0.0
1328,3.4349122503462204,0.0
1329,3.470859707279748,0.0
1330,3.4820752525238112,0.0
1331,3.468095325070703,0.0
1332,3.5132003895696227,0.0
1333,3.4948043624165614,0.0
1334,3.368587053687863,0.0
1335,3.533188879244209,0.0
1336,3.451471942682774,0.0
1337,3.49796489350451,0.0
1338,3.3664472829103684,0.0
1339,3.52410436016683,0.0
1340,3.818373651264821,0.0
1341,7.041024768063029,0.0
1342,10.124020289530927,0.0
1343,2.825285989158956,0.0
1344,1.5517460823669247,0.0
1345,4.795285658997447,0.0
1346,2.648634753407195,0.0
1347,3.5834005700883615,0.0
1348,3.3384403098942874,0.0
1349,3.4706096679543657,0.0
1350,3.4792110881074145,0.0
1351,3.3557388046371512,0.0
1352,3.3368947770799675,0.0
1353,3.3183359367229683,0.0
1354,3.3661561659264305,0.0
1355,3.4475880553596046,0.0
1356,3.371165147375457,0.0
1357,3.367313696082454,0.0
1358,3.4124393861085434,0.0
1359,3.3999434163783926,0.0
1360,3.7631277267762697,0.0
1361,7.182156278169941,0.0
1362,10.130774655931392,0.0
1363,2.725360401805695,0.0
1364,1.6136839728396524,0.0
1365,4.9495350709006285,0.0
1366,2.6497703801535506,0.0
1367,3.414995887173069,0.0
1368,3.240077203370249,0.0
1369,3.358437408383595,0.0
1370,3.1221346182657466,0.0
1371,3.329279564253149,0.0
1372,3.3816750789287835,0.0
1373,3.22751270874371,0.0
1374,3.4266674682246063,0.0
1375,3.4601988138400377,0.0
1376,3.227673757238323,0.0
1377,3.3041289905194082,0.0
1378,3.296416151796296,0.0
1379,3.4019527874605426,0.0
1380,3.53401967821817,0.0
1381,7.027618425650465,0.0
1382,10.048123194752046,0.0
1383,2.6221040936925104,0.0
1384,1.4574275028736192,0.0
1385,4.843468828729067,0.0
1386,2.624708337690664,0.0
1387,3.4285019155430576,0.0
1388,3.260017493193446,0.0
1389,3.271115682138726,0.0
1390,3.3484501106777387,0.0
1391,3.2691060104341694,0.0
1392,3.227454728357558,0.0
1393,3.2497614191264015,0.0
1394,3.2427451470176343,0.0
1395,3.1449323087898096,0.0
1396,3.1491548243062173,0.0
1397,3.1909029757393315,0.0
1398,3.1331427744231526,0.0
1399,3.217104975780529,0.0
1400,3.4740785856666414,0.0
1401,7.005061994100102,0.0
1402,9.863760396869845,0.0
1403,2.74386336521995,0.0
1404,1.4109032132530286,0.0
1405,4.687382754991843,0.0
1406,2.503729083030952,0.0
1407,3.358537290976632,0.0
1408,3.083317738978226,0.0
1409,3.1552937363617213,0.0
1410,3.285546618845885,0.0
1411,3.185686179816443,0.0
1412,3.215989008094067,0.0
1413,3.150837680632602,0.0
1414,3.1384891345713553,0.0
1415,3.2846875167071405,0.0
1416,3.24408000626932,0.0
1417,3.1180109899796733,0.0
1418,3.3133836456018413,0.0
1419,3.069234808617142,0.0
1420,3.4948822814129445,0.0
1421,6.878404516669434,0.0
1422,10.02625047461885,0.0
1423,2.4243093317943027,0.0
1424,1.4219782066940352,0.0
1425,4.512577584600549,0.0
1426,2.313357140080382,0.0
1427,3.4373544317084903,0.0
1428,3.150601961342279,0.0
1429,3.1028042040788217,0.0
1430,3.18786690659823,0.0
1431,3.0305404664909426,0.0
1432,3.058853895524624,0.0
1433,3.147125318031884,0.0
1434,3.106865585027202,0.0
1435,3.148146595264397,0.0
1436,3.084425702953215,0.0
1437,3.1073898753973146,0.0
1438,3.053226642596166,0.0
1439,2.9424623589891783,0.0
1440,3.4862017685062736,0.0
1441,6.679679863469621,0.0
1442,9.909829966604246,0.0
1443,2.3186184344477287,0.0
1444,1.3261634538722158,0.0
1445,4.650398587625328,0.0
1446,2.174602284671073,0.0
1447,3.3477002334417794,0.0
1448,3.102878441457643,0.0
1449,3.1520877090794763,0.0
1450,3.086988762689946,0.0
1451,3.131884089665035,0.0
1452,3.0695653362779782,0.0
1453,2.9845543896725717,0.0
1454,2.999425014036544,0.0
1455,2.995502493154418,0.0
1456,3.035374955674938,0.0
1457,3.0204683424175176,0.0
1458,3.044106293154404,0.0
1459,2.91548266952878,0.0
1460,3.406070955949242,0.0
1461,6.894504090966246,0.0
1462,9.895764997408852,0.0
1463,2.4098753107059325,0.0
1464,1.3554645049514786,0.0
1465,4.604215634929546,0.0
1466,2.2215874930712927,0.0
1467,3.2464161767121125,0.0
1468,2.9576274722877653,0.0
1469,2.940501001827202,0.0
1470,2.962098522008623,0.0
1471,2.935490528987843,0.0
1472,3.015866514090608,0.0
1473,2.95979009099829,0.0
1474,2.9781173719923864,0.0
1475,3.0132307779432237,0.0
1476,3.1079578839475177,0.0
1477,2.9190094388695758,0.0
1478,2.9176814533993785,0.0
1479,3.0661046559762606,0.0
1480,3.249754909323055,0.0
1481,6.706645423431743,0.0
1482,9.776591381869933,0.0
1483,2.23293509851753,0.0
1484,1.1543608635790537,0.0
1485,4.3796815978164165,0.0
1486,2.2670431204266746,0.0
1487,3.0893413855217173,0.0
1488,2.9865248657630197,0.0
1489,2.9358431120855406,0.0
1490,2.9757487739515867,0.0
1491,2.894607283131984,0.0
1492,3.0490809590893835,0.0
1493,2.9094874092211476,0.0
1494,2.9523777866647056,0.0
1495,2.982939620809778,0.0
1496,3.0328367726473404,0.0
1497,2.9413935408670504,0.0
1498,2.9749052849272175,0.0
1499,2.755793536877538,0.0
1500,3.382224891914322,0.0
1501,6.66393656480361,0.0
1502,9.679757089145538,0.0
1503,2.2489390744574367,0.0
1504,1.2041227223958035,0.0
1505,4.245522045746064,0.0
1506,2.117044115321564,0.0
1507,3.1347462084086346,0.0
1508,2.871156943606623,0.0
1509,2.967492634463487,0.0
1510,2.928002617036496,0.0
1511,2.854073326321116,0.0
1512,2.843862856889436,0.0
1513,2.851218435313934,0.0
1514,2.8839854221656,0.0
1515,2.8380999979076864,0.0
1516,2.8938021036436714,0.0
1517,2.9395754661656914,0.0
1518,3.022067346818686,0.0
1519,2.9365218875413426,0.0
1520,3.1756990787056587,0.0
1521,6.616376631137774,0.0
1522,9.739281177698041,0.0
1523,2.2491375876158566,0.0
1524,1.102692409191508,0.0
1525,4.405786195007318,0.0
1526,2.1403148822463196,0.0
1527,3.1114839683553077,0.0
1528,2.8489382865669493,0.0
1529,2.817426215356138,0.0
1530,2.8404695382876155,0.0
1531,2.829033884665436,0.0
1532,2.6724311957518774,0.0
1533,2.7283756592133037,0.0
1534,2.7413791441621504,0.0
1535,2.8522795623694908,0.0
1536,2.8435394448563245,0.0
1537,2.867129825647019,0.0
1538,2.68026555112556,0.0
1539,2.703032294341467,0.0
1540,3.098986062879553,0.0
1541,6.573528872135701,0.0
1542,9.670092314785688,0.0
1543,2.140901088787601,0.0
1544,1.1612766187287193,0.0
1545,4.360575252683196,0.0
1546,2.080894381600417,0.0
1547,3.0299347017929756,0.0
1548,2.795244756875386,0.0
1549,2.7746380868607057,0.0
1550,2.8284692431992737,0.0
1551,2.855579387253652,0.0
1552,2.880134415951852,0.0
1553,2.663016308045773,0.0
1554,2.7431638802262213,0.0
1555,2.761891073987187,0.0
1556,2.808959608645283,0.0
1557,2.7423961919656374,0.0
1558,2.7207203786944123,0.0
1559,2.626453613099155,0.0
1560,3.102651232501635,0.0
1561,6.553587092161078,0.0
1562,9.70639080171766,0.0
1563,2.0290345863596255,0.0
1564,1.087718786678203,0.0
1565,4.243377641961714,0.0
1566,2.092765842958482,0.0
1567,2.884933554812181,0.0
1568,2.908418205148266,0.0
1569,2.8680512186559497,0.0
1570,2.781864297349603,0.0
1571,2.8072168906700252,0.0
1572,2.813269444766149,0.0
1573,2.768809042451739,0.0
1574,2.6277946746134524,0.0
1575,2.728922448888988,0.0
1576,2.7594057700693337,0.0
1577,2.724458849899293,0.0
1578,2.7123617862535556,0.0
1579,2.6956404362308053,0.0
1580,2.888554973581171,0.0
1581,6.383942889770992,0.0
1582,9.560699711819714,0.0
1583,1.9639101678199393,0.0
1584,1.0581356747230326,0.0
1585,4.1661340263738245,0.0
1586,1.859343520566807,0.0
1587,2.897428490510689,0.0
1588,2.6733888497524574,0.0
1589,2.6441392482852413,0.0
1590,2.710296935560407,0.0
1591,2.7544880256784174,0.0
1592,2.7799991069909873,0.0
1593,2.7340903746470757,0.0
1594,2.670908235145923,0.0
1595,2.687731101701875,0.0
1596,2.6033485710615807,0.0
1597,2.7654565723206357,0.0
1598,2.6601719673590307,0.0
1599,2.604378232347664,0.0
1600,2.9257674543067402,0.0
1601,6.498574965399405,0.0
1602,9.44907417578358,0.0
1603,2.0138935304772128,0.0
1604,1.0318077406839334,0.0
1605,4.118109315357532,0.0
1606,1.8436304857690906,0.0
1607,2.783145245410294,0.0
1608,2.6554016772105817,0.0
1609,2.538111716176136,0.0
1610,2.7478592141546647,0.0
1611,2.497496811541729,0.0
1612,2.636395455323191,0.0
1613,2.732660678140969,0.0
1614,2.615308648091105,0.0
1615,2.74391723733205,0.0
1616,2.7098249865582638,0.0
1617,2.7009633995173377,0.0
1618,2.774646865436303,0.0
1619,2.588968610211395,0.0
1620,3.009656848225327,0.0
1621,6.49065982195851,0.0
1622,9.404545702275946,0.0
1623,1.9160484788207004,0.0
1624,1.0221301809334422,0.0
1625,4.154325593685443,0.0
1626,2.0236417238610676,0.0
1627,2.7761206324234657,0.0
1628,2.5320829035592958,0.0
1629,2.5887222109297183,0.0
1630,2.5685364995777613,0.0
1631,2.5049121664363043,0.0
1632,2.490567929848231,0.0
1633,2.531277013586926,0.0
1634,2.648657848688331,0.0
1635,2.625775754867788,0.0
1636,2.5732883239998876,0.0
1637,2.73700048099515,0.0
1638,2.703138413686689,0.0
1639,2.6054216716623317,0.0
1640,3.0270803754495623,0.0
1641,6.455601568416274,0.0
1642,9.458846962595551,0.0
1643,2.0699225831970907,0.0
1644,1.0532514203885297,0.0
1645,4.2472856259033875,0.0
1646,1.9747750917060598,0.0
1647,2.923461501905637,0.0
1648,2.5615103612292924,0.0
1649,2.756565689411066,0.0
1650,2.695027997210913,0.0
1651,2.667545022886094,0.0
1652,2.6834465316272307,0.0
1653,2.6281438249795737,0.0
1654,2.6656431903648454,0.0
1655,2.547746534889489,0.0
1656,2.5093643448009226,0.0
1657,2.6317759347985654,0.0
1658,2.578820270965152,0.0
1659,2.5226773895600534,0.0
1660,2.9028384217190535,0.0
1661,6.424935398457947,0.0
1662,9.372700577889386,0.0
1663,1.7729537649369125,0.0
1664,0.8378692270225576,0.0
1665,3.9676947323262395,0.0
1666,1.7594824259069486,0.0
1667,2.7681435218218846,0.0
1668,2.4641681199860064,0.0
1669,2.5566816463627746,0.0
1670,2.5909570895330325,0.0
1671,2.408850618564343,0.0
1672,2.5499871008708666,0.0
1673,2.629111029692304,0.0
1674,2.642987123968808,0.0
1675,2.5886108109060064,0.0
1676,2.463961899312774,0.0
1677,2.564901307600481,0.0
1678,2.58784525289304,0.0
1679,2.458927245483716,0.0
1680,2.735984393217613,0.0
1681,6.382164088899659,0.0
1682,9.23643225214321,0.0
1683,1.7522884162726,0.0
1684,0.8589912854223236,0.0
1685,4.108963995212932,0.0
1686,1.7393170723310178,0.0
1687,2.6862515012985644,0.0
1688,2.547714337611022,0.0
1689,2.5869838886632692,0.0
1690,2.7120329280641826,0.0
1691,2.463129044152788,0.0
1692,2.49119288282027,0.0
1693,2.6234687727625063,0.0
1694,2.405317222277219,0.0
1695,2.5292370272475764,0.0
1696,2.4111372679135026,0.0
1697,2.550218744952863,0.0
1698,2.6193803773041573,0.0
1699,2.5226599032272623,0.0
1700,2.900912371682939,0.0
1701,6.276258482359503,0.0
1702,9.252663353257859,0.0
1703,1.75224415148181,0.0
1704,0.7776030398904801,0.0
1705,3.970247771110162,0.0
1706,1.6775962298554539,0.0
1707,2.6864640967187547,0.0
1708,2.3698041928321634,0.0
1709,2.4112918147657676,0.0
1710,2.4258954629588727,0.0
1711,2.420623498078508,0.0
1712,2.6360631822619793,0.0
1713,2.3882711153619174,0.0
1714,2.314742795381524,0.0
1715,2.4576409810449347,0.0
1716,2.4652988877094035,0.0
1717,2.385833568796466,0.0
1718,2.296770429310047,0.0
1719,2.558938689186762,0.0
1720,2.8046113692592263,0.0
1721,6.312502614761765,0.0
1722,9.278831563307708,0.0
1723,1.7138989746595432,0.0
1724,0.7433865436755549,0.0
1725,4.005420464679962,0.0
1726,1.5693078413552002,0.0
1727,2.442429826182668,0.0
1728,2.5402072619791536,0.0
1729,2.416770261905561,0.0
1730,2.5170562275517483,0.0
1731,2.3731509476076122,0.0
1732,2.42083524251447,0.0
1733,2.3788656169288545,0.0
1734,2.390711659982576,0.0
1735,2.361984168020776,0.0
1736,2.4046754899376634,0.0
1737,2.459463474478919,0.0
1738,2.3344739254866376,0.0
1739,2.5156572645218382,0.0
1740,2.6980185519063324,0.0
1741,6.069972626610259,0.0
1742,9.069304302071668,0.0
1743,1.716609692829016,0.0
1744,0.6463501938363088,0.0
1745,3.85464479693131,0.0
1746,1.711753277232988,0.0
1747,2.5759947922003645,0.0
1748,2.407382203328849,0.0
1749,2.3867657393163495,0.0
1750,2.41976029991469,0.0
1751,2.345540856218773,0.0
1752,2.5402466175387364,0.0
1753,2.3671836324371975,0.0
1754,2.412037071788517,0.0
1755,2.304580218464567,0.0
1756,2.415918270344916,0.0
1757,2.512050284200828,0.0
1758,2.4108165249244435,0.0
1759,2.2609640299521057,0.0
1760,2.7178478051525783,0.0
1761,6.157460289011796,0.0
1762,9.013342889353073,0.0
1763,1.5755456834821597,0.0
1764,0.8132771659911988,0.0
1765,3.878959824290563,0.0
1766,1.5235021727665412,0.0
1767,2.6123739197972085,0.0
1768,2.340717356737552,0.0
1769,2.421060002877543,0.0
1770,2.3991182111220994,0.0
1771,2.3510089042921565,0.0
1772,2.4226758317865755,0.0
1773,2.254539816749169,0.0
1774,2.216986322323931,0.0
1775,2.4535174879099526,0.0
1776,2.329079837421853,0.0
1777,2.303307666989047,0.0
1778,2.260685506278963,0.0
1779,2.3103116967123203,0.0
1780,2.570601013191406,0.0
1781,6.15865364452476,0.0
1782,9.00625851513495,0.0
1783,1.4653627548619008,0.0
1784,0.6977112010931577,0.0
1785,3.7506323696587307,0.0
1786,1.4251755765820788,0.0
1787,2.349287150579952,0.0
1788,2.1219882836082724,0.0
1789,2.159369212786637,0.0
1790,2.263357224679922,0.0
1791,2.1839839968259414,0.0
1792,2.3423080585647273,0.0
1793,2.177558097745758,0.0
1794,2.1939130214387723,0.0
1795,2.2422320295234073,0.0
1796,2.1586815770679313,0.0
1797,2.135448795741835,0.0
1798,2.2931267811036977,0.0
1799,2.1382469906376174,0.0
1800,2.571324184289941,0.0
1801,5.962530468356004,0.0
1802,8.893749413044485,0.0
1803,1.3770813858720508,0.0
1804,0.446415904196914,0.0
1805,3.653768942467509,0.0
1806,1.4794923673457525,0.0
1807,2.454837657486035,0.0
1808,2.2314693780462167,0.0
1809,2.2090408120194978,0.0
1810,2.057773360657428,0.0
1811,2.1246887967296018,0.0
1812,1.998792727289397,0.0
1813,2.199034083895581,0.0
1814,1.9897125606727883,0.0
1815,2.0373190217803137,0.0
1816,2.1061862509387965,0.0
1817,2.0612884420627813,0.0
1818,1.950940874448216,0.0
1819,2.167686450546761,0.0
1820,2.4054510432740286,0.0
1821,5.830253512615715,0.0
1822,8.88366961900336,0.0
1823,1.4379551883697577,0.0
1824,0.47156905316589115,0.0
1825,3.5404002292687657,0.0
1826,1.3270769633429151,0.0
1827,2.3231807795649875,0.0
1828,2.13580567376509,0.0
1829,2.0076837093054296,0.0
1830,2.06426847414524,0.0
1831,2.0742469466630786,0.0
1832,2.1671064839939373,0.0
1833,2.1263706953588937,0.0
1834,2.1672428954357965,0.0
1835,2.09650380220388,0.0
1836,2.189964205809657,0.0
1837,2.1684869558920186,0.0
1838,1.9972131229675865,0.0
1839,2.1484882096830917,0.0
1840,2.3958173663604603,0.0
1841,5.812263354726607,0.0
1842,8.974854171553396,0.0
1843,1.3942351113737583,0.0
1844,0.3570041014733012,0.0
1845,3.4875390150108383,0.0
1846,1.3530352120651057,0.0
1847,2.183168988615933,0.0
1848,2.0218418058762886,0.0
1849,1.9395758242354528,0.0
1850,2.171644538176059,0.0
1851,2.1224780230743394,0.0
1852,2.0257193698129,0.0
1853,1.911099853576908,0.0
1854,2.0408639183364423,0.0
1855,1.9690352804847873,0.0
1856,2.075357056275497,0.0
1857,2.1396259669007742,0.0
1858,1.9487501524992843,0.0
1859,2.1584994156377064,0.0
1860,2.460094847885438,0.0
1861,6.007453231686332,0.0
1862,8.77088453787255,0.0
1863,1.3398339174779776,0.0
1864,0.28947848794183373,0.0
1865,3.588471549573831,0.0
1866,1.2244468322379962,0.0
1867,2.139197825981102,0.0
1868,2.0104669489829687,0.0
1869,2.1205484007359563,0.0
1870,2.1514427198756096,0.0
1871,2.14734926243459,0.0
1872,2.122752522934564,0.0
1873,2.095287006784232,0.0
1874,2.0734154602259194,0.0
1875,2.1043782679733614,0.0
1876,2.0505328416504467,0.0
1877,1.932960850673516,0.0
1878,2.0370629747835847,0.0
1879,2.1582937318035347,0.0
1880,2.48082754220448,0.0
1881,5.732249793496278,0.0
1882,8.799059766158091,0.0
1883,1.2024624171661373,0.0
1884,0.3542522014870735,0.0
1885,3.515944831103768,0.0
1886,1.2240483686226962,0.0
1887,2.09885498412811,0.0
1888,1.9223708833194315,0.0
1889,2.018576359204956,0.0
1890,2.0154991972011422,0.0
1891,2.0782102454395113,0.0
1892,2.0711189748035523,0.0
1893,2.0906195442552815,0.0
1894,2.0593098524287305,0.0
1895,2.110002304298172,0.0
1896,2.1546233344593397,0.0
1897,1.964443151002874,0.0
1898,2.0414320641246344,0.0
1899,1.9175971319593175,0.0
1900,2.2487220511149575,0.0
1901,5.902679570103009,0.0
1902,8.740263764208269,0.0
1903,1.199299672516259,0.0
1904,0.2154049277692509,0.0
1905,3.5313651430264095,0.0
1906,1.0386980713945997,0.0
1907,2.1250065324136407,0.0
1908,1.911982316371474,0.0
1909,2.0427398601423956,0.0
1910,1.9816812623712745,0.0
1911,1.8959556573475058,0.0
1912,1.8334648655081183,0.0
1913,1.962175761271586,0.0
1914,1.9117327461261437,0.0
1915,1.8681487461562019,0.0
1916,1.9756544381844772,0.0
1917,1.9083610410070297,0.0
1918,1.7996412196323697,0.0
1919,1.9528307355506038,0.0
1920,2.22073697481815,0.0
1921,5.84583017632227,0.0
1922,8.568576831244718,0.0
1923,1.094040846449228,0.0
1924,0.26643328000104916,0.0
1925,3.606026856502774,0.0
1926,1.1996291666731018,0.0
1927,2.1347069977640287,0.0
1928,2.0265677121768935,0.0
1929,1.920789947072071,0.0
1930,2.0528275999710286,0.0
1931,1.9498082220274047,0.0
1932,1.8710780742707223,0.0
1933,1.8881212243728167,0.0
1934,1.9379022022223968,0.0
1935,1.8943573359905808,0.0
1936,2.021717725359394,0.0
1937,1.845035667223207,0.0
1938,1.8267320801924956,0.0
1939,1.9125117435998096,0.0
1940,2.2766161717224183,0.0
1941,5.7006764014584235,0.0
1942,8.676236505612122,0.0
1943,1.077187615036085,0.0
1944,0.1097895125987669,0.0
1945,3.299105755476223,0.0
1946,0.9371381909072849,0.0
1947,1.9559104881623197,0.0
1948,1.8478113000785805,0.0
1949,1.703797102233788,0.0
1950,1.8905713392616803,0.0
1951,1.8054666557983268,0.0
1952,1.7891733349752945,0.0
1953,1.8373885423462197,0.0
1954,1.7543461464596477,0.0
1955,1.7386290880653639,0.0
1956,1.918052365546522,0.0
1957,1.8333088290408064,0.0
1958,1.811687761281153,0.0
1959,1.9263021284014517,0.0
1960,2.2956299014438555,0.0
1961,5.770816800084739,0.0
1962,8.362453855156522,0.0
1963,0.9281316162412583,0.0
1964,0.1207352884015831,0.0
1965,3.280332153984511,0.0
1966,1.1575848126945054,0.0
1967,2.017729722706499,0.0
1968,1.761185113313514,0.0
1969,1.7594524039277173,0.0
1970,1.8784347001418171,0.0
1971,1.7479481268138004,0.0
1972,1.8540950985228257,0.0
1973,1.751162788886008,0.0
1974,1.8154620458195616,0.0
1975,1.7133105177981036,0.0
1976,1.8948959262378107,0.0
1977,1.9151112527307699,0.0
1978,1.8503481383871525,0.0
1979,1.77030305801399,0.0
1980,2.0791449106931847,0.0
1981,5.586828076964831,0.0
1982,8.590428604919842,0.0
1983,0.9066254363482681,0.0
1984,0.24127166961256052,0.0
1985,3.2224396408597116,0.0
1986,0.9849728267233336,0.0
1987,1.91113859536239,0.0
1988,1.8765428186479554,0.0
1989,1.7915891323877617,0.0
1990,1.6388879166219148,0.0
1991,1.7998727342993845,0.0
1992,1.6814724715420282,0.0
1993,1.8903129938690604,0.0
1994,1.7332777493647742,0.0
1995,1.773301373310741,0.0
1996,1.7416290079870853,0.0
1997,1.669810392769055,0.0
1998,1.8179813990053382,0.0
1999,1.620072611753314,0.0
2000,2.217430300723022,0.0
2001,5.5988220966329445,0.0
2002,8.428110803259719,0.0
2003,0.9004776947920745,0.0
2004,0.03469955274971759,0.0
2005,3.2726009373294587,0.0
2006,0.9877717276128078,0.0
2007,1.868358975610061,0.0
2008,1.7228617410355824,0.0
2009,1.7935453442011373,0.0
2010,1.7035291637094379,0.0
2011,1.6491111230770814,0.0
2012,1.7442556497859316,0.0
2013,1.5872108747143105,0.0
2014,1.7371357298065766,0.0
2015,1.7601550691830654,0.0
2016,1.704637003399205,0.0
2017,1.573051072637749,0.0
2018,1.7034768201878172,0.0
2019,1.6420991795659137,0.0
2020,2.0213966141534425,0.0
2021,5.54650560211369,0.0
2022,8.461019975535606,0.0
2023,0.8924617919705957,0.0
2024,-0.029571084974880923,0.0
2025,3.0576147375036555,0.0
2026,0.8654918329037888,0.0
2027,1.744010680505731,0.0
2028,1.5269780284652015,0.0
2029,1.5664967147006665,0.0
2030,1.7705408387524033,0.0
2031,1.4714904596746758,0.0
2032,1.5780582515958645,0.0
2033,1.6693272054649326,0.0
2034,1.694824682341228,0.0
2035,1.596521910021694,0.0
2036,1.7796043397119026,0.0
2037,1.6475139853167196,0.0
2038,1.6720741150439817,0.0
2039,1.6279420215637563,0.0
2040,2.076454915270288,0.0
2041,5.495376799948672,0.0
2042,8.279269199039026,0.0
2043,0.7740851380010694,0.0
2044,-0.028640705693045998,0.0
2045,3.2248606931567068,0.0
2046,0.8452554494818643,0.0
2047,1.7766734889779665,0.0
2048,1.7489571110953739,0.0
2049,1.4924570285487513,0.0
2050,1.5948607657964746,0.0
2051,1.6363429659215032,0.0
2052,1.5999244757614035,0.0
2053,1.6407664438467542,0.0
2054,1.5742382527615848,0.0
2055,1.6220917742135665,0.0
2056,1.5536896243755511,0.0
2057,1.5729233088939854,0.0
2058,1.5760549543985158,0.0
2059,1.5779329865916034,0.0
2060,1.88018966935346,0.0
2061,5.535997963289581,0.0
2062,8.346774005538617,0.0
2063,0.6664992831273248,0.0
2064,-0.16346987719673156,0.0
2065,3.08174643424004,0.0
2066,0.6545672126521126,0.0
2067,1.4979585492554588,0.0
2068,1.5535795087417434,0.0
2069,1.6021621237396704,0.0
2070,1.6347367155244852,0.0
2071,1.5918931697315177,0.0
2072,1.554444960468254,0.0
2073,1.4390593434881802,0.0
2074,1.608203070110656,0.0
2075,1.5350364585338447,0.0
2076,1.5431895599851586,0.0
2077,1.494892135202164,0.0
2078,1.377543509675963,0.0
2079,1.4873433279490524,0.0
2080,2.051047167939725,0.0
2081,5.471931121919664,0.0
2082,8.249204097511036,0.0
2083,0.7658726767454633,0.0
2084,-0.07971910843947638,0.0
2085,3.0262533366062376,0.0
2086,0.6926145646782932,0.0
2087,1.8313832253694278,0.0
2088,1.6676471753674071,0.0
2089,1.5030898100328691,0.0
2090,1.4916968203173573,0.0
2091,1.5886281928519188,0.0
2092,1.4560616916575895,0.0
2093,1.4805253328873063,0.0
2094,1.4832075858793523,0.0
2095,1.5113689938261574,0.0
2096,1.542035863846529,0.0
2097,1.5584914279764104,0.0
2098,1.5065555227045004,0.0
2099,1.4465702935548188,0.0
2100,1.8466477071227916,0.0
2101,5.4503286672333395,0.0
2102,8.25689171120353,0.0
2103,0.5900153787758046,0.0
2104,-0.1633480551059734,0.0
2105,2.780180337413579,0.0
2106,0.6882685689310392,0.0
2107,1.5339632676756494,0.0
2108,1.5054548645930248,0.0
2109,1.3519851777352463,0.0
2110,1.432329790620345,0.0
2111,1.450705071619169,0.0
2112,1.3506795532309444,0.0
2113,1.3926346597003876,0.0
2114,1.4019552276972547,0.0
2115,1.4079004277978395,0.0
2116,1.29997653988477,0.0
2117,1.1995865527049234,0.0
2118,1.378796764425221,0.0
2119,1.3529369112066263,0.0
2120,1.6315433371027774,0.0
2121,5.307020713457532,0.0
2122,8.105139019067533,0.0
2123,0.5631571904167634,0.0
2124,-0.1759783947557383,0.0
2125,2.773587091666829,0.0
2126,0.48051086234749896,0.0
2127,1.5395289539244097,0.0
2128,1.503140436736239,0.0
2129,1.4150641579951464,0.0
2130,1.2989797182672556,0.0
2131,1.3610621391174424,0.0
2132,1.3874301216523357,0.0
2133,1.3983757972843043,0.0
2134,1.2872379905880285,0.0
2135,1.2267756260865597,0.0
2136,1.308294793535159,0.0
2137,1.303300027476928,0.0
2138,1.2877695048823015,0.0
2139,1.2886958526591743,0.0
2140,1.5945795700478262,0.0
2141,5.236456268813249,0.0
2142,7.992158163204123,0.0
2143,0.350788015731746,0.0
2144,-0.17040842535107403,0.0
2145,2.808948453546721,0.0
2146,0.5672130457959537,0.0
2147,1.5086496524278095,0.0
2148,1.1826575765706668,0.0
2149,1.2091659183166974,0.0
2150,1.2540074829118155,0.0
2151,1.2189661252679533,0.0
2152,1.221985846185861,0.0
2153,1.2631076015003244,0.0
2154,1.4199049430134916,0.0
2155,1.2625552268790567,0.0
2156,1.205188932043449,0.0
2157,1.35678151666823,0.0
2158,1.2998443786937663,0.0
2159,1.2535192499907017,0.0
2160,1.7037779872159171,0.0
2161,5.203773623613278,0.0
2162,7.82725208094022,0.0
2163,0.49982835291049166,0.0
2164,-0.2619506809153225,0.0
2165,2.80098318697116,0.0
2166,0.5395455913175543,0.0
2167,1.369822043598457,0.0
2168,1.2268459150931783,0.0
2169,1.171295696697321,0.0
2170,1.4116298687724882,0.0
2171,1.2216504832878885,0.0
2172,1.2046450322404296,0.0
2173,1.380696616461332,0.0
2174,1.2052029783094491,0.0
2175,1.2359611114641753,0.0
2176,1.3359185067953936,0.0
2177,1.2080394138703536,0.0
2178,1.2895589169932924,0.0
2179,1.3216246321814742,0.0
2180,1.6587476980147218,0.0
2181,5.169206874852133,0.0
2182,7.912225716597572,0.0
2183,0.30589068204093484,0.0
2184,-0.32555155847339146,0.0
2185,2.6415790918961295,0.0
2186,0.3741703052197294,0.0
2187,1.4712474378312073,0.0
2188,1.1819781725029168,0.0
2189,1.1773285143800165,0.0
2190,1.143906475861888,0.0
2191,1.1538936412377598,0.0
2192,1.273394311523367,0.0
2193,1.2376569869845888,0.0
2194,1.2898027939013421,0.0
2195,1.1799256283085635,0.0
2196,1.1247687010627632,0.0
2197,1.039782256118339,0.0
2198,1.1750760001708627,0.0
2199,1.1166061912598382,0.0
2200,1.4408713964367172,0.0
2201,5.18617733176959,0.0
2202,7.803227210032093,0.0
2203,0.28820673901736193,0.0
2204,-0.5389379444705265,0.0
2205,2.5180891410452046,0.0
2206,0.46326004096641005,0.0
2207,1.4107055900329313,0.0
2208,1.1538820809237633,0.0
2209,1.0348298217430392,0.0
2210,1.2717578306215442,0.0
2211,1.031770936457607,0.0
2212,1.1107052213058175,0.0
2213,1.1309695681104648,0.0
2214,1.1185410661094344,0.0
2215,1.1870147220878375,0.0
2216,1.150180937697846,0.0
2217,1.1832818906324343,0.0
2218,1.2880396209437412,0.0
2219,1.045920342694299,0.0
2220,1.5159987988477237,0.0
2221,5.1242658694188155,0.0
2222,7.849243309698409,0.0
2223,0.27005545571785583,0.0
2224,-0.45220860806735086,0.0
2225,2.769625809437143,0.0
2226,0.37697944468516786,0.0
2227,1.451719121258978,0.0
2228,1.1834514673577012,0.0
2229,1.1814245243379518,0.0
2230,1.2647478853615692,0.0
2231,1.1755489207488967,0.0
2232,1.1188095195857375,0.0
2233,1.2271125316044138,0.0
2234,1.2537380200046335,0.0
2235,1.2075089804012549,0.0
2236,1.070691765293279,0.0
2237,1.1764799344799064,0.0
2238,1.2021831230406923,0.0
2239,1.0649726843720493,0.0
2240,1.4876424595039779,0.0
2241,4.93365862416317,0.0
2242,7.735945723554231,0.0
2243,0.2928292839002815,0.0
2244,-0.6081208440379572,0.0
2245,2.5046685830817026,0.0
2246,0.48804168218106814,0.0
2247,1.3505731820838656,0.0
2248,1.207269446240392,0.0
2249,1.0203347356799177,0.0
2250,1.130593913295139,0.0
2251,1.1075081567739247,0.0
2252,1.0099261823389416,0.0
2253,1.1394414356201663,0.0
2254,1.1003753478384315,0.0
2255,1.1182101323662694,0.0
2256,0.9627694052489127,0.0
2257,1.12869012969283,0.0
2258,1.0943719337033717,0.0
2259,1.1524503866996663,0.0
2260,1.5597190803495862,0.0
2261,5.0381700267247975,0.0
2262,7.811573022469432,0.0
2263,0.27144224886017265,0.0
2264,-0.4556498074571973,0.0
2265,2.601602541934363,0.0
2266,0.30328154579757394,0.0
2267,1.3606990450898941,0.0
2268,1.1749043711868716,0.0
2269,1.1866542516994691,0.0
2270,1.065487463987614,0.0
2271,1.2063001432275695,0.0
2272,1.219425154105829,0.0
2273,1.1418010002204093,0.0
2274,1.1049987956656895,0.0
2275,1.061436358861114,0.0
2276,1.0391561276310617,0.0
2277,0.9551207097610104,0.0
2278,0.9926460590924243,0.0
2279,1.0493394497549413,0.0
2280,1.370194767012469,0.0
2281,4.878865575675475,0.0
2282,7.765734897854842,0.0
2283,0.22771011512943162,0.0
2284,-0.4665191504558368,0.0
2285,2.4293901743079624,0.0
2286,0.37028312100707284,0.0
2287,1.218506717217853,0.0
2288,1.1804458504453124,0.0
2289,1.0163960265674772,0.0
2290,0.9488575686909718,0.0
2291,1.0555791589790018,0.0
2292,0.9588029783619687,0.0
2293,0.9823934957987339,0.0
2294,0.9871977483011094,0.0
2295,1.1245057171459956,0.0
2296,1.0562627938180558,0.0
2297,1.2526567956991574,0.0
2298,1.055072251658313,0.0
2299,1.0662747274154283,0.0
2300,1.3401634743175261,0.0
2301,4.927910561850808,0.0
2302,7.717620110480795,0.0
2303,0.16485559271430628,0.0
2304,-0.5965405497249512,0.0
2305,2.575084320102823,0.0
2306,0.25548230650372783,0.0
2307,1.402330658643222,0.0
2308,1.1282727740654273,0.0
2309,1.152968222792595,0.0
2310,1.0059437548924797,0.0
2311,1.1698607318648504,0.0
2312,1.1326123526903054,0.0
2313,0.9729562808182564,0.0
2314,1.082562961940862,0.0
2315,0.972007630346964,0.0
2316,1.05166901448581,0.0
2317,1.0619340052645916,0.0
2318,0.9753161262158481,0.0
2319,0.8159879168876344,0.0
2320,1.2258279980638311,0.0
2321,4.956781395127856,0.0
2322,7.565114060908934,0.0
2323,0.12307137998931605,0.0
2324,-0.5917910277246443,0.0
2325,2.2617682388498537,0.0
2326,0.2014515056089784,0.0
2327,1.1997649170522624,0.0
2328,1.027403404142741,0.0
2329,0.9513978244329095,0.0
2330,0.8594584239871014,0.0
2331,0.9614174236448394,0.0
2332,0.9034383153736807,0.0
2333,0.8766756238945123,0.0
2334,0.9880622198090488,0.0
2335,1.068344089420189,0.0
2336,0.9632623095297841,0.0
2337,1.0690832421592633,0.0
2338,0.9405549567780347,0.0
2339,1.1242618822210824,0.0
2340,1.2835412735836256,0.0
2341,4.833457751202413,0.0
2342,7.579418653169852,0.0
2343,0.08601145681926192,0.0
2344,-0.7400778520926738,0.0
2345,2.3329481969779917,0.0
2346,0.07197949193379982,0.0
2347,1.0567170351002004,0.0
2348,0.9414050928902691,0.0
2349,0.9512781385496668,0.0
2350,0.8761726045578248,0.0
2351,0.8345026301130423,0.0
2352,0.9376493182054981,0.0
2353,0.8271604185280378,0.0
2354,0.8550686392122605,0.0
2355,0.928286784091676,0.0
2356,0.8808237388552385,0.0
2357,0.8218111174174852,0.0
2358,0.8837633985260966,0.0
2359,0.8995520457188863,0.0
2360,1.1823852279667408,0.0
2361,4.823362401018694,0.0
2362,7.651864631400288,0.0
2363,0.06360320365886885,0.0
2364,-0.7121630329497832,0.0
2365,2.3717930016275335,0.0
2366,0.1790828713307211,0.0
2367,1.0664294909739416,0.0
2368,0.8428191410500915,0.0
2369,0.8892875702856801,0.0
2370,0.8255119269948624,0.0
2371,0.9147083744662671,0.0
2372,0.9612661293159709,0.0
2373,0.8044420682361932,0.0
2374,0.7737248185109783,0.0
2375,0.5929954131306483,0.0
2376,0.9986146303478197,0.0
2377,0.9227167916961403,0.0
2378,0.6697594960537314,0.0
2379,0.8067428822542853,0.0
2380,1.2774795927698985,0.0
2381,4.635642473079854,0.0
2382,7.543563286627092,0.0
2383,0.018884790265996654,0.0
2384,-0.7517813081098663,0.0
2385,2.366547274358051,0.0
2386,-0.06793811618125045,0.0
2387,1.0580198886710686,0.0
2388,0.8267564214652517,0.0
2389,0.6911535929943897,0.0
2390,0.7542441788544487,0.0
2391,0.7247481204831233,0.0
2392,0.6360316839731985,0.0
2393,0.894294424040303,0.0
2394,0.7296706570086504,0.0
2395,0.7303871222209818,0.0
2396,0.7331151393285227,0.0
2397,0.7329607772405478,0.0
2398,0.5618510882748355,0.0
2399,0.7620306833918838,0.0
2400,1.1258555946485078,0.0
2401,4.7903992727064395,0.0
2402,7.460426075210088,0.0
2403,-0.03954342801495703,0.0
2404,-0.7265542275995934,0.0
2405,2.277370152423404,0.0
2406,-0.0214965059967569,0.0
2407,0.997161686200918,0.0
2408,0.5354445175103674,0.0
2409,0.6782431918143008,0.0
2410,0.7517764618949424,0.0
2411,0.7833346834979338,0.0
2412,0.6558162962437114,0.0
2413,0.7347051299832584,0.0
2414,0.6545261367077166,0.0
2415,0.7157575380455253,0.0
2416,0.8975460839042126,0.0
2417,0.7257257236676916,0.0
2418,0.7472448434470907,0.0
2419,0.7066498408843653,0.0
2420,1.0661886351099013,0.0
2421,4.768257155454859,0.0
2422,7.4380904047567,0.0
2423,-0.164091579808892,0.0
2424,-0.7723517967243446,0.0
2425,2.2781638835863305,0.0
2426,-0.04462627314507073,0.0
2427,0.9870202081104951,0.0
2428,0.6983483088573296,0.0
2429,0.7662686640367627,0.0
2430,0.6803924654173752,0.0
2431,0.5674628033586265,0.0
2432,0.7045869898615711,0.0
2433,0.7327858001049901,0.0
2434,0.6664292721504831,0.0
2435,0.7050305765806328,0.0
2436,0.8434899138817921,0.0
2437,0.7364128444099443,0.0
2438,0.7076342343434705,0.0
2439,0.6441434542116805,0.0
2440,0.9420899651360028,0.0
2441,4.598846417646674,0.0
2442,7.3847488846905165,0.0
2443,-0.19938545584145984,0.0
2444,-0.7733361575439647,0.0
2445,2.138500449580378,0.0
2446,-0.021617897348650494,0.0
2447,0.9479989265426633,0.0
2448,0.8008608156541959,0.0
2449,0.5764766174289323,0.0
2450,0.7576271204861692,0.0
2451,0.8476790200320705,0.0
2452,0.691488591639914,0.0
2453,0.8203243371990512,0.0
2454,0.7362016741065242,0.0
2455,0.6011098973632871,0.0
2456,0.7244250864075382,0.0
2457,0.5104335239060921,0.0
2458,0.6045856822378187,0.0
2459,0.6254453078101301,0.0
2460,1.0863036619406203,0.0
2461,4.583347201953382,0.0
2462,7.318434213174484,0.0
2463,-0.33769783253469077,0.0
2464,-0.8837361998113076,0.0
2465,2.0668889952787355,0.0
2466,-0.13082748189668691,0.0
2467,0.8017070986283044,0.0
2468,0.4707219887993818,0.0
2469,0.5047576823831705,0.0
2470,0.6592572232338317,0.0
2471,0.45357286660295687,0.0
2472,0.5639304239773226,0.0
2473,0.525149296558583,0.0
2474,0.5667429910089481,0.0
2475,0.5110794684376166,0.0
2476,0.5793181436950844,0.0
2477,0.6192190744355112,0.0
2478,0.7379422996635068,0.0
2479,0.5275143662146495,0.0
2480,0.9287926613327546,0.0
2481,4.6023929048734225,0.0
2482,7.203400522633966,0.0
2483,-0.24234396714829787,0.0
2484,-0.9101991818853334,0.0
2485,2.035559488332183,0.0
2486,-0.2760873410974811,0.0
2487,0.701589664934801,0.0
2488,0.4986913020552161,0.0
2489,0.5873959317234423,0.0
2490,0.556059803391859,0.0
2491,0.6119925724917464,0.0
2492,0.5402678597400182,0.0
2493,0.5209294146031993,0.0
2494,0.5291798304473492,0.0
2495,0.5075813602927882,0.0
2496,0.5976137245114951,0.0
2497,0.4878302832325625,0.0
2498,0.4857856395248674,0.0
2499,0.7078780624669333,0.0
2500,0.8382225392398848,0.0
2501,4.5746376469434,0.0
2502,7.138162478154365,0.0
2503,-0.4780468105454333,0.0
2504,-1.0970648215620336,0.0
2505,2.015092360901879,0.0
2506,-0.2814062306297158,0.0
2507,0.7449824931236158,0.0
2508,0.56591551607475,0.0
2509,0.5101246023375194,0.0
2510,0.6078239425790639,0.0
2511,0.5558445698941283,0.0
2512,0.49792342246593546,0.0
2513,0.5318152568728639,0.0
2514,0.5244198211156219,0.0
2515,0.4523914553019358,0.0
2516,0.6713707519721983,0.0
2517,0.5883001046013843,0.0
2518,0.6149146288449907,0.0
2519,0.5928215443645486,0.0
2520,0.9515499638196849,0.0
2521,4.425192524228407,0.0
2522,7.169348415575404,0.0
2523,-0.4167214472895643,0.0
2524,-0.987726151312813,0.0
2525,1.9658921217067995,0.0
2526,-0.25291545844644425,0.0
2527,0.7319437392665756,0.0
2528,0.4180543756254209,0.0
2529,0.39480819450891624,0.0
2530,0.365731533320875,0.0
2531,0.4787567825851248,0.0
2532,0.5353381104635968,0.0
2533,0.49404521706953386,0.0
2534,0.49811953679518317,0.0
2535,0.5297999564099821,0.0
2536,0.43956199104434357,0.0
2537,0.5068954017524345,0.0
2538,0.4426684370746896,0.0
2539,0.5105198330496528,0.0
2540,0.928555793763481,0.0
2541,4.437470805457662,0.0
2542,7.226051344132046,0.0
2543,-0.358332729597054,0.0
2544,-1.1024027355649582,0.0
2545,1.90983229202369,0.0
2546,-0.20039826807268502,0.0
2547,0.6660040786912617,0.0
2548,0.4303524612656133,0.0
2549,0.2809484443912249,0.0
2550,0.35528285433251067,0.0
2551,0.4797824981633974,0.0
2552,0.3755706788211894,0.0
2553,0.27455987065828474,0.0
2554,0.43462823974748616,0.0
2555,0.41793584145436974,0.0
2556,0.40428562645348376,0.0
2557,0.363680263122331,0.0
2558,0.5001034735822456,0.0
2559,0.4302498431289905,0.0
2560,0.9345294435533573,0.0
2561,4.403374163701053,0.0
2562,7.049790822497439,0.0
2563,-0.483862982705461,0.0
2564,-0.9855774613715627,0.0
2565,1.962659490712516,0.0
2566,-0.3659511632820444,0.0
2567,0.5910119761993319,0.0
2568,0.5240800652694757,0.0
2569,0.415276724078741,0.0
2570,0.47385637435524375,0.0
2571,0.4180246896894877,0.0
2572,0.48170820688910504,0.0
2573,0.2391616736358805,0.0
2574,0.29004322042399366,0.0
2575,0.3999506473911717,0.0
2576,0.46784416269531065,0.0
2577,0.60373668051538,0.0
2578,0.42061408259638944,0.0
2579,0.39720658128924663,0.0
2580,0.8129201660019626,0.0
2581,4.332687481070383,0.0
2582,7.072437927741367,0.0
2583,-0.599975812137375,0.0
2584,-1.1119782153779814,0.0
2585,1.9737190795509911,0.0
2586,-0.2820924286202532,0.0
2587,0.6572728664977395,0.0
2588,0.36111954337870306,0.0
2589,0.31405017161075643,0.0
2590,0.4191730052642977,0.0
2591,0.42403046177402043,0.0
2592,0.375009841365085,0.0
2593,0.31463580894204585,0.0
2594,0.22779402875774263,0.0
2595,0.5072812603025469,0.0
2596,0.43644206747565306,0.0
2597,0.40857647651658247,0.0
2598,0.33606382385522093,0.0
2599,0.3629589031643722,0.0
2600,0.8516075936237691,0.0
2601,4.4442182040864004,0.0
2602,7.048442353372772,0.0
2603,-0.5060072504095366,0.0
2604,-1.1527570864770642,0.0
2605,1.7331692977425979,0.0
2606,-0.3041224824961484,0.0
2607,0.5041300439013596,0.0
2608,0.4065087399695364,0.0
2609,0.5104353227437897,0.0
2610,0.3797771066968376,0.0
2611,0.40189450550690015,0.0
2612,0.38470524894645275,0.0
2613,0.2953218151879491,0.0
2614,0.3928233741735929,0.0
2615,0.34426675135396717,0.0
2616,0.35566464896610817,0.0
2617,0.2426438180073335,0.0
2618,0.2608434997417567,0.0
2619,0.23348573982422358,0.0
2620,0.7191025465601082,0.0
2621,4.158619515970392,0.0
2622,7.032343332488193,0.0
2623,-0.7436944401204886,0.0
2624,-1.1477598398174702,0.0
2625,1.6058554558809612,0.0
2626,-0.35620128713920196,0.0
2627,0.47140486508402946,0.0
2628,0.2823014742990515,0.0
2629,0.4057545924211546,0.0
2630,0.26503882463548384,0.0
2631,0.323753642414013,0.0
2632,0.3542379020426341,0.0
2633,0.34397688084635525,0.0
2634,0.3771981743027169,0.0
2635,0.3294174619918579,0.0
2636,0.327315716249188,0.0
2637,0.27960715653140844,0.0
2638,0.3937659164862649,0.0
2639,0.2888330630235277,0.0
2640,0.6538664069142994,0.0
2641,4.308825687097411,0.0
2642,6.915718826390474,0.0
2643,-0.7168966303323281,0.0
2644,-1.248233489749508,0.0
2645,1.7382795953216879,0.0
2646,-0.4732151368781612,0.0
2647,0.4244166730219942,0.0
2648,0.42069603607069106,0.0
2649,0.38806869989607085,0.0
2650,0.3839475503556651,0.0
2651,0.28454644079933544,0.0
2652,0.2627949158582087,0.0
2653,0.22104045502624653,0.0
2654,0.3402009296750083,0.0
2655,0.33482943329040266,0.0
2656,0.31829891281319983,0.0
2657,0.29043520758393854,0.0
2658,0.2811588167302777,0.0
2659,0.1952021920337805,0.0
2660,0.5850498160351862,0.0
2661,4.209723999940685,0.0
2662,6.993753245613656,0.0
2663,-0.6279612801881386,0.0
2664,-1.2445578148525387,0.0
2665,1.761804688416354,0.0
2666,-0.5411599277208575,0.0
2667,0.48826783741133317,0.0
2668,0.28738900566028847,0.0
2669,0.4102757295807501,0.0
2670,0.29534068257344764,0.0
2671,0.35255001400605357,0.0
2672,0.236001775421327,0.0
2673,0.3299707516569166,0.0
2674,0.30215246568476345,0.0
2675,0.22830084073691115,0.0
2676,0.2795335919275466,0.0
2677,0.3452574549558576,0.0
2678,0.23120025984895548,0.0
2679,0.28467551031492794,0.0
2680,0.756677624973281,0.0
2681,4.320551694410799,0.0
2682,7.020235373175465,0.0
2683,-0.8682018385862083,0.0
2684,-1.2614398814040242,0.0
2685,1.5518446788710196,0.0
2686,-0.5092499251256707,0.0
2687,0.4999777851057317,0.0
2688,0.3068967108157118,0.0
2689,0.17612623665630886,0.0
2690,0.2106845558001419,0.0
2691,0.18974646432748374,0.0
2692,0.18353153007468484,0.0
2693,0.3810555445322718,0.0
2694,0.3229727116065666,0.0
2695,0.21932023051748098,0.0
2696,0.22022764417009344,0.0
2697,0.1953392767479097,0.0
2698,0.08160733859271932,0.0
2699,0.12724316780983902,0.0
2700,0.4928417640597047,0.0
2701,3.9340402405094115,0.0
2702,6.775351716153966,0.0
2703,-0.7863658231454751,0.0
2704,-1.3980772455233903,0.0
2705,1.589466220804254,0.0
2706,-0.7125360743112049,0.0
2707,0.38613858369249354,0.0
2708,0.059699523800657996,0.0
2709,0.08562594084808947,0.0
2710,0.12435866436765687,0.0
2711,0.1329299710784589,0.0
2712,0.16914520679706976,0.0
2713,0.23155630821708356,0.0
2714,0.1415432391221754,0.0
2715,0.25180587170128,0.0
2716,0.3216791933391941,0.0
2717,0.1673340614011037,0.0
2718,0.15504748648360828,0.0
2719,0.18129245231574226,0.0
2720,0.6073473957583615,0.0
2721,4.140701463233668,0.0
2722,6.712403198258133,0.0
2723,-0.9258537428408065,0.0
2724,-1.555887392775481,0.0
2725,1.629114713600584,0.0
2726,-0.651313865587766,0.0
2727,0.27005332509513846,0.0
2728,0.27072339049831273,0.0
2729,0.12163006457569937,0.0
2730,0.05433014805103721,0.0
2731,0.011680856506460068,0.0
2732,0.2099752742776645,0.0
2733,0.17169855953155103,0.0
2734,0.10979435212243842,0.0
2735,0.20924412703485387,0.0
2736,0.15532549595436265,0.0
2737,0.11115295706229382,0.0
2738,0.14633779222221865,0.0
2739,0.058764108221658264,0.0
2740,0.4926137222862582,0.0
2741,4.124502967564914,0.0
2742,6.696040253395989,0.0
2743,-0.9145669701726695,0.0
2744,-1.43651699059753,0.0
2745,1.5045023472739374,0.0
2746,-0.5308474733494661,0.0
2747,0.25914558197554044,0.0
2748,0.00022871685384498464,0.0
2749,0.1387544106188301,0.0
2750,0.08101907388266912,0.0
2751,0.06964165429460814,0.0
2752,0.13922726131388036,0.0
2753,0.09052889659597124,0.0
2754,0.05270929179420378,0.0
2755,0.13986830754099755,0.0
2756,0.11201541711445337,0.0
2757,0.0513340024497254,0.0
2758,0.022158804472459936,0.0
2759,-0.0740646149460425,0.0
2760,0.479163067267789,0.0
2761,3.9479284689930028,0.0
2762,6.734793441924949,0.0
2763,-0.9531599336710624,0.0
2764,-1.4072372808467863,0.0
2765,1.4136912613808519,0.0
2766,-0.7782648083673462,0.0
2767,0.19833989337796393,0.0
2768,-0.052086389799695036,0.0
2769,0.07171173228885597,0.0
2770,0.10232498803022094,0.0
2771,0.03015680069290627,0.0
2772,0.018600527251105725,0.0
2773,0.021342936511445962,0.0
2774,-0.11166786754727881,0.0
2775,-0.07113305907217449,0.0
2776,0.054310526841010995,0.0
2777,-0.1224273029186448,0.0
2778,0.10054283453164799,0.0
2779,0.0698100782983795,0.0
2780,0.44633461964582044,0.0
2781,4.00978227363455,0.0
2782,6.735653011123547,0.0
2783,-0.9855564908557083,0.0
2784,-1.4107595547993543,0.0
2785,1.4772339988107042,0.0
2786,-0.7352937079147999,0.0
2787,0.3152818060846949,0.0
2788,0.014897381425827305,0.0
2789,-0.10898952234733748,0.0
2790,-0.016401938568226464,0.0
2791,-0.09421359730452242,0.0
2792,-0.08354276314444282,0.0
2793,0.09801277215746872,0.0
2794,0.059819579464791064,0.0
2795,-0.03796680287454889,0.0
2796,-0.06171740141694136,0.0
2797,0.0514151409549191,0.0
2798,-0.14874709676135256,0.0
2799,0.020217694423223506,0.0
2800,0.29503830375814594,0.0
2801,4.033228110926275,0.0
2802,6.497419950138253,0.0
2803,-1.1687749353074037,0.0
2804,-1.516122130611131,0.0
2805,1.3953781105502103,0.0
2806,-0.7545696319130818,0.0
2807,0.09242388957535402,0.0
2808,-0.1299693090567028,0.0
2809,-0.14976406261993305,0.0
2810,-0.07900877593183198,0.0
2811,-0.13562992644878263,0.0
2812,-0.05658221560085579,0.0
2813,-0.1483035778803157,0.0
2814,-0.051311598499256435,0.0
2815,-0.21169355926301667,0.0
2816,-0.12476195864147255,0.0
2817,-0.08122237714951469,0.0
2818,-0.13469729595774138,0.0
2819,0.0032257061937283962,0.0
2820,0.30849053659737835,0.0
2821,3.9246256288630073,0.0
2822,6.5685461009474535,0.0
2823,-0.9277867098989723,0.0
2824,-1.4996945000747417,0.0
2825,1.327119535656851,0.0
2826,-0.924773834423045,0.0
2827,0.07858941433866537,0.0
2828,-0.08411364744761057,0.0
2829,-0.12168263715636074,0.0
2830,-0.19195359607046264,0.0
2831,-0.10823006000590606,0.0
2832,-0.1240350605332892,0.0
2833,-0.16143038523568243,0.0
2834,-0.1829091320503674,0.0
2835,-0.0829569679970929,0.0
2836,-0.12305876103002651,0.0
2837,-0.09319018627176182,0.0
2838,-0.05519620778427491,0.0
2839,-0.045240139988675876,0.0
2840,0.31222362333137177,0.0
2841,4.009786378976728,0.0
2842,6.595576219047364,0.0
2843,-1.0143678392690243,0.0
2844,-1.5512586102328147,0.0
2845,1.4019876087815286,0.0
2846,-0.8634242767620902,0.0
2847,0.1216050124230191,0.0
2848,-0.030303250689008007,0.0
2849,-0.1968870656577747,0.0
2850,-0.10566366395168907,0.0
2851,-0.12403989517513839,0.0
2852,-0.12043696981826046,0.0
2853,-0.040442472113894,0.0
2854,0.0022297301654549545,0.0
2855,-0.1559555610292616,0.0
2856,-0.12924307987220418,0.0
2857,-0.12166743705603249,0.0
2858,-0.17471987723123253,0.0
2859,-0.2491885667006361,0.0
2860,0.3158955464359563,0.0
2861,3.805018766600695,0.0
2862,6.522561925861853,0.0
2863,-1.2487183556347732,0.0
2864,-1.6445485778850126,0.0
2865,1.3739621890729508,0.0
2866,-0.9822950693893416,0.0
2867,0.16235866600272042,0.0
2868,-0.08612263071811516,0.0
2869,-0.10155442821481575,0.0
2870,-0.026487183836196096,0.0
2871,0.022995714999874295,0.0
2872,-0.21941789400218717,0.0
2873,-0.13002356698047726,0.0
2874,-0.04296946751978923,0.0
2875,-0.10694731035050452,0.0
2876,-0.10379937014085096,0.0
2877,-0.12180823945838593,0.0
2878,0.068180610093492,0.0
2879,-0.04175604392937692,0.0
2880,0.21576882475897738,0.0
2881,3.942672577465597,0.0
2882,6.436810415891955,0.0
2883,-1.2124444144259,0.0
2884,-1.5565133104104676,0.0
2885,1.260678303920585,0.0
2886,-1.090038478176767,0.0
2887,-0.11255884288608811,0.0
2888,-0.223939195822836,0.0
2889,-0.12046402132999694,0.0
2890,-0.12078029498163961,0.0
2891,-0.19667755371700554,0.0
2892,-0.14687892973646788,0.0
2893,-0.24978675971831066,0.0
2894,-0.09157513283513893,0.0
2895,-0.15253217108940628,0.0
2896,-0.1122894560842845,0.0
2897,-0.21943658602213253,0.0
2898,-0.21779651439844597,0.0
2899,-0.16753951495106634,0.0
2900,0.13392225710696243,0.0
2901,3.923334453774094,0.0
2902,6.37168107170724,0.0
2903,-1.1182528781413636,0.0
2904,-1.6032548931672714,0.0
2905,1.2900735742153486,0.0
2906,-0.9512470719786209,0.0
2907,-0.014899033476577256,0.0
2908,-0.23753651416709293,0.0
2909,-0.12639283756645836,0.0
2910,-0.25832299177715,0.0
2911,-0.18737051846817404,0.0
2912,-0.13294329077354902,0.0
2913,-0.12547819625436035,0.0
2914,-0.18132088052636097,0.0
2915,-0.07437118241417762,0.0
2916,-0.13581367939535255,0.0
2917,-0.2057316976121354,0.0
2918,-0.32212684855798007,0.0
2919,-0.14303314601964584,0.0
2920,0.2488676565952081,0.0
2921,3.8476076626778513,0.0
2922,6.4351371124065455,0.0
2923,-1.2178227503128036,0.0
2924,-1.5760945188161424,0.0
2925,1.2402806474231043,0.0
2926,-1.0850834590893874,0.0
2927,0.05997342644762524,0.0
2928,-0.28657293946819556,0.0
2929,-0.04587815237609972,0.0
2930,0.0067888548174558465,0.0
2931,-0.23208449572773152,0.0
2932,-0.2085558247657353,0.0
2933,-0.35272580353468824,0.0
2934,-0.2960056429464673,0.0
2935,-0.20273469169813418,0.0
2936,-0.16367684210070874,0.0
2937,-0.07883214475837004,0.0
2938,-0.09296552270702543,0.0
2939,-0.143954805541055,0.0
2940,0.2816054818816326,0.0
2941,3.843570144428252,0.0
2942,6.448233377894942,0.0
2943,-1.2342651038468682,0.0
2944,-1.6504345556017,0.0
2945,1.164784049869017,0.0
2946,-0.9541158452807025,0.0
2947,0.13113026945572553,0.0
2948,-0.18150519694127223,0.0
2949,-0.21660259370013274,0.0
2950,-0.1565033183938885,0.0
2951,-0.15725283874490598,0.0
2952,-0.21027021367923138,0.0
2953,-0.14221533475465153,0.0
2954,-0.28775527749298885,0.0
2955,-0.21886337581898918,0.0
2956,-0.18842599239147842,0.0
2957,-0.2606654922604114,0.0
2958,-0.10495773613133032,0.0
2959,-0.2360185505061341,0.0
2960,0.3006496828442768,0.0
2961,3.7900006094744376,0.0
2962,6.359761973004981,0.0
2963,-1.2201183125188622,0.0
2964,-1.715447421292952,0.0
2965,1.2796731365952059,0.0
2966,-0.9006992512004639,0.0
2967,-0.05638736790595261,0.0
2968,-0.176907087395965,0.0
2969,-0.3903748043998738,0.0
2970,-0.2521605847551329,0.0
2971,-0.3376690424678781,0.0
2972,-0.3318096799319407,0.0
2973,-0.31224531536558114,0.0
2974,-0.3085505369722396,0.0
2975,-0.26510560685119594,0.0
2976,-0.3016844355507922,0.0
2977,-0.1760891238074392,0.0
2978,-0.15374899108069684,0.0
2979,-0.34157849485987923,0.0
2980,0.19420177034022662,0.0
2981,3.8417218118692102,0.0
2982,6.497782917651125,0.0
2983,-1.3000976464216927,0.0
2984,-1.7755996808201824,0.0
2985,1.1851077513041701,0.0
2986,-0.9418122399965109,0.0
2987,-0.044622195202748294,0.0
2988,-0.31744256066484333,0.0
2989,-0.33872714407695875,0.0
2990,-0.27887266169689595,0.0
2991,-0.26264288777367417,0.0
2992,-0.2537192497224301,0.0
2993,-0.3357060058658606,0.0
2994,-0.2507399533925772,0.0
2995,-0.16383481940438027,0.0
2996,-0.3930820359746309,0.0
2997,-0.14686199777701014,0.0
2998,-0.1560001834656669,0.0
2999,-0.18674911089280657,0.0
3000,0.1872986732234811,0.0
3001,3.7132442770126692,0.0
3002,6.336537006344416,0.0
3003,-1.3536536389032725,0.0
3004,-1.6107947953401804,0.0
3005,1.070492647436526,0.0
3006,-1.1727770087818308,0.0
3007,-0.0686937679789309,0.0
3008,-0.364425647755431,0.0
3009,-0.3846745580802416,0.0
3010,-0.31956199188940515,0.0
3011,-0.2520180565597893,0.0
3012,-0.2629994724676959,0.0
3013,-0.2584917176371246,0.0
3014,-0.2773829457241262,0.0
3015,-0.20279862800523954,0.0
3016,-0.2516847726826935,0.0
3017,-0.29111321364913556,0.0
3018,-0.14006827435421854,0.0
3019,-0.14944721723797783,0.0
3020,0.19019587426225082,0.0
3021,3.805667798600494,0.0
3022,6.466643841675489,0.0
3023,-1.1346234881648942,0.0
3024,-1.6732372665589772,0.0
3025,1.1660845704080205,0.0
3026,-1.069703485771266,0.0
3027,-0.15392370736154243,0.0
3028,-0.053818853268357385,0.0
3029,-0.36327243274771004,0.0
3030,-0.360942108858819,0.0
3031,-0.30661923994712736,0.0
3032,-0.46154529616021145,0.0
3033,-0.2729102949853754,0.0
3034,-0.4067526007673998,0.0
3035,-0.32530118340275116,0.0
3036,-0.3897129803262626,0.0
3037,-0.43281333641500874,0.0
3038,-0.44459402214323407,0.0
3039,-0.37568141369409974,0.0
3040,0.1350395398165966,0.0
3041,3.731311110709962,0.0
3042,6.345236065871443,0.0
3043,-1.4246346512301438,0.0
3044,-1.7618429513172853,0.0
3045,0.9078800414255358,0.0
3046,-1.1372895602785313,0.0
3047,-0.06682996855237244,0.0
3048,-0.3982739022982076,0.0
3049,-0.3501203550418894,0.0
3050,-0.3383044288437275,0.0
3051,-0.4039063388133253,0.0
3052,-0.3593126482347427,0.0
3053,-0.4510518215570924,0.0
3054,-0.42350231770078456,0.0
3055,-0.2678266043776061,0.0
3056,-0.408945329792785,0.0
3057,-0.3796715869167518,0.0
3058,-0.40249795262167914,0.0
3059,-0.40252487327349795,0.0
3060,-0.0909252306072108,0.0
3061,3.5775771172451143,0.0
3062,6.316305119832822,0.0
3063,-1.557557926484399,0.0
3064,-1.7401268114899773,0.0
3065,0.9052585809739093,0.0
3066,-1.0441808908133612,0.0
3067,-0.15189129609425017,0.0
3068,-0.26912629590695253,0.0
3069,-0.3605430632664968,0.0
3070,-0.40495640000966693,0.0
3071,-0.34830301038977507,0.0
3072,-0.3409635791305472,0.0
3073,-0.4639825815097595,0.0
3074,-0.2952748763247648,0.0
3075,-0.4888298055959487,0.0
3076,-0.4801979785188431,0.0
3077,-0.49089535521009997,0.0
3078,-0.37836059699280616,0.0
3079,-0.3614231228044044,0.0
3080,-0.1151397513448345,0.0
3081,3.6745852879966625,0.0
3082,6.018685934450235,0.0
3083,-1.6637743416637543,0.0
3084,-1.8916292330949451,0.0
3085,1.0232389860344364,0.0
3086,-1.240363940486855,0.0
3087,-0.07163879191254291,0.0
3088,-0.6004937801707511,0.0
3089,-0.4911900611246327,0.0
3090,-0.5501316915929154,0.0
3091,-0.5040928899045456,0.0
3092,-0.5522583477654012,0.0
3093,-0.3306577428453168,0.0
3094,-0.5006015927775268,0.0
3095,-0.43886033479622666,0.0
3096,-0.4851966166482698,0.0
3097,-0.41622356387850923,0.0
3098,-0.504332509053175,0.0
3099,-0.597394209143801,0.0
3100,-0.1988376343867111,0.0
3101,3.4782076778320064,0.0
3102,6.155146840269481,0.0
3103,-1.6357273847484233,0.0
3104,-1.9851311110860035,0.0
3105,0.9004753320620238,0.0
3106,-1.2989062346885405,0.0
3107,-0.17057637415233193,0.0
3108,-0.4836950149461674,0.0
3109,-0.5675606189708776,0.0
3110,-0.372841827286348,0.0
3111,-0.48133877092661265,0.0
3112,-0.38341111368322184,0.0
3113,-0.46294899378364124,0.0
3114,-0.5122738758507368,0.0
3115,-0.48369535653289475,0.0
3116,-0.37654394593218343,0.0
3117,-0.4881374516253094,0.0
3118,-0.5729974018531787,0.0
3119,-0.4342393606271095,0.0
3120,0.012602445985894495,0.0
3121,3.4279555288286687,0.0
3122,6.166900558658502,0.0
3123,-1.6654240965873157,0.0
3124,-2.054486779564276,0.0
3125,0.8135175745180991,0.0
3126,-1.29586716015522,0.0
3127,-0.3273193659504562,0.0
3128,-0.4969958039604725,0.0
3129,-0.6772968152743308,0.0
3130,-0.40131471775400007,0.0
3131,-0.7047843207821037,0.0
3132,-0.639993758369387,0.0
3133,-0.47133680516792636,0.0
3134,-0.422317847772714,0.0
3135,-0.5782980850655779,0.0
3136,-0.4897138148295236,0.0
3137,-0.520324862205259,0.0
3138,-0.5556266565074635,0.0
3139,-0.46559176950469816,0.0
3140,0.010335221822227514,0.0
3141,3.466389215673593,0.0
3142,6.158200767825078,0.0
3143,-1.7034035370466247,0.0
3144,-2.001616777268005,0.0
3145,0.8780035382365973,0.0
3146,-1.2382372750382071,0.0
3147,-0.5152216825451146,0.0
3148,-0.513271086082819,0.0
3149,-0.5939636829289592,0.0
3150,-0.6555999264520443,0.0
3151,-0.48020995459117755,0.0
3152,-0.5339308546253311,0.0
3153,-0.5945493328763373,0.0
3154,-0.4562666090536218,0.0
3155,-0.5769557990892024,0.0
3156,-0.5622833018496192,0.0
3157,-0.5821658296622026,0.0
3158,-0.5956147338771497,0.0
3159,-0.505350388680438,0.0
3160,-0.18893278628971744,0.0
3161,3.5966089578793454,0.0
3162,6.045138133728651,0.0
3163,-1.6055811531080897,0.0
3164,-2.0788599409437856,0.0
3165,0.8429732512938307,0.0
3166,-1.4508846972715774,0.0
3167,-0.3612503778973141,0.0
3168,-0.5887966959831246,0.0
3169,-0.6600238789217265,0.0
3170,-0.6361767915562387,0.0
3171,-0.526922870793266,0.0
3172,-0.6298264818398368,0.0
3173,-0.6126522721291032,0.0
3174,-0.43416381268557824,0.0
3175,-0.5877377674015424,0.0
3176,-0.45249213162936036,0.0
3177,-0.4707925109651492,0.0
3178,-0.5755644593704866,0.0
3179,-0.4497328654349514,0.0
3180,-0.1379746976535785,0.0
3181,3.4921553310085467,0.0
3182,6.040339850868509,0.0
3183,-1.7442250436626239,0.0
3184,-1.9407056825114708,0.0
3185,0.9673291094139442,0.0
3186,-1.4784212147669096,0.0
3187,-0.34120665343755996,0.0
3188,-0.6041940401932392,0.0
3189,-0.6048248807668147,0.0
3190,-0.5207719880148838,0.0
3191,-0.6273780035930329,0.0
3192,-0.6341986785077075,0.0
3193,-0.6028702604649933,0.0
3194,-0.4605807926448692,0.0
3195,-0.6899850597361649,0.0
3196,-0.5295125585255581,0.0
3197,-0.5227014796523246,0.0
3198,-0.6165709368960023,0.0
3199,-0.46944942291526565,0.0
3200,-0.12999524516779992,0.0
3201,3.4944570086887676,0.0
3202,6.071630985105361,0.0
3203,-1.78771324354083,0.0
3204,-1.9684915536524534,0.0
3205,0.822686303738075,0.0
3206,-1.2773080983127545,0.0
3207,-0.38904867926708125,0.0
3208,-0.7178968122816944,0.0
3209,-0.6804944342764281,0.0
3210,-0.47195306736062226,0.0
3211,-0.6562447983539864,0.0
3212,-0.6164763625429354,0.0
3213,-0.6329987403612818,0.0
3214,-0.5522067991187084,0.0
3215,-0.5689814607420758,0.0
3216,-0.48624445082930845,0.0
3217,-0.4743935334592105,0.0
3218,-0.5549872964180453,0.0
3219,-0.41755988364054714,0.0
3220,-0.26921960020897534,0.0
3221,3.3893784410826706,0.0
3222,5.893747529359539,0.0
3223,-1.719424289009345,0.0
3224,-1.9903352733313349,0.0
3225,0.905742185255819,0.0
3226,-1.388769504848177,0.0
3227,-0.31091222263139706,0.0
3228,-0.5919277730017042,0.0
3229,-0.6930741029744405,0.0
3230,-0.6012051214914994,0.0
3231,-0.6853785032680986,0.0
3232,-0.6210626278026523,0.0
3233,-0.7004406131588361,0.0
3234,-0.6421782131096092,0.0
3235,-0.5039789720918313,0.0
3236,-0.6536854217429123,0.0
3237,-0.6463633625221324,0.0
3238,-0.5429444390349618,0.0
3239,-0.6457115602022536,0.0
3240,-0.15483973014748076,0.0
3241,3.405625490801678,0.0
3242,5.962560340735138,0.0
3243,-1.7685406608660685,0.0
3244,-2.008371142496855,0.0
3245,0.8932925778830012,0.0
3246,-1.4330650473597961,0.0
3247,-0.5280590229460119,0.0
3248,-0.42883668445437056,0.0
3249,-0.7364651892018468,0.0
3250,-0.7149350215768194,0.0
3251,-0.6918767671031213,0.0
3252,-0.46483260123393705,0.0
3253,-0.6440851946098535,0.0
3254,-0.7385505610649661,0.0
3255,-0.6217944216579002,0.0
3256,-0.5806439558934096,0.0
3257,-0.7262488235688473,0.0
3258,-0.6918377511212811,0.0
3259,-0.6533106777961674,0.0
3260,-0.005802673609919873,0.0
3261,3.469950385172816,0.0
3262,6.069111172116426,0.0
3263,-1.7076862338507701,0.0
3264,-2.1621521850942242,0.0
3265,0.67703025704669,0.0
3266,-1.6322058592467097,0.0
3267,-0.383146786963884,0.0
3268,-0.6584801349967075,0.0
3269,-0.683926087553778,0.0
3270,-0.8246803675576947,0.0
3271,-0.6771722973014784,0.0
3272,-0.5800897448884508,0.0
3273,-0.8178323104095779,0.0
3274,-0.6580323718865709,0.0
3275,-0.6185497717657523,0.0
3276,-0.6742687470551284,0.0
3277,-0.7420350504174338,0.0
3278,-0.5545386834984842,0.0
3279,-0.785801716171299,0.0
3280,-0.38665197213884583,0.0
3281,3.422931351666492,0.0
3282,5.944889818333295,0.0
3283,-1.9279021784907941,0.0
3284,-2.1641033374227248,0.0
3285,0.7596891011005171,0.0
3286,-1.4731210672403234,0.0
3287,-0.5370569087337007,0.0
3288,-0.7179958924903714,0.0
3289,-0.6918628276498524,0.0
3290,-0.5509853253885717,0.0
3291,-0.7879447587499293,0.0
3292,-0.6874208171710466,0.0
3293,-0.742149873689,0.0
3294,-0.7124747967834122,0.0
3295,-0.8635454220967874,0.0
3296,-0.6336554987408145,0.0
3297,-0.6288013562806741,0.0
3298,-0.6370836842415487,0.0
3299,-0.7312457651609681,0.0
3300,-0.31171365508964416,0.0
3301,3.460112798636213,0.0
3302,5.928878255622388,0.0
3303,-1.778038779965637,0.0
3304,-2.110979199852257,0.0
3305,0.5344063823899025,0.0
3306,-1.501389705053428,0.0
3307,-0.44416505890565877,0.0
3308,-0.7702638170764186,0.0
3309,-0.7465162666170638,0.0
3310,-0.7319643839355634,0.0
3311,-0.6310723073193415,0.0
3312,-0.7465949355799716,0.0
3313,-0.7213973785924583,0.0
3314,-0.69645015945397,0.0
3315,-0.6764104770446348,0.0
3316,-0.6919706066593915,0.0
3317,-0.7994828561246604,0.0
3318,-0.7288692701620398,0.0
3319,-0.7974032916545871,0.0
3320,-0.27709408800734664,0.0
3321,3.365199815273045,0.0
3322,5.817948089782623,0.0
3323,-1.8080052223788572,0.0
3324,-2.154916340930053,0.0
3325,0.6531287798697901,0.0
3326,-1.5116570875274702,0.0
3327,-0.47981566105061746,0.0
3328,-0.7114446374281267,0.0
3329,-0.8509176315918565,0.0
3330,-0.8074329640712968,0.0
3331,-0.7149554358922644,0.0
3332,-0.675612686421,0.0
3333,-0.8005992696272118,0.0
3334,-0.8458257368187585,0.0
3335,-0.6926040692850873,0.0
3336,-0.7017226458212885,0.0
3337,-0.7399272249461213,0.0
3338,-0.7764883619739983,0.0
3339,-0.8288326691490835,0.0
3340,-0.3043705517117595,0.0
3341,3.3676933429442926,0.0
3342,5.790665389094202,0.0
3343,-2.0060218975981288,0.0
3344,-2.233993370939829,0.0
3345,0.6693884147951672,0.0
3346,-1.6566159873679025,0.0
3347,-0.5467524219765363,0.0
3348,-0.7412964343880835,0.0
3349,-0.7680601678611939,0.0
3350,-0.6368511821214915,0.0
3351,-0.7498031019739042,0.0
3352,-0.7219512886507637,0.0
3353,-0.7542546294895746,0.0
3354,-0.7145327086367178,0.0
3355,-0.7104174884721648,0.0
3356,-0.8660545838152713,0.0
3357,-0.8767948002868713,0.0
3358,-0.7992719218354769,0.0
3359,-0.7271698948733629,0.0
3360,-0.5062866060533977,0.0
3361,3.3670991756391935,0.0
3362,5.697666963590986,0.0
3363,-1.8397665427683327,0.0
3364,-2.2010795600642665,0.0
3365,0.6153072116240363,0.0
3366,-1.6310818166531917,0.0
3367,-0.5180127093401578,0.0
3368,-0.7561161792396931,0.0
3369,-0.7264720459824614,0.0
3370,-0.6585384058732263,0.0
3371,-0.7531917440230333,0.0
3372,-0.6205237141768163,0.0
3373,-0.631492853875815,0.0
3374,-0.6687306016259349,0.0
3375,-0.5815960710936539,0.0
3376,-0.7278400191858811,0.0
3377,-0.6943586723397399,0.0
3378,-0.7704266003012284,0.0
3379,-0.6953015793169232,0.0
3380,-0.28613108818141875,0.0
3381,3.382339449420531,0.0
3382,5.837512245603435,0.0
3383,-1.9232653066472003,0.0
3384,-2.1745944365220096,0.0
3385,0.6262240568778648,0.0
3386,-1.642691848295921,0.0
3387,-0.6298747499430508,0.0
3388,-0.8971544039264606,0.0
3389,-0.8330345364586003,0.0
3390,-0.6987551484889712,0.0
3391,-0.9046999068383735,0.0
3392,-0.936742849011908,0.0
3393,-0.8161966931156165,0.0
3394,-0.7473918637785375,0.0
3395,-0.8188827805249317,0.0
3396,-0.7753610342282221,0.0
3397,-0.676171101057078,0.0
3398,-0.7602901613965892,0.0
3399,-0.7288710933048003,0.0
3400,-0.3588129609153483,0.0
3401,3.3097332659303578,0.0
3402,5.745544791187204,0.0
3403,-1.9620193023909245,0.0
3404,-2.2600156505338354,0.0
3405,0.6140125359140833,0.0
3406,-1.6004643762000264,0.0
3407,-0.5149093737068003,0.0
3408,-0.7367313471758937,0.0
3409,-0.8665472666781477,0.0
3410,-0.8538800281927819,0.0
3411,-0.7701462007939145,0.0
3412,-0.7858319496852064,0.0
3413,-0.8151564118688333,0.0
3414,-0.9201331919589056,0.0
3415,-0.8402652172570416,0.0
3416,-0.8773909748797951,0.0
3417,-0.8970688180838204,0.0
3418,-1.008666771530587,0.0
3419,-0.8579695357478463,0.0
3420,-0.46479322332414713,0.0
3421,3.4191520515566514,0.0
3422,5.7832927595156,0.0
3423,-1.9367722931798845,0.0
3424,-2.0510540719652557,0.0
3425,0.4000759227329147,0.0
3426,-1.64387725563568,0.0
3427,-0.6800434375119169,0.0
3428,-0.8842701315973964,0.0
3429,-0.9409822850328932,0.0
3430,-0.8557053023316263,0.0
3431,-0.8807530416106237,0.0
3432,-0.845461468838163,0.0
3433,-0.7687314144974262,0.0
3434,-0.8950534278494866,0.0
3435,-0.8503850186245984,0.0
3436,-0.8752610228739451,0.0
3437,-0.7778721997507688,0.0
3438,-0.818357515666561,0.0
3439,-0.9080948890226738,0.0
3440,-0.4946002765461941,0.0
3441,3.211636116012021,0.0
3442,5.624911714001502,0.0
3443,-2.055581097575541,0.0
3444,-2.184851131275479,0.0
3445,0.5105387199052104,0.0
3446,-1.6060084441237,0.0
3447,-0.5974293293434866,0.0
3448,-0.9348864140902959,0.0
3449,-0.7311953243019365,0.0
3450,-0.7001724528894772,0.0
3451,-0.9843600209845421,0.0
3452,-0.8294840179478604,0.0
3453,-0.8589128704732658,0.0
3454,-0.7486034757753526,0.0
3455,-0.7961872650084872,0.0
3456,-0.8266615105549898,0.0
3457,-0.8662543759736105,0.0
3458,-0.8018191030885892,0.0
3459,-0.9285423849667279,0.0
3460,-0.4471942324349123,0.0
3461,3.404831074546018,0.0
3462,5.516106510605343,0.0
3463,-2.0673044566051777,0.0
3464,-2.3660570887043124,0.0
3465,0.4951171592907434,0.0
3466,-1.5952383931240621,0.0
3467,-0.6234690044735494,0.0
3468,-0.8742755130787296,0.0
3469,-0.9984252415396877,0.0
3470,-0.8264383212023209,0.0
3471,-0.9165487251194555,0.0
3472,-0.8592600294632977,0.0
3473,-0.7292087035077911,0.0
3474,-0.8023219294289605,0.0
3475,-0.8460088325080709,0.0
3476,-0.9618192073182358,0.0
3477,-0.8080742520993516,0.0
3478,-0.8776970042416692,0.0
3479,-1.0591974752810764,0.0
3480,-0.3952812073188866,0.0
3481,3.1961748707487883,0.0
3482,5.679234438478007,0.0
3483,-2.0292689999399816,0.0
3484,-2.290589070509661,0.0
3485,0.6879852965471485,0.0
3486,-1.6638856104808246,0.0
3487,-0.6081817019207971,0.0
3488,-0.794851012133912,0.0
3489,-1.045103550186895,0.0
3490,-0.7604612762457196,0.0
3491,-0.8910482003194639,0.0
3492,-0.866144550235442,0.0
3493,-0.9359360946185977,0.0
3494,-0.8639843269204046,0.0
3495,-1.045971696298133,0.0
3496,-0.8999433396877903,0.0
3497,-0.9718916872791951,0.0
3498,-0.8567996070738595,0.0
3499,-0.9701961937061399,0.0
3500,-0.5725677667821277,0.0
3501,3.1088327472606334,0.0
3502,5.491038692151107,0.0
3503,-2.190397644800502,0.0
3504,-2.4304379408404193,0.0
3505,0.55801370386334,0.0
3506,-1.81583389408873,0.0
3507,-0.7451712407632229,0.0
3508,-0.8779805552326887,0.0
3509,-0.8459798373184029,0.0
3510,-1.0356636817276925,0.0
3511,-0.8794493710837614,0.0
3512,-0.9625109811800698,0.0
3513,-0.8902829073516626,0.0
3514,-0.9724645995278123,0.0
3515,-0.9359563226198269,0.0
3516,-0.9285226472560144,0.0
3517,-0.8594074332012337,0.0
3518,-0.9581527691931724,0.0
3519,-1.0160530885234826,0.0
3520,-0.5852062669746136,0.0
3521,3.0911191142543233,0.0
3522,5.666618770870544,0.0
3523,-2.1158684514387924,0.0
3524,-2.3251025013518007,0.0
3525,0.48801033028420937,0.0
3526,-1.8185215415176699,0.0
3527,-0.6448529326372247,0.0
3528,-1.0444280117128624,0.0
3529,-0.9872819824494837,0.0
3530,-1.0395744278021521,0.0
3531,-1.0095701434279492,0.0
3532,-0.9368121364738047,0.0
3533,-1.0840991139784921,0.0
3534,-0.8747348745399417,0.0
3535,-0.9287406504896933,0.0
3536,-1.0295495393809184,0.0
3537,-0.9536778288557557,0.0
3538,-1.0281122945414858,0.0
3539,-0.9620698853794453,0.0
3540,-0.6975894573717081,0.0
3541,3.2198246606866467,0.0
3542,5.6421281415429965,0.0
3543,-2.1323097152163735,0.0
3544,-2.242317813633249,0.0
3545,0.48090679063560293,0.0
3546,-1.6973145569801082,0.0
3547,-0.7855476620770548,0.0
3548,-1.0237634907905155,0.0
3549,-1.0250552939242885,0.0
3550,-0.9065274801661349,0.0
3551,-0.9780921782369081,0.0
3552,-0.9386527911298311,0.0
3553,-0.9030222205932629,0.0
3554,-0.9181937100988067,0.0
3555,-0.9550165084841338,0.0
3556,-0.9038000730619158,0.0
3557,-1.01977185560272,0.0
3558,-0.9354184261078259,0.0
3559,-0.9134811158374975,0.0
3560,-0.515267214661189,0.0
3561,3.126974014251883,0.0
3562,5.630029034323431,0.0
3563,-2.134244121471112,0.0
3564,-2.301428165787693,0.0
3565,0.41646428250157874,0.0
3566,-1.7692067583498163,0.0
3567,-0.702549505683263,0.0
3568,-0.951445229630839,0.0
3569,-1.0296376701103243,0.0
3570,-1.0191119867901233,0.0
3571,-1.0717030143792867,0.0
3572,-1.091048360006139,0.0
3573,-0.9786560463968482,0.0
3574,-1.0351850673735237,0.0
3575,-0.9584643926720042,0.0
3576,-0.9138472909697365,0.0
3577,-1.0048117511978711,0.0
3578,-0.9784768191687765,0.0
3579,-1.0409384938660535,0.0
3580,-0.5107139630407929,0.0
3581,3.3116786820439863,0.0
3582,5.440435615896851,0.0
3583,-2.1600696778764243,0.0
3584,-2.270071521971978,0.0
3585,0.4667022962166043,0.0
3586,-1.846802646546727,0.0
3587,-0.6981589691044385,0.0
3588,-0.9995369543547798,0.0
3589,-0.9416151288261306,0.0
3590,-1.057383128992411,0.0
3591,-0.9928601004764311,0.0
3592,-0.9553518775988086,0.0
3593,-1.0012398439796804,0.0
3594,-0.9670232480824085,0.0
3595,-0.9971605162426767,0.0
3596,-0.94002035799026,0.0
3597,-1.0737307032445667,0.0
3598,-0.9030674807458919,0.0
3599,-0.97249852147529,0.0
3600,-0.5422093457177064,0.0
3601,3.2914452491032193,0.0
3602,5.438219130057231,0.0
3603,-2.07812783115385,0.0
3604,-2.382998348440765,0.0
3605,0.35921206457605925,0.0
3606,-1.7363613817570376,0.0
3607,-0.6688832680438578,0.0
3608,-0.9920016959428916,0.0
3609,-0.9686941006850455,0.0
3610,-1.0328475293141162,0.0
3611,-1.1661240467101865,0.0
3612,-1.091214562515934,0.0
3613,-1.0722505498556494,0.0
3614,-0.9965673642436188,0.0
3615,-1.1026942624746934,0.0
3616,-0.8919955474580793,0.0
3617,-1.0240085143076094,0.0
3618,-1.05877834325925,0.0
3619,-1.1283865533260928,0.0
3620,-0.6750381007938572,0.0
3621,3.102628618444632,0.0
3622,5.454929097490377,0.0
3623,-2.315917336886917,0.0
3624,-2.3218901375165046,0.0
3625,0.3135779207120504,0.0
3626,-1.7939576826087977,0.0
3627,-0.7751898573363323,0.0
3628,-1.0823384003809862,0.0
3629,-1.1204198099124456,0.0
3630,-0.9993524268530115,0.0
3631,-0.9837177680028588,0.0
3632,-1.037534633261056,0.0
3633,-1.0140178138901557,0.0
3634,-1.0083858496416103,0.0
3635,-0.9439760698703963,0.0
3636,-0.9828614724214417,0.0
3637,-1.0792368974309157,0.0
3638,-1.0431948742294876,0.0
3639,-1.0169935572051918,0.0
3640,-0.6274897256757478,0.0
3641,3.1214296281803824,0.0
3642,5.402436983278931,0.0
3643,-2.312563217454673,0.0
3644,-2.468769717198418,0.0
3645,0.28731133520795726,0.0
3646,-1.9013826735729746,0.0
3647,-0.870337624282596,0.0
3648,-1.024133140042689,0.0
3649,-0.9211331743782336,0.0
3650,-1.2003466877047864,0.0
3651,-0.9970740671335697,0.0
3652,-1.0176770032123694,0.0
3653,-1.1358390509130767,0.0
3654,-1.0748841156072717,0.0
3655,-1.1773197117372214,0.0
3656,-1.1838333583591898,0.0
3657,-1.1901862879406797,0.0
3658,-1.1429263333955546,0.0
3659,-1.1508558229450836,0.0
3660,-0.6698174980263945,0.0
3661,3.0424730402118563,0.0
3662,5.2901343060332655,0.0
3663,-2.4721203623876242,0.0
3664,-2.451636803287471,0.0
3665,0.08517531566044023,0.0
3666,-2.001662656694439,0.0
3667,-0.9263106077551747,0.0
3668,-1.1681511802076283,0.0
3669,-1.254569715980187,0.0
3670,-1.076600200619072,0.0
3671,-1.0688352375179746,0.0
3672,-1.161193714879333,0.0
3673,-1.0311544204655814,0.0
3674,-1.0404377588724143,0.0
3675,-1.0327681921095164,0.0
3676,-1.0537334972744052,0.0
3677,-0.9234879962886724,0.0
3678,-1.102790667986504,0.0
3679,-1.1471671025972816,0.0
3680,-0.6121786535287057,0.0
3681,3.109442973657811,0.0
3682,5.335109529503542,0.0
3683,-2.378343469958388,0.0
3684,-2.5268914341450146,0.0
3685,0.3233972263892757,0.0
3686,-1.8603332375243729,0.0
3687,-0.9101010077179091,0.0
3688,-1.219988482808745,0.0
3689,-1.2543939344282753,0.0
3690,-1.070807571585519,0.0
3691,-1.1418698740384818,0.0
3692,-1.0886236790662611,0.0
3693,-1.207027088313571,0.0
3694,-1.1042075251121248,0.0
3695,-1.159286385965328,0.0
3696,-1.144295961992872,0.0
3697,-1.2285754483755866,0.0
3698,-1.1136181206855191,0.0
3699,-1.1671746377943375,0.0
3700,-0.6898971674222529,0.0
3701,3.0476572991313295,0.0
3702,5.327769893667117,0.0
3703,-2.5079899616214103,0.0
3704,-2.447375582010104,0.0
3705,0.24687052392966113,0.0
3706,-2.052883342990948,0.0
3707,-0.8497251066806482,0.0
3708,-1.0862643671623742,0.0
3709,-1.0597407986191683,0.0
3710,-1.1268801535132176,0.0
3711,-1.1214936593248694,0.0
3712,-1.2127048661167426,0.0
3713,-1.2451545619622035,0.0
3714,-1.162222837652547,0.0
3715,-1.0713399465937532,0.0
3716,-1.0196315200780368,0.0
3717,-1.162496330687653,0.0
3718,-1.1069180869344915,0.0
3719,-1.150104547361821,0.0
3720,-0.7312744512461289,0.0
3721,2.9637093793791083,0.0
3722,5.29617153833339,0.0
3723,-2.3433892024277165,0.0
3724,-2.632894348035632,0.0
3725,0.2818585334795909,0.0
3726,-2.0214949721919595,0.0
3727,-1.08471368177046,0.0
3728,-1.1830297577911153,0.0
3729,-1.2880388146282995,0.0
3730,-1.24904498815325,0.0
3731,-1.296742995978175,0.0
3732,-1.1564256969470772,0.0
3733,-1.1815365928914032,0.0
3734,-1.3397624069719554,0.0
3735,-1.12857965421982,0.0
3736,-1.1942824031019408,0.0
3737,-1.301355119995088,0.0
3738,-1.1854003519234808,0.0
3739,-1.3026202648206975,0.0
3740,-0.8098393890407107,0.0
3741,2.8563478501905415,0.0
3742,5.414485733263539,0.0
3743,-2.454698822922299,0.0
3744,-2.547872224088274,0.0
3745,0.07727594680469574,0.0
3746,-2.0111609404852384,0.0
3747,-1.0477066294653044,0.0
3748,-1.182330225248713,0.0
3749,-1.1683708813569753,0.0
3750,-1.2480786921575835,0.0
3751,-1.1034732823623103,0.0
3752,-1.1893325800071073,0.0
3753,-1.1362695542104808,0.0
3754,-1.1019869263291568,0.0
3755,-1.2787046846768735,0.0
3756,-1.3591808004239214,0.0
3757,-1.228551518613252,0.0
3758,-1.159762050260793,0.0
3759,-1.1574781080186325,0.0
3760,-0.7356119197541164,0.0
3761,2.9091810026713985,0.0
3762,5.3397011473117155,0.0
3763,-2.490444054709044,0.0
3764,-2.6069997134838303,0.0
3765,0.09784846220011834,0.0
3766,-2.1321694796892574,0.0
3767,-1.1006903377380168,0.0
3768,-1.2249384279974427,0.0
3769,-1.394417095612874,0.0
3770,-1.1647708561157126,0.0
3771,-1.2304202074633621,0.0
3772,-1.231422426366169,0.0
3773,-1.3734792142566856,0.0
3774,-1.3626351778441004,0.0
3775,-1.2157956668768142,0.0
3776,-1.3028096775198303,0.0
3777,-1.4088593547385646,0.0
3778,-1.3749508972120135,0.0
3779,-1.2908558131053993,0.0
3780,-0.9354316803771684,0.0
3781,2.8149461592706118,0.0
3782,5.256528711411157,0.0
3783,-2.438876797337544,0.0
3784,-2.670809776365921,0.0
3785,0.0926036279067246,0.0
3786,-2.1404951168698756,0.0
3787,-1.0837260859536946,0.0
3788,-1.3132379021528668,0.0
3789,-1.231651220877061,0.0
3790,-1.2318266651299246,0.0
3791,-1.3466648108144184,0.0
3792,-1.3623063347419682,0.0
3793,-1.2566535608864855,0.0
3794,-1.2925950459151918,0.0
3795,-1.26417038180157,0.0
3796,-1.2912022025653103,0.0
3797,-1.346300554822057,0.0
3798,-1.3505101363563234,0.0
3799,-1.3676134431550508,0.0
3800,-0.8622939446584744,0.0
3801,2.858996520245409,0.0
3802,5.154443035440035,0.0
3803,-2.614812332853,0.0
3804,-2.6884091016025016,0.0
3805,0.005465692524477372,0.0
3806,-2.085335487534097,0.0
3807,-1.1895683906914765,0.0
3808,-1.4375440048014667,0.0
3809,-1.3835387522882248,0.0
3810,-1.3904215663739685,0.0
3811,-1.4146473469588492,0.0
3812,-1.358614048800124,0.0
3813,-1.3635564580649737,0.0
3814,-1.238532031635966,0.0
3815,-1.1975659954971363,0.0
3816,-1.3504790391636492,0.0
3817,-1.2902467221572314,0.0
3818,-1.4040683291896063,0.0
3819,-1.4052143944716462,0.0
3820,-1.0313174665050155,0.0
3821,2.8682544577544253,0.0
3822,5.145129974337129,0.0
3823,-2.6032448226873344,0.0
3824,-2.506110458178059,0.0
3825,0.09796205924379686,0.0
3826,-2.0702293792117206,0.0
3827,-1.1495198536083928,0.0
3828,-1.2348403087652866,0.0
3829,-1.3936689680193142,0.0
3830,-1.4088782827139306,0.0
3831,-1.296473517747801,0.0
3832,-1.4333582956092172,0.0
3833,-1.2633405754058438,0.0
3834,-1.2741119587447176,0.0
3835,-1.3142070045776608,0.0
3836,-1.2424735525127062,0.0
3837,-1.4371289156818936,0.0
3838,-1.2834362798315053,0.0
3839,-1.2578799395600444,0.0
3840,-0.8773935403048936,0.0
3841,2.801582876695975,0.0
3842,5.220328077727675,0.0
3843,-2.539175695991828,0.0
3844,-2.655777925998905,0.0
3845,0.08324661767507036,0.0
3846,-2.114546785076863,0.0
3847,-1.1325539190033413,0.0
3848,-1.4595515792490326,0.0
3849,-1.44461481255522,0.0
3850,-1.448818349379711,0.0
3851,-1.5109700392559362,0.0
3852,-1.3633973835214788,0.0
3853,-1.4519637101509884,0.0
3854,-1.4714778519383844,0.0
3855,-1.3919004040467216,0.0
3856,-1.4052718157056598,0.0
3857,-1.3086589514631,0.0
3858,-1.4175135465286448,0.0
3859,-1.2619518604756828,0.0
3860,-0.9788582906710708,0.0
3861,2.8101922789628953,0.0
3862,5.2679448367764135,0.0
3863,-2.634025325640412,0.0
3864,-2.6394063558653844,0.0
3865,0.07552741529824059,0.0
3866,-2.1412281517773146,0.0
3867,-1.0607197590689275,0.0
3868,-1.241527397127378,0.0
3869,-1.2449638201377171,0.0
3870,-1.2758314770983727,0.0
3871,-1.3664992875168878,0.0
3872,-1.3358961617154743,0.0
3873,-1.3502964985892723,0.0
3874,-1.271786962118544,0.0
3875,-1.392001433615438,0.0
3876,-1.338316058167749,0.0
3877,-1.3670252869342916,0.0
3878,-1.346453873703921,0.0
3879,-1.294494861449264,0.0
3880,-0.8397593519013038,0.0
3881,2.852447844389631,0.0
3882,5.106762197466663,0.0
3883,-2.5349589112354103,0.0
3884,-2.648691967161563,0.0
3885,0.12526914249332188,0.0
3886,-2.2774298134277475,0.0
3887,-1.236609742959347,0.0
3888,-1.3590908327204554,0.0
3889,-1.3670457984482423,0.0
3890,-1.4220059768688824,0.0
3891,-1.3626475567543541,0.0
3892,-1.4030349406614417,0.0
3893,-1.506211872762528,0.0
3894,-1.395923619470953,0.0
3895,-1.3492176424656683,0.0
3896,-1.4664156016551648,0.0
3897,-1.3555244664946982,0.0
3898,-1.5225016415647805,0.0
3899,-1.4182174135374466,0.0
3900,-1.0065534750341507,0.0
3901,2.746001685672008,0.0
3902,5.158849631591588,0.0
3903,-2.6969217940233547,0.0
3904,-2.6296150460519954,0.0
3905,0.025168826991286197,0.0
3906,-2.0874307986589615,0.0
3907,-1.0822722857423117,0.0
3908,-1.3716349264524483,0.0
3909,-1.2942898496587718,0.0
3910,-1.3218710285712596,0.0
3911,-1.4615022329580412,0.0
3912,-1.4049455107348863,0.0
3913,-1.3319335762417446,0.0
3914,-1.4616666739197242,0.0
3915,-1.4223860617903044,0.0
3916,-1.3716539682835993,0.0
3917,-1.4416723699307226,0.0
3918,-1.5308282479968356,0.0
3919,-1.3090464101737562,0.0
3920,-1.0652382541883825,0.0
3921,2.839750551292185,0.0
3922,5.2144734114361135,0.0
3923,-2.5239024333257833,0.0
3924,-2.7590792394629613,0.0
3925,0.019000298568746077,0.0
3926,-2.1540394067524655,0.0
3927,-1.1140508696161238,0.0
3928,-1.3343686272408297,0.0
3929,-1.4068998063868658,0.0
3930,-1.2983587269302093,0.0
3931,-1.240510660981005,0.0
3932,-1.2847356693580851,0.0
3933,-1.4883564266161553,0.0
3934,-1.4004780350789776,0.0
3935,-1.351823649773955,0.0
3936,-1.3432474877841158,0.0
3937,-1.295021765329693,0.0
3938,-1.4256008471764705,0.0
3939,-1.422688927269253,0.0
3940,-1.063236633737568,0.0
3941,2.7907455583449483,0.0
3942,5.0407401695209675,0.0
3943,-2.7821842949687987,0.0
3944,-2.644956549991662,0.0
3945,-0.06189578614563662,0.0
3946,-2.2029942977449943,0.0
3947,-1.1766327923349897,0.0
3948,-1.6071906055787482,0.0
3949,-1.3647779351877107,0.0
3950,-1.5330495881309723,0.0
3951,-1.4393675671492712,0.0
3952,-1.439075237402878,0.0
3953,-1.3922185834579006,0.0
3954,-1.3243813128623076,0.0
3955,-1.385614564894239,0.0
3956,-1.4206981339620872,0.0
3957,-1.3999369488854692,0.0
3958,-1.4860986852996314,0.0
3959,-1.411997618871082,0.0
3960,-0.941345968388644,0.0
3961,2.914509471980195,0.0
3962,5.031532643077162,0.0
3963,-2.7409445859435806,0.0
3964,-2.6612223812198113,0.0
3965,-0.0008225298300086337,0.0
3966,-2.1122949433451614,0.0
3967,-1.214658542359526,0.0
3968,-1.3875764099821606,0.0
3969,-1.2971447816661261,0.0
3970,-1.4652972914117177,0.0
3971,-1.561704715663688,0.0
3972,-1.5885224862813772,0.0
3973,-1.4121893554921483,0.0
3974,-1.4012564859920404,0.0
3975,-1.4387169745023496,0.0
3976,-1.3434157245347984,0.0
3977,-1.4072566278780494,0.0
3978,-1.4234181776684434,0.0
3979,-1.3538273515345207,0.0
3980,-0.882035939155937,0.0
3981,2.773881911137415,0.0
3982,5.148354075180598,0.0
3983,-2.7591761281468856,0.0
3984,-2.7295065090344806,0.0
3985,0.024482966590586575,0.0
3986,-2.201503340667925,0.0
3987,-1.265373383478717,0.0
3988,-1.36630464839509,0.0
3989,-1.4292266225861814,0.0
3990,-1.422723085507723,0.0
3991,-1.6345640720612027,0.0
3992,-1.4388755202873529,0.0
3993,-1.4477232989633955,0.0
3994,-1.3867121856280689,0.0
3995,-1.4068203388929816,0.0
3996,-1.546245449045429,0.0
3997,-1.4204744563112723,0.0
3998,-1.3205311945846852,0.0
3999,-1.4426333206039148,0.0
4000,-0.9500535934235248,0.0
4001,2.7554303618819636,0.0
4002,5.041378893452777,0.0
4003,-2.8129977544618883,0.0
4004,-2.7954080106242465,0.0
4005,-0.06591062957263683,0.0
4006,-2.2243410859912354,0.0
4007,-1.199715362598966,0.0
4008,-1.3327448782467899,0.0
4009,-1.5302937755272825,0.0
4010,-1.4723245733612158,0.0
4011,-1.4700960693858647,0.0
4012,-1.4329117888559844,0.0
4013,-1.3097328214293764,0.0
4014,-1.4233203220533484,0.0
4015,-1.4900368487964755,0.0
4016,-1.4649277072654832,0.0
4017,-1.4862311275517857,0.0
4018,-1.403349578152918,0.0
4019,-1.4416988735143772,0.0
4020,-0.9871564885750543,0.0
4021,2.918418759743211,0.0
4022,5.028804930931571,0.0
4023,-2.7704568065349164,0.0
4024,-2.5827989296629625,0.0
4025,-0.17039217167970855,0.0
4026,-2.174035398386341,0.0
4027,-1.2559507639875864,0.0
4028,-1.5263156396719613,0.0
4029,-1.4516303381553641,0.0
4030,-1.558290915495814,0.0
4031,-1.5142351123286166,0.0
4032,-1.3646418472058188,0.0
4033,-1.455774387353356,0.0
4034,-1.540902354246383,0.0
4035,-1.540002960558834,0.0
4036,-1.5676422273543666,0.0
4037,-1.5389479379932196,0.0
4038,-1.4745225764528207,0.0
4039,-1.3382526842896556,0.0
4040,-1.0265069523776946,0.0
4041,2.7299879996804775,0.0
4042,4.781753426242558,0.0
4043,-2.8297893303076105,0.0
4044,-2.716403663715573,0.0
4045,0.0011913241055372392,0.0
4046,-2.2300035388200516,0.0
4047,-1.246878896783924,0.0
4048,-1.423714855235648,0.0
4049,-1.4839338268832651,0.0
4050,-1.5015955793838367,0.0
4051,-1.5319722159955713,0.0
4052,-1.3917987653424115,0.0
4053,-1.4472405959472818,0.0
4054,-1.53660632760273,0.0
4055,-1.5408426084943798,0.0
4056,-1.4605099270278525,0.0
4057,-1.5558169756503923,0.0
4058,-1.619502237307413,0.0
4059,-1.6015476291571482,0.0
4060,-1.0311115225139047,0.0
4061,2.724733999441612,0.0
4062,4.979966505740749,0.0
4063,-2.7554866492727896,0.0
4064,-2.618507117555969,0.0
4065,-0.120134376567818,0.0
4066,-2.3797527580677644,0.0
4067,-1.2763858317865602,0.0
4068,-1.5441221270281182,0.0
4069,-1.6000471772052187,0.0
4070,-1.4572370468972868,0.0
4071,-1.537590499252125,0.0
4072,-1.5519917870034836,0.0
4073,-1.4923114983052082,0.0
4074,-1.4717140807967282,0.0
4075,-1.464096268175666,0.0
4076,-1.5538811780250383,0.0
4077,-1.6693962060372196,0.0
4078,-1.479570988194089,0.0
4079,-1.5626438454095724,0.0
4080,-1.1112975185889205,0.0
4081,2.5709802583747092,0.0
4082,4.979895388250265,0.0
4083,-2.890900901253154,0.0
4084,-2.7526934715055953,0.0
4085,-0.03038826593969035,0.0
4086,-2.318602603601805,0.0
4087,-1.3292038664025998,0.0
4088,-1.6373476344699056,0.0
4089,-1.6412271028249725,0.0
4090,-1.4654783037537358,0.0
4091,-1.420013822245401,0.0
4092,-1.448206032996654,0.0
4093,-1.4709245301023082,0.0
4094,-1.520447942006983,0.0
4095,-1.512560388411196,0.0
4096,-1.5544955426337685,0.0
4097,-1.567165614773839,0.0
4098,-1.4574760762800227,0.0
4099,-1.4860129821062786,0.0
4100,-0.9862056414497695,0.0
4101,2.8305262273450946,0.0
4102,5.006748913588499,0.0
4103,-2.7328120895984904,0.0
4104,-2.7995550053703515,0.0
4105,-0.2118268205058904,0.0
4106,-2.2669264924979755,0.0
4107,-1.1485842216636508,0.0
4108,-1.6417535847136346,0.0
4109,-1.5060437080278628,0.0
4110,-1.474953062788067,0.0
4111,-1.5790594708583734,0.0
4112,-1.4547064255448783,0.0
4113,-1.523204792815112,0.0
4114,-1.5057847879794568,0.0
4115,-1.5634171246937996,0.0
4116,-1.467787771154809,0.0
4117,-1.5361586832045433,0.0
4118,-1.534074070919498,0.0
4119,-1.578981216086726,0.0
4120,-1.0272629586994269,0.0
4121,2.806328151181186,0.0
4122,4.856843733078123,0.0
4123,-2.8558753382219932,0.0
4124,-2.8164867067019896,0.0
4125,-0.24451070949165743,0.0
4126,-2.194161307374411,0.0
4127,-1.255668959499206,0.0
4128,-1.4846129493132871,0.0
4129,-1.730658281083095,0.0
4130,-1.5714546747750118,0.0
4131,-1.514076673149381,0.0
4132,-1.470531946541315,0.0
4133,-1.436579623421188,0.0
4134,-1.4819450732249284,0.0
4135,-1.5168785144924954,0.0
4136,-1.5635748562080423,0.0
4137,-1.5066270110678048,0.0
4138,-1.4687570244490236,0.0
4139,-1.5520010056892761,0.0
4140,-1.1969494987021243,0.0
4141,2.722518051911888,0.0
4142,5.06772400403277,0.0
4143,-2.787452438836412,0.0
4144,-2.762246428720168,0.0
4145,-0.11605327703514212,0.0
4146,-2.350524315602784,0.0
4147,-1.2095407010225108,0.0
4148,-1.5617424466235024,0.0
4149,-1.5617386907888722,0.0
4150,-1.4873133224265302,0.0
4151,-1.553069543542096,0.0
4152,-1.573713169666906,0.0
4153,-1.6420668743773335,0.0
4154,-1.40193866979283,0.0
4155,-1.4977905496373076,0.0
4156,-1.50277450643596,0.0
4157,-1.5054570322370804,0.0
4158,-1.6032787534895765,0.0
4159,-1.5101617309385547,0.0
4160,-1.0923485158835984,0.0
4161,2.7760045941473486,0.0
4162,4.939535014663086,0.0
4163,-2.83194104442312,0.0
4164,-2.8653715394354444,0.0
4165,-0.12755887721183767,0.0
4166,-2.191600331258495,0.0
4167,-1.295948302297915,0.0
4168,-1.5319461270093082,0.0
4169,-1.50337825823016,0.0
4170,-1.4502362270789304,0.0
4171,-1.5416282802492072,0.0
4172,-1.5153568380507025,0.0
4173,-1.6187176696883363,0.0
4174,-1.5543420900094997,0.0
4175,-1.67036087119082,0.0
4176,-1.4941685669741713,0.0
4177,-1.6148427815762771,0.0
4178,-1.596270432773136,0.0
4179,-1.6199503500525954,0.0
4180,-0.8935063168460942,0.0
4181,2.7263205019700023,0.0
4182,4.911523023266473,0.0
4183,-2.80113670493132,0.0
4184,-2.8898319252504443,0.0
4185,-0.24608783346745722,0.0
4186,-2.40903391439357,0.0
4187,-1.2520109929944034,0.0
4188,-1.5766626815905265,0.0
4189,-1.6124376890381609,0.0
4190,-1.7416175393205415,0.0
4191,-1.5236902496075515,0.0
4192,-1.6437757472026868,0.0
4193,-1.597019309208186,0.0
4194,-1.6709845880388317,0.0
4195,-1.5728146007067745,0.0
4196,-1.6850584514123488,0.0
4197,-1.7663090417011325,0.0
4198,-1.6016215889864098,0.0
4199,-1.5786214811266466,0.0
4200,-1.160611385981132,0.0
4201,2.7240019254000076,0.0
4202,4.837607928640898,0.0
4203,-2.866625927632392,0.0
4204,-2.8765661961476776,0.0
4205,-0.19300423633219133,0.0
4206,-2.3629986058764287,0.0
4207,-1.3511035855788656,0.0
4208,-1.509619600898646,0.0
4209,-1.5159249299642994,0.0
4210,-1.534693504921433,0.0
4211,-1.551459786630899,0.0
4212,-1.6111409912962191,0.0
4213,-1.645919592256996,0.0
4214,-1.6342395801426954,0.0
4215,-1.6510791802387235,0.0
4216,-1.627274606117874,0.0
4217,-1.5825031628868722,0.0
4218,-1.584282068221916,0.0
4219,-1.6116446654365526,0.0
4220,-1.1855731116323203,0.0
4221,2.536198609357722,0.0
4222,5.006696434256528,0.0
4223,-2.938056208606972,0.0
4224,-2.852903547873943,0.0
4225,-0.35733824884746723,0.0
4226,-2.276033497367987,0.0
4227,-1.3702252815987117,0.0
4228,-1.5590610389078021,0.0
4229,-1.730756623030305,0.0
4230,-1.5031946707752906,0.0
4231,-1.494293696545758,0.0
4232,-1.5214564008737925,0.0
4233,-1.729454267381738,0.0
4234,-1.5217492959288625,0.0
4235,-1.5087934782041024,0.0
4236,-1.6303705382722145,0.0
4237,-1.5196941288596748,0.0
4238,-1.6616503459372192,0.0
4239,-1.5500781865327273,0.0
4240,-1.1133989156361657,0.0
4241,2.759162472858019,0.0
4242,4.966443752995367,0.0
4243,-2.9293973116352676,0.0
4244,-2.8305744708280827,0.0
4245,-0.12187215565622123,0.0
4246,-2.3364186787337466,0.0
4247,-1.258300468365596,0.0
4248,-1.6352230024337029,0.0
4249,-1.5832311387515179,0.0
4250,-1.7179730951273078,0.0
4251,-1.61545870660162,0.0
4252,-1.6106434455533059,0.0
4253,-1.6569225891822632,0.0
4254,-1.6733199842730402,0.0
4255,-1.6614573778205028,0.0
4256,-1.6360494661879357,0.0
4257,-1.6335875333062868,0.0
4258,-1.6618154774406213,0.0
4259,-1.7544974558680173,0.0
4260,-1.3092924678050124,0.0
4261,2.522277966269927,0.0
4262,4.705744606138714,0.0
4263,-3.021470466902789,0.0
4264,-2.938793748437053,0.0
4265,-0.4013478704450577,0.0
4266,-2.490040345807751,0.0
4267,-1.434012803388437,0.0
4268,-1.6305920406166947,0.0
4269,-1.66428218602273,0.0
4270,-1.6318038457797739,0.0
4271,-1.6398018875494347,0.0
4272,-1.6049418137484739,0.0
4273,-1.640694520753535,0.0
4274,-1.6220509172460054,0.0
4275,-1.5337686252448972,0.0
4276,-1.706221883992399,0.0
4277,-1.5089084019086536,0.0
4278,-1.4773524465291061,0.0
4279,-1.6601637897782913,0.0
4280,-1.0746941824032585,0.0
4281,2.612116365685191,0.0
4282,4.836833796950799,0.0
4283,-2.9033181737515408,0.0
4284,-2.8552521939683655,0.0
4285,-0.057306850922317576,0.0
4286,-2.503939888847296,0.0
4287,-1.5489177089815642,0.0
4288,-1.6704406909373681,0.0
4289,-1.7093445418018498,0.0
4290,-1.6488956165739295,0.0
4291,-1.5227676496778701,0.0
4292,-1.5408994004487668,0.0
4293,-1.61235865841541,0.0
4294,-1.54090381623578,0.0
4295,-1.5151936910440607,0.0
4296,-1.7080644860665712,0.0
4297,-1.4922865738105735,0.0
4298,-1.4330393407450313,0.0
4299,-1.5779761261049945,0.0
4300,-1.1986439273016578,0.0
4301,2.736823266212766,0.0
4302,4.7032199554574285,0.0
4303,-2.9014646201416276,0.0
4304,-2.855120270548718,0.0
4305,-0.3109368476009875,0.0
4306,-2.3557666731780884,0.0
4307,-1.3142750283417144,0.0
4308,-1.6813898064685882,0.0
4309,-1.4999165291858947,0.0
4310,-1.5952672712150582,0.0
4311,-1.5275758106192079,0.0
4312,-1.577982914355119,0.0
4313,-1.6418791570988054,0.0
4314,-1.5433868031297042,0.0
4315,-1.6487262043913748,0.0
4316,-1.597742972525824,0.0
4317,-1.5397294247202764,0.0
4318,-1.5224626535545074,0.0
4319,-1.6949179834068953,0.0
4320,-1.1832331566808278,0.0
4321,2.733428354909687,0.0
4322,4.8138284275307175,0.0
4323,-3.073512527853322,0.0
4324,-2.7255206553452638,0.0
4325,-0.29647315907609606,0.0
4326,-2.381640128365249,0.0
4327,-1.290469340646995,0.0
4328,-1.5442500583666254,0.0
4329,-1.6157338129058743,0.0
4330,-1.6139509382577402,0.0
4331,-1.6528291193506612,0.0
4332,-1.565011938055516,0.0
4333,-1.666093663298999,0.0
4334,-1.6111488183110028,0.0
4335,-1.662459083198411,0.0
