timestamp,value-0,is_anomaly
0,8.302172923720804,0
1,11.433479664280803,0
2,14.964139955378656,0
3,7.752312883992194,0
4,6.092311305809467,0
5,9.585599517815382,0
6,7.2338605625752415,0
7,8.15304189927795,0
8,8.026527218576051,0
9,8.004877026786383,0
10,7.984344263616712,0
11,7.942676044308396,0
12,7.987605873767748,0
13,7.927981571463331,0
14,7.987667405703955,0
15,7.8264188642954675,0
16,7.850079233672623,0
17,8.000370407840721,0
18,8.035802551164034,0
19,7.970129908339036,0
20,8.217252668044438,0
21,11.52334312148033,0
22,14.919872267040489,0
23,7.613071075362177,0
24,5.876324450393431,0
25,9.434969296705864,0
26,7.3043445993190375,0
27,8.03635864344537,0
28,8.075693992411253,0
29,7.88607313390548,0
30,7.981979670429631,0
31,7.838249961556205,0
32,7.821090382236902,0
33,7.9170593777544465,0
34,7.95458619041292,0
35,7.827116255997329,0
36,7.777413158300993,0
37,7.828798732650672,0
38,7.9006066887025295,0
39,7.847075776943509,0
40,8.147728340060562,0
41,11.285424857525822,0
42,14.769679247706323,0
43,7.551587413132141,0
44,5.878238120207994,0
45,9.45029497185283,0
46,7.045021038990682,0
47,8.029435353474133,0
48,7.869172855582574,0
49,7.815606481107132,0
50,7.819542293527724,0
51,7.850008927595778,0
52,7.844406832325657,0
53,7.804038166286436,0
54,7.853703124452089,0
55,7.84321560326137,0
56,7.71397915391184,0
57,7.810178724333882,0
58,7.715929293309985,0
59,7.789061134641347,0
60,8.058657876643386,0
61,11.272471285398815,0
62,14.58685917321772,0
63,7.672986391995434,0
64,5.657679289160083,0
65,9.33399833872302,0
66,7.040846076507332,0
67,8.051103585004782,0
68,7.958134192643646,0
69,7.738213699363935,0
70,7.77351891998076,0
71,7.737733105633962,0
72,7.719642298157738,0
73,7.68315210859159,0
74,7.743609152283548,0
75,7.757895760838918,0
76,7.721897046291579,0
77,7.613836148983001,0
78,7.705685955580047,0
79,7.685791977574191,0
80,8.00064736287562,0
81,11.195029725238982,0
82,14.612641683745636,0
83,7.3533975796486235,0
84,5.658012110256891,0
85,9.1794374943045,0
86,6.988485784309807,0
87,7.893110298271502,0
88,7.619886008433175,0
89,7.626164148419921,0
90,7.788314156628085,0
91,7.6238545228944385,0
92,7.689387643832939,0
93,7.585260813574429,0
94,7.756257043753677,0
95,7.629767126326967,0
96,7.541296271394381,0
97,7.579889824833533,0
98,7.673071828366777,0
99,7.708355165996901,0
100,7.909691689606154,0
101,11.124271974948138,0
102,14.45788804020071,0
103,7.403106663265202,0
104,5.562036015367541,0
105,9.231387407393928,0
106,6.929762904076004,0
107,7.807663880233425,0
108,7.635384635374841,0
109,7.588092447130169,0
110,7.591304390940261,0
111,7.5822326521536425,0
112,7.415010636310466,0
113,7.5818727207204875,0
114,7.555380961030609,0
115,7.565066102327739,0
116,7.694868093904805,0
117,7.588397300200302,0
118,7.591326809593337,0
119,7.410553454943868,0
120,7.840190150044523,0
121,11.09929338945724,0
122,14.491241607487058,0
123,7.189684574131883,0
124,5.716093716241776,0
125,9.089883121602366,0
126,6.911026542966656,0
127,7.466516501153331,0
128,7.442975245018944,0
129,7.616536451173073,0
130,7.590687192622893,0
131,7.4969759993144525,0
132,7.512474335997349,0
133,7.539308967603559,0
134,7.372742243874009,0
135,7.4134940898788395,0
136,7.459750808409384,0
137,7.382825491167889,0
138,7.417335004842761,0
139,7.5000553012616304,0
140,7.698561660346953,0
141,11.025218694240234,0
142,14.306219969135576,0
143,7.1631688693543865,0
144,5.410095639637532,0
145,8.994489469127863,0
146,6.735521438050204,0
147,7.593526865007343,0
148,7.4567307849763855,0
149,7.241088557196432,0
150,7.504543983525299,0
151,7.4244931444676245,0
152,7.375083069184613,0
153,7.397590076021312,0
154,7.353985670550847,0
155,7.288001871457685,0
156,7.3825305532125745,0
157,7.407569165354412,0
158,7.413234717744119,0
159,7.27844488922601,0
160,7.582254798415682,0
161,10.97532276298304,0
162,14.277794777009507,0
163,7.090850726127311,0
164,5.4646493433162515,0
165,8.934330641318418,0
166,6.6085013868646225,0
167,7.460097423795351,0
168,7.372728980448133,0
169,7.237229640601008,0
170,7.290622567697596,0
171,7.401989575524982,0
172,7.345760619491863,0
173,7.239474349261877,0
174,7.307309761196024,0
175,7.3337082925025605,0
176,7.200654471860657,0
177,7.2821800882150844,0
178,7.354650764358434,0
179,7.352128996499832,0
180,7.555929879477808,0
181,10.802726168547853,0
182,14.147623274676912,0
183,7.102659867657884,0
184,5.245512545311609,0
185,8.730241206422441,0
186,6.5148694815192805,0
187,7.33244768941262,0
188,7.274295829125188,0
189,7.174068193137128,0
190,7.24763821764013,0
191,7.351754686908862,0
192,7.26775894083328,0
193,7.268335994784563,0
194,7.101945991241737,0
195,7.246048469608298,0
196,7.232664532892053,0
197,7.206737252645573,0
198,7.198842661747966,0
199,7.248307161810214,0
200,7.480827483989155,0
201,10.724610103275474,0
202,14.210956964207465,0
203,7.030697790106375,0
204,5.290111409323336,0
205,8.791330005983538,0
206,6.512164296505466,0
207,7.290617738651296,0
208,7.198254118785742,0
209,7.1483189816437624,0
210,7.253837841371926,0
211,7.051799169366606,0
212,7.178685679624453,0
213,6.993214439862406,0
214,7.121095241223809,0
215,7.163071836608421,0
216,7.14403278786525,0
217,7.22889479176977,0
218,7.156451024365423,0
219,7.121943267213405,0
220,7.432336650750554,0
221,10.6767814046369,0
222,13.954231751350317,0
223,6.889712885004489,0
224,5.056172025146746,0
225,8.506782245390015,0
226,6.512138669961741,0
227,7.189001607646595,0
228,7.136570673759077,0
229,6.906297743131221,0
230,7.144089583422451,0
231,7.183516079623524,0
232,7.047514108119698,0
233,7.0372449580655125,0
234,7.090122778130103,0
235,7.090910647348479,0
236,7.0424893752167685,0
237,7.18244958433292,0
238,7.199225175813784,0
239,7.146124091184512,0
240,7.473726357702598,0
241,10.520357132772368,0
242,13.868854934933896,0
243,6.6730533286584786,0
244,5.091481250426639,0
245,8.669742104258578,0
246,6.347530268347954,0
247,7.126759274339498,0
248,7.030298315855634,0
249,7.020643036501094,0
250,7.132031885536415,0
251,7.053341410041263,0
252,6.905167554238811,0
253,6.907024772067188,0
254,7.085894096443408,0
255,7.091048003863798,0
256,7.0520325349272275,0
257,7.0137266779995535,0
258,7.089551914176262,0
259,7.0488782913983945,0
260,7.282172322089576,0
261,10.386155253232351,0
262,13.829881907249145,0
263,6.763328228976294,0
264,4.990123499337476,0
265,8.650105918123256,0
266,6.342296130246416,0
267,7.256788091915958,0
268,6.958892414929805,0
269,7.053474609609365,0
270,7.026393667147208,0
271,7.011440314434513,0
272,7.028001137336632,0
273,6.965947007062476,0
274,6.915470758259165,0
275,6.8973881877655465,0
276,6.926124546403931,0
277,6.926948280418987,0
278,7.041854523639997,0
279,7.0277894622556225,0
280,7.243738864886425,0
281,10.42071202908201,0
282,13.884822001482037,0
283,6.795889261689032,0
284,5.118843693586091,0
285,8.416835301569527,0
286,6.190921600506352,0
287,7.054351474903569,0
288,6.9402146936532345,0
289,6.902331690191836,0
290,6.980420937569712,0
291,6.851577219479034,0
292,6.97041457710553,0
293,6.893579937127997,0
294,6.838932825665873,0
295,6.961166590635238,0
296,6.910079416007005,0
297,6.987870981557202,0
298,6.909631021608097,0
299,6.955239653884893,0
300,7.170217488727193,0
301,10.488693256155674,0
302,13.698604556605897,0
303,6.549465967843681,0
304,4.957144844594052,0
305,8.460101971884855,0
306,6.1765174452631255,0
307,7.181132802123122,0
308,7.028140935245204,0
309,6.897025886704664,0
310,7.029985940392583,0
311,6.847243527630678,0
312,6.80622016848822,0
313,6.821197794666894,0
314,6.8934273169127085,0
315,6.743881098458552,0
316,6.848590507876682,0
317,6.875010243013933,0
318,6.852135204348816,0
319,6.794506704627448,0
320,7.20830363646607,0
321,10.286737216960857,0
322,13.621046952643631,0
323,6.400196708128046,0
324,4.728579331275038,0
325,8.253503536113707,0
326,6.189548312811797,0
327,6.931265308361338,0
328,6.912883163378758,0
329,6.7378203817285645,0
330,6.921127453072725,0
331,6.830564352543192,0
332,6.809950525640354,0
333,6.723411101484485,0
334,6.672623080182201,0
335,6.817164550885025,0
336,6.847563606909603,0
337,6.6830092185429475,0
338,6.791332736537219,0
339,6.893688590831663,0
340,7.07157334799559,0
341,10.288788351460447,0
342,13.70665633993124,0
343,6.3693786005858675,0
344,4.954845430333809,0
345,8.317313310368512,0
346,5.991943567024001,0
347,6.72635404381812,0
348,6.703208316490565,0
349,6.614333239686453,0
350,6.64242086245708,0
351,6.712070300331266,0
352,6.776131911574478,0
353,6.6715158328863104,0
354,6.505227207799302,0
355,6.809885899277337,0
356,6.663562516329669,0
357,6.676649347215133,0
358,6.789835620487706,0
359,6.575138276827475,0
360,7.000597144621457,0
361,10.151627124818624,0
362,13.62654158266259,0
363,6.297316012926552,0
364,4.69973055371584,0
365,8.088312179835373,0
366,5.9603750138131835,0
367,6.838608968712509,0
368,6.680572704546587,0
369,6.533421033426539,0
370,6.723804119444942,0
371,6.651528547274387,0
372,6.646683785088651,0
373,6.5044448789323575,0
374,6.674367615394548,0
375,6.667493220811797,0
376,6.550401651646596,0
377,6.661973966293312,0
378,6.619189597185091,0
379,6.616092036048707,0
380,6.8641846065998795,0
381,10.184815511130964,0
382,13.493308055315422,0
383,6.153258959856222,0
384,4.702904323025814,0
385,8.120632078152362,0
386,5.855928371629277,0
387,6.707141801159988,0
388,6.689467089776276,0
389,6.530756101541554,0
390,6.597045797679639,0
391,6.5441378948064335,0
392,6.363232461787363,0
393,6.483765552072118,0
394,6.535205109677998,0
395,6.516659128067996,0
396,6.496381455777251,0
397,6.431299299322206,0
398,6.716440235419071,0
399,6.494536729836915,0
400,6.881558318823542,0
401,10.044241038377406,0
402,13.484176950046578,0
403,6.2360463948997475,0
404,4.599164665869422,0
405,8.097711397080715,0
406,5.833376158575218,0
407,6.60403409469582,0
408,6.646228091614116,0
409,6.502496191103478,0
410,6.459086697055167,0
411,6.392425386612954,0
412,6.585739875177123,0
413,6.489535648689431,0
414,6.646049201379208,0
415,6.384539690159633,0
416,6.520653666557516,0
417,6.496000700207647,0
418,6.367603039859317,0
419,6.337078364863767,0
420,6.6968961177233455,0
421,9.862473626770331,0
422,13.401236248905917,0
423,6.0623062130425325,0
424,4.439690813651134,0
425,7.927434055542223,0
426,5.721754959789816,0
427,6.46066095761642,0
428,6.419364183273642,0
429,6.333744218504542,0
430,6.525374339763325,0
431,6.443455562642707,0
432,6.291039454620885,0
433,6.45854172640845,0
434,6.458811760121269,0
435,6.407611833382165,0
436,6.379127093007316,0
437,6.46436911215493,0
438,6.478841115667678,0
439,6.293822231337538,0
440,6.713842933350377,0
441,9.895425876581406,0
442,13.215768687638557,0
443,5.892327082862746,0
444,4.326281611143328,0
445,7.882819237820724,0
446,5.655082891598296,0
447,6.475573887154845,0
448,6.463673556240995,0
449,6.2612901076095175,0
450,6.363781878037264,0
451,6.457505014281567,0
452,6.38665682484324,0
453,6.249645176034625,0
454,6.373327175230508,0
455,6.337505539364543,0
456,6.440747294348786,0
457,6.4281570892463,0
458,6.390839390558636,0
459,6.249063773952932,0
460,6.725651270633984,0
461,9.955899176237153,0
462,13.20041524581363,0
463,5.843598281903312,0
464,4.4039264170023165,0
465,8.004669877388235,0
466,5.550308101232842,0
467,6.52786663807108,0
468,6.336756227184204,0
469,6.149310308646489,0
470,6.258082620822952,0
471,6.316541181158253,0
472,6.2578986319501615,0
473,6.213213084202305,0
474,6.227180772476134,0
475,6.144945421302211,0
476,6.269466940992002,0
477,6.2895065194217645,0
478,6.256674493884119,0
479,6.291897557214846,0
480,6.523230440374103,0
481,9.797384867704789,0
482,13.104926897495265,0
483,5.800942319438052,0
484,4.228409638570344,0
485,7.7693290766067395,0
486,5.531848148697556,0
487,6.245900420442407,0
488,6.304903872476428,0
489,6.178459495515851,0
490,6.193786797304229,0
491,6.273608397672618,0
492,6.148142686191394,0
493,6.082826026055668,0
494,6.17960725262632,0
495,6.246999530301702,0
496,6.160333752060843,0
497,6.20449465408342,0
498,6.149816226577129,0
499,6.171572150372844,0
500,6.266623988733621,0
501,9.785617491460275,0
502,12.965836995925493,0
503,5.7964124337577925,0
504,4.126747316680786,0
505,7.5261431469681055,0
506,5.1841451371419245,0
507,6.091353412655311,0
508,6.144029341017271,0
509,6.02941972777445,0
510,6.0556362307305385,0
511,6.044085657835919,0
512,5.981571857568068,0
513,6.096135355906514,0
514,5.993473959729119,0
515,6.049252563037137,0
516,6.075167923297979,0
517,5.951405932844755,0
518,6.043964510775194,0
519,6.171243230854568,0
520,6.393156222893235,0
521,9.656996610664985,0
522,12.926143427544888,0
523,5.583707033973923,0
524,4.22861490546134,0
525,7.637561957395708,0
526,5.372534384453223,0
527,6.286478102868377,0
528,6.177848096384059,0
529,6.062202441302203,0
530,6.100465761030041,0
531,5.982225232225387,0
532,6.061625789984921,0
533,5.994772828034039,0
534,6.050428649734849,0
535,6.042049997473938,0
536,5.987411334446619,0
537,5.968716985005659,0
538,6.008801214324048,0
539,6.048156754993627,0
540,6.233743594273138,0
541,9.490685956423162,0
542,12.674980959348156,0
543,5.644744655528917,0
544,4.093042975900987,0
545,7.567951717101803,0
546,5.179377511737446,0
547,6.045493545860007,0
548,6.0924114003317005,0
549,5.901346021646941,0
550,5.926569228295583,0
551,5.9865980116640545,0
552,5.9120094831301895,0
553,5.8997939389922704,0
554,5.853290516035898,0
555,5.872003241569819,0
556,5.83930183755195,0
557,5.885190525665671,0
558,5.896510754790621,0
559,5.859142728979056,0
560,6.211040811903067,0
561,9.545141669814974,0
562,12.747608088636447,0
563,5.4296639627741365,0
564,4.025917203172911,0
565,7.544911818501078,0
566,5.17652183659201,0
567,5.964217925913255,0
568,5.993651557524424,0
569,5.756129596988786,0
570,5.786415472617741,0
571,5.892244284779325,0
572,5.843432755514749,0
573,5.845383600599201,0
574,5.828128000059576,0
575,5.772350177964644,0
576,5.884738641173469,0
577,5.793889926832566,0
578,5.7271730891103045,0
579,5.8171544854992225,0
580,6.155514479313701,0
581,9.311303599236437,0
582,12.659148362079925,0
583,5.3491363721836125,0
584,3.866312815482041,0
585,7.4261256687664225,0
586,5.148284066747095,0
587,6.042029511228014,0
588,5.869059926918926,0
589,5.752204963087276,0
590,5.899845323445066,0
591,5.916639182617136,0
592,5.92075923944956,0
593,5.821308464872055,0
594,5.825378256603987,0
595,5.911902866716858,0
596,5.807106779516524,0
597,5.933463706812512,0
598,5.761430174542441,0
599,5.717140972722175,0
600,6.08699526015992,0
601,9.408677910839094,0
602,12.515843234733568,0
603,5.403647298892734,0
604,3.734829732402571,0
605,7.197497320012349,0
606,4.922335072595165,0
607,5.932170515858825,0
608,5.795625739525296,0
609,5.533440814477357,0
610,5.787254176539122,0
611,5.653661994137014,0
612,5.597342335570851,0
613,5.580105810524738,0
614,5.7065512851379765,0
615,5.7476291962307835,0
616,5.736186550823261,0
617,5.801763083299922,0
618,5.689704709381976,0
619,5.595366019980711,0
620,5.897877724668493,0
621,9.277924601912993,0
622,12.481372722332004,0
623,5.222769260017782,0
624,3.757630348262005,0
625,7.151348661889245,0
626,4.953526981710781,0
627,5.838330783214369,0
628,5.707950570006478,0
629,5.6168725149793,0
630,5.582307359951558,0
631,5.596530222146522,0
632,5.704516841802134,0
633,5.539601157939569,0
634,5.5231871092068,0
635,5.609230252765276,0
636,5.699933007558763,0
637,5.432075609041997,0
638,5.5661794220114675,0
639,5.5892429018908265,0
640,5.763023816085223,0
641,9.133118354871279,0
642,12.406484865204508,0
643,5.248828884984727,0
644,3.7490041969576575,0
645,7.11610324218393,0
646,4.906636746097753,0
647,5.830471145003497,0
648,5.540838567194081,0
649,5.595583889889231,0
650,5.644825827758579,0
651,5.550028952071807,0
652,5.617997241129636,0
653,5.58541521103715,0
654,5.626822329095853,0
655,5.597968517571753,0
656,5.512726780145972,0
657,5.676466341991352,0
658,5.476360913936789,0
659,5.4601929019686475,0
660,5.654790640646656,0
661,9.1978914861701,0
662,12.326055467132742,0
663,5.095372363222365,0
664,3.5342069543573333,0
665,6.992651334474338,0
666,4.7668508323067975,0
667,5.456041626435825,0
668,5.596714067504191,0
669,5.390018672543394,0
670,5.57233908801663,0
671,5.471523556878515,0
672,5.3763191903268135,0
673,5.476576991645727,0
674,5.605356939005828,0
675,5.444704065866466,0
676,5.464683752059563,0
677,5.481799601271918,0
678,5.461020576359776,0
679,5.345968157380661,0
680,5.708208417529848,0
681,9.029521067400733,0
682,12.250641455553456,0
683,4.908815735126277,0
684,3.5711557834212426,0
685,6.884381381407986,0
686,4.591374671807871,0
687,5.585014441151863,0
688,5.377181123131421,0
689,5.293303307451574,0
690,5.3514531828282665,0
691,5.338743401766435,0
692,5.336914944724721,0
693,5.358154093295599,0
694,5.29282236338155,0
695,5.3660296452362966,0
696,5.339185848892087,0
697,5.451785355459362,0
698,5.180979924785887,0
699,5.2699768914209315,0
700,5.555854313821859,0
701,9.008013109172182,0
702,12.18869497361328,0
703,4.8871587090583875,0
704,3.505576179610125,0
705,7.022687924307469,0
706,4.775467106195984,0
707,5.361783069583589,0
708,5.344363433539396,0
709,5.2480254025273965,0
710,5.344596359115371,0
711,5.25883769566477,0
712,5.419519252486423,0
713,5.269812541066241,0
714,5.390158465979795,0
715,5.291123922352417,0
716,5.33358383332002,0
717,5.231668998101371,0
718,5.422284541667106,0
719,5.306811492848592,0
720,5.500610833507677,0
721,9.051784904930829,0
722,12.204437848503222,0
723,4.895631519677416,0
724,3.448997582530288,0
725,6.859343739918527,0
726,4.588593790203661,0
727,5.376381429598382,0
728,5.196671016550943,0
729,5.1557280914288395,0
730,5.279449441492017,0
731,5.328843569179082,0
732,5.428471345925195,0
733,5.275963145588411,0
734,5.21793141126191,0
735,5.322288881949766,0
736,5.216090550058029,0
737,5.100798659582008,0
738,5.272994935803734,0
739,5.40421028355566,0
740,5.692782059871149,0
741,8.963339730821644,0
742,12.108865360027632,0
743,4.656653872374555,0
744,3.4495305195541084,0
745,6.830831799064558,0
746,4.540509639892352,0
747,5.391456115597151,0
748,5.355666440086398,0
749,5.2511075734158625,0
750,5.1347544719146025,0
751,5.242181087140406,0
752,5.206849662973355,0
753,5.169194162120375,0
754,5.197216010059178,0
755,5.124467815481418,0
756,5.219328801567052,0
757,5.259763980067158,0
758,5.180607602036208,0
759,5.193732929140513,0
760,5.590176127751394,0
761,8.830758094267525,0
762,11.94717487800465,0
763,4.789468431992427,0
764,3.4118834137911387,0
765,6.606985950181394,0
766,4.5194583122609036,0
767,5.386089300873266,0
768,5.16348206839827,0
769,5.204030671030759,0
770,5.218244282076316,0
771,5.3538331091584155,0
772,5.138915676836312,0
773,5.181140157741931,0
774,5.153380314236002,0
775,5.079558130777998,0
776,5.172315237286228,0
777,5.087879774002397,0
778,5.212506136107824,0
779,5.220515292184698,0
780,5.475903160322165,0
781,8.782856435443682,0
782,11.927367610860099,0
783,4.572993633288215,0
784,3.3715752701143886,0
785,6.726585352701278,0
786,4.447290466334189,0
787,5.284004150564733,0
788,5.185097818503018,0
789,5.023051436956795,0
790,5.264740280101526,0
791,5.208373216559092,0
792,5.1425607651722105,0
793,5.135261340808414,0
794,5.179563644716699,0
795,5.027410008591383,0
796,5.1644430849981395,0
797,5.084201090868355,0
798,5.055525845339911,0
799,5.146547351381395,0
800,5.342827845191131,0
801,8.804300524529374,0
802,12.086208825717138,0
803,4.638004662603342,0
804,3.311887296847362,0
805,6.718583773614286,0
806,4.3744956469631475,0
807,5.28682430319979,0
808,5.093859850921831,0
809,5.038521767464953,0
810,5.2110776456817804,0
811,5.09060742798184,0
812,4.940620773205731,0
813,5.029335997833369,0
814,5.018715600449355,0
815,4.899433001765475,0
816,4.996253581207466,0
817,5.013062460671889,0
818,5.028044136919467,0
819,4.9728064124319244,0
820,5.269067794911095,0
821,8.659297944064436,0
822,11.844159808311055,0
823,4.483314933944458,0
824,3.2218488905075864,0
825,6.510291961134218,0
826,4.183058398781574,0
827,5.036090622611934,0
828,4.91935424986119,0
829,4.91118575202533,0
830,4.952682241854302,0
831,4.932397520410031,0
832,5.0436612502274665,0
833,4.919087475916106,0
834,4.985495216300993,0
835,4.882547454744451,0
836,4.890829728778259,0
837,5.011543297754844,0
838,4.87553083121944,0
839,4.972554671729914,0
840,5.135642343643886,0
841,8.527868426592244,0
842,11.872277177686179,0
843,4.4878685502595905,0
844,3.0851389673055243,0
845,6.595077871922071,0
846,4.192871848694584,0
847,4.944931536459716,0
848,4.882239744007313,0
849,4.9103952386756795,0
850,4.82610729021307,0
851,4.9992345170425825,0
852,4.918090091914821,0
853,4.776046098204015,0
854,4.812609957903315,0
855,4.859333434783747,0
856,4.7585623853726755,0
857,4.79629165983914,0
858,4.811554155713348,0
859,4.808946892750855,0
860,5.217011131057437,0
861,8.503525938096443,0
862,11.783800925119381,0
863,4.456217865101863,0
864,2.8968240798926557,0
865,6.348879445768656,0
866,4.057093431057549,0
867,5.061979465096997,0
868,4.709464212882739,0
869,4.783149478965977,0
870,4.966362588988221,0
871,4.8406726002359495,0
872,4.734391995192687,0
873,4.7812512408068075,0
874,4.8859181901757145,0
875,4.932515191484333,0
876,4.8581059936037905,0
877,4.767236249423356,0
878,4.722584927550281,0
879,4.78290928386,0
880,5.085129171394576,0
881,8.419404390789444,0
882,11.612297563514707,0
883,4.251914976055586,0
884,3.051949487308409,0
885,6.318963756057856,0
886,4.050689573765833,0
887,4.902592744300776,0
888,4.851223426601859,0
889,4.816224972784062,0
890,4.756279508401686,0
891,4.745723033705922,0
892,4.803585834098074,0
893,4.908300889422629,0
894,4.7053951974611445,0
895,4.632973718351529,0
896,4.791246285814458,0
897,4.832683757683936,0
898,4.6382698739125185,0
899,4.752385920803929,0
900,5.156908128055094,0
901,8.4456591116277,0
902,11.57141793946602,0
903,4.2458403017607775,0
904,2.896651643272489,0
905,6.238231076321128,0
906,4.000335205955353,0
907,4.827849616663817,0
908,4.688480566696487,0
909,4.672057821422594,0
910,4.580603691284477,0
911,4.684414573609982,0
912,4.748575655003691,0
913,4.747845773080958,0
914,4.777070267604671,0
915,4.721626695271109,0
916,4.591975087089891,0
917,4.72437986068758,0
918,4.599822927123123,0
919,4.647470170263299,0
920,4.974213871081057,0
921,8.34451075578328,0
922,11.444307720751272,0
923,4.1598184062788635,0
924,2.767849617411641,0
925,6.208995816012262,0
926,3.757699623356764,0
927,4.769688712314521,0
928,4.670903975054035,0
929,4.670812661250362,0
930,4.584099548214147,0
931,4.578571129753541,0
932,4.687976817439877,0
933,4.656720545011839,0
934,4.544475033161216,0
935,4.645402944342271,0
936,4.625680155819631,0
937,4.697355983875272,0
938,4.623407526554745,0
939,4.622487040489218,0
940,4.906623320479459,0
941,8.212651393845968,0
942,11.454073296750032,0
943,4.211683111551804,0
944,2.7421700629048282,0
945,6.1067479395884785,0
946,3.914310857898476,0
947,4.7182188745848315,0
948,4.713766595715963,0
949,4.509216666048496,0
950,4.568600903459261,0
951,4.641664215945283,0
952,4.613982660267967,0
953,4.4725805747449945,0
954,4.4789902948704245,0
955,4.498063150995292,0
956,4.489049350485731,0
957,4.537149558057761,0
958,4.550578867410085,0
959,4.453166689014305,0
960,4.926341444037662,0
961,8.145784927084641,0
962,11.463480531472014,0
963,4.129709274732512,0
964,2.7850991033180366,0
965,6.100232828341959,0
966,3.747176167996849,0
967,4.66067874000896,0
968,4.558208000547208,0
969,4.568476517459815,0
970,4.560591147042132,0
971,4.518679004366157,0
972,4.486945125808784,0
973,4.554269704297909,0
974,4.654952747604434,0
975,4.519126394681019,0
976,4.622340875239504,0
977,4.413288566572254,0
978,4.460026264694192,0
979,4.542880437761327,0
980,4.8145857741390214,0
981,8.1235626997037,0
982,11.211729082273722,0
983,3.9425187499927548,0
984,2.752751205587373,0
985,6.0655030907729985,0
986,3.711632377126837,0
987,4.655704003750066,0
988,4.467078073469675,0
989,4.399141790215241,0
990,4.554383037199103,0
991,4.531873166195101,0
992,4.560432004470311,0
993,4.471765663125091,0
994,4.418827887482064,0
995,4.4269672022665185,0
996,4.4153005864884545,0
997,4.408777049715851,0
998,4.308200740929983,0
999,4.527038490157607,0
1000,4.843004181157291,0
1001,8.13808107590632,0
1002,11.199787105104981,0
1003,3.9060982283001477,0
1004,2.6591272870101244,0
1005,5.908159188003008,0
1006,3.6843723226752014,0
1007,4.590719145301407,0
1008,4.347267592013096,0
1009,4.319663346008195,0
1010,4.361472333962143,0
1011,4.484193394030292,0
1012,4.39738060352929,0
1013,4.4725459686185145,0
1014,4.514243198506426,0
1015,4.4448138570093985,0
1016,4.442774615267792,0
1017,4.517052613712729,0
1018,4.384348302874447,0
1019,4.427018371356648,0
1020,4.803644275239077,0
1021,8.048081990286168,0
1022,11.132119548700269,0
1023,3.964562350614832,0
1024,2.6205890391103104,0
1025,5.902663497223011,0
1026,3.6473670462027505,0
1027,4.507700454685405,0
1028,4.393590619217322,0
1029,4.310488444712343,0
1030,4.318834509208749,0
1031,4.486114984311822,0
1032,4.263471586617757,0
1033,4.397971803378917,0
1034,4.351859571573504,0
1035,4.377027779516201,0
1036,4.380090445535116,0
1037,4.373282640392951,0
1038,4.431993248131099,0
1039,4.384871425424386,0
1040,4.5409417359889925,0
1041,8.008712547050328,0
1042,11.150782361961241,0
1043,3.7843486778805975,0
1044,2.4924749238153936,0
1045,5.88598527892769,0
1046,3.575100576405781,0
1047,4.50959231804338,0
1048,4.229756337691034,0
1049,4.300603633505062,0
1050,4.426577998498219,0
1051,4.3064466942128234,0
1052,4.317599115509951,0
1053,4.308145923141419,0
1054,4.319103497811392,0
1055,4.303163393743558,0
1056,4.364074767642442,0
1057,4.203233956662371,0
1058,4.121637214720104,0
1059,4.258619836173525,0
1060,4.462084740937992,0
1061,7.9991164276204545,0
1062,11.196119459467631,0
1063,3.767739691022032,0
1064,2.457542624123552,0
1065,5.745194275386946,0
1066,3.3961385096697523,0
1067,4.48850128686947,0
1068,4.33128880836911,0
1069,4.116173002208777,0
1070,4.326491015058718,0
1071,4.284678224316348,0
1072,4.116276894370815,0
1073,4.331696844842686,0
1074,4.230616004092324,0
1075,4.1709333157686155,0
1076,4.253354646701951,0
1077,4.112418913475596,0
1078,4.330183521155144,0
1079,4.157663736776108,0
1080,4.508616297016576,0
1081,7.945257010325297,0
1082,10.984543004316883,0
1083,3.68828861095255,0
1084,2.4455604222739113,0
1085,5.80520143272357,0
1086,3.47452723288579,0
1087,4.298345516450215,0
1088,4.264399278055556,0
1089,4.128721017771069,0
1090,4.194110155265697,0
1091,4.011742848043943,0
1092,4.118108370285823,0
1093,4.23432597617463,0
1094,4.189446515471198,0
1095,4.10673438313112,0
1096,4.149881624996567,0
1097,4.241624981568195,0
1098,4.197928234372206,0
1099,4.124760883044773,0
1100,4.468618440102764,0
1101,7.841449159669662,0
1102,10.877948879314614,0
1103,3.57507853197265,0
1104,2.3469011312395462,0
1105,5.771911900823872,0
1106,3.3567483245871683,0
1107,4.336894791428813,0
1108,4.079716046610228,0
1109,3.994364869272446,0
1110,4.2372770320121385,0
1111,4.086487704768757,0
1112,4.192538277898603,0
1113,4.1969390952732795,0
1114,4.168228634028745,0
1115,4.1378413196273165,0
1116,4.110307566948227,0
1117,4.083178221245087,0
1118,4.088478232379902,0
1119,4.126984744976135,0
1120,4.364770176076706,0
1121,7.810984868766053,0
1122,10.908678512774515,0
1123,3.4392784493522264,0
1124,2.30905940332213,0
1125,5.533080777969122,0
1126,3.462587912054096,0
1127,4.304336397892924,0
1128,4.100787850813974,0
1129,4.130866125971258,0
1130,4.076759083618795,0
1131,4.037499983151553,0
1132,4.05421471544345,0
1133,3.9750402383443464,0
1134,4.087538014040951,0
1135,4.179081492723913,0
1136,4.091376267028998,0
1137,3.976005734652074,0
1138,4.19676208854584,0
1139,4.059550769575861,0
1140,4.412799362810082,0
1141,7.803399999539014,0
1142,10.924397266049965,0
1143,3.4096112627795234,0
1144,2.372473345477428,0
1145,5.5146679648421735,0
1146,3.437769486466782,0
1147,4.197768635107787,0
1148,3.972227465038157,0
1149,4.052220067790099,0
1150,3.975057728092399,0
1151,3.951190866647135,0
1152,3.9140838683673995,0
1153,3.842955319498283,0
1154,4.1252289011494945,0
1155,4.019103810443389,0
1156,3.936911267851705,0
1157,3.956559630355256,0
1158,4.021387543000849,0
1159,3.8709487462946175,0
1160,4.328178047076321,0
1161,7.654439810985228,0
1162,10.679525713904251,0
1163,3.3557278078821886,0
1164,2.13179741134884,0
1165,5.352804261889455,0
1166,3.3100025856142836,0
1167,4.096881850113111,0
1168,4.046581278342402,0
1169,3.904596988980673,0
1170,3.929635551654053,0
1171,3.753904857959781,0
1172,4.08677734662561,0
1173,3.8808014135446447,0
1174,3.8486890538846645,0
1175,3.748782281542232,0
1176,3.956457453801006,0
1177,3.8599134546106,0
1178,3.7094516592416125,0
1179,3.800026140963188,0
1180,4.163039963480575,0
1181,7.552234075324865,0
1182,10.632905085949677,0
1183,3.321278605078316,0
1184,2.1227699834274705,0
1185,5.327511574081842,0
1186,3.0231284527383053,0
1187,4.1512269709040766,0
1188,3.81820799702989,0
1189,3.8829757517266414,0
1190,3.920820409097911,0
1191,3.7798227255277665,0
1192,3.7645562498476437,0
1193,3.892345967345481,0
1194,4.064601935882851,0
1195,3.8932477356951893,0
1196,3.9407564886684243,0
1197,3.8452840083591395,0
1198,3.9280505870627405,0
1199,3.809175906677261,0
1200,4.111719956326151,0
1201,7.481590220235552,0
1202,10.481849854370301,0
1203,3.204956948567753,0
1204,2.0397594335347424,0
1205,5.3567980775264115,0
1206,2.975842597469828,0
1207,3.8573828022057897,0
1208,3.857449249114677,0
1209,3.846328960983852,0
1210,3.746906269282645,0
1211,3.704628942045205,0
1212,3.8157147368722244,0
1213,3.7925162518727533,0
1214,3.754445910209529,0
1215,3.735860493750795,0
1216,3.7812339514111137,0
1217,3.757613331596005,0
1218,3.7875294524787995,0
1219,3.785097801005421,0
1220,3.991914410770793,0
1221,7.518498625926024,0
1222,10.50108362013221,0
1223,3.1274658848784607,0
1224,2.1242512443709143,0
1225,5.256474791523765,0
1226,2.9776275522263753,0
1227,4.062164348051344,0
1228,3.6913653159384006,0
1229,3.705330912508851,0
1230,3.800104441397354,0
1231,3.6835341998285496,0
1232,3.742549155636114,0
1233,3.6663098226898785,0
1234,3.949089304076667,0
1235,3.635071028929292,0
1236,3.728845681487838,0
1237,3.667241005829467,0
1238,3.6902996160547583,0
1239,3.662058530480195,0
1240,4.021053300286691,0
1241,7.441345824882909,0
1242,10.474119427174632,0
1243,2.9655368472986376,0
1244,1.8882404314352177,0
1245,5.38114618705441,0
1246,2.817075132397431,0
1247,3.965817681675516,0
1248,3.7610686656603862,0
1249,3.6638693461110883,0
1250,3.7276250507990545,0
1251,3.682956258645825,0
1252,3.6927692460236656,0
1253,3.754084060056681,0
1254,3.7526579129925945,0
1255,3.6927913484428467,0
1256,3.5835962495648546,0
1257,3.8083903573685856,0
1258,3.6359245301004544,0
1259,3.758670438640645,0
1260,4.047490517335341,0
1261,7.43633220236215,0
1262,10.492705347728158,0
1263,2.9759589311630146,0
1264,1.9437808585654708,0
1265,5.099237688384167,0
1266,2.8836751869871704,0
1267,3.6231910040611357,0
1268,3.6642332558189294,0
1269,3.576464558250362,0
1270,3.5390055115958345,0
1271,3.5550038698210513,0
1272,3.493463228811145,0
1273,3.542296724396372,0
1274,3.532390211915902,0
1275,3.4960509767900194,0
1276,3.594803549323217,0
1277,3.5897721501749307,0
1278,3.664496016308198,0
1279,3.608128192030383,0
1280,3.8825540945288792,0
1281,7.192153632551305,0
1282,10.379817644579107,0
1283,2.9344415558949097,0
1284,1.8115758610910746,0
1285,5.075546009703132,0
1286,2.8955193686305916,0
1287,3.6731607097214245,0
1288,3.5039601306592427,0
1289,3.4450226122788923,0
1290,3.520893119454037,0
1291,3.514597189545098,0
1292,3.397700538461866,0
1293,3.469913356663411,0
1294,3.6437925936158604,0
1295,3.3962542307943826,0
1296,3.601673661844926,0
1297,3.5377186644336476,0
1298,3.489674119832514,0
1299,3.517744322995122,0
1300,3.867311817092381,0
1301,7.176967633080542,0
1302,10.303247671419122,0
1303,2.841427851377821,0
1304,1.676812840543095,0
1305,4.983150252086307,0
1306,2.7385010889469497,0
1307,3.665625587076037,0
1308,3.4005156952214652,0
1309,3.362724537833117,0
1310,3.4965039313348276,0
1311,3.4804524494078994,0
1312,3.5523153784921644,0
1313,3.464451354031387,0
1314,3.476069460827939,0
1315,3.4295670031736165,0
1316,3.5012002865677925,0
1317,3.524461751108016,0
1318,3.5062166522428635,0
1319,3.571024005200983,0
1320,3.8409457590127594,0
1321,7.23785109487385,0
1322,10.195118689162438,0
1323,2.9366063610198316,0
1324,1.6516351123188855,0
1325,4.948099169354363,0
1326,2.7082685280996266,0
1327,3.6249875464003147,0
1328,3.4448197532989053,0
1329,3.333408952733256,0
1330,3.457412756730128,0
1331,3.383249240503339,0
1332,3.4463997983554155,0
1333,3.507340368934715,0
1334,3.458269558647934,0
1335,3.4346623868461794,0
1336,3.493140022957178,0
1337,3.480825349204819,0
1338,3.3667348478798544,0
1339,3.5010518990745574,0
1340,3.8263778639836676,0
1341,7.250699188091817,0
1342,10.208492989083695,0
1343,2.8026591266699716,0
1344,1.787552108342507,0
1345,5.03604230347354,0
1346,2.779450498023288,0
1347,3.64760203763613,0
1348,3.3540934660041315,0
1349,3.3924251212405174,0
1350,3.383972279818876,0
1351,3.270969437645467,0
1352,3.4802016981121633,0
1353,3.4014532567988196,0
1354,3.360154711568664,0
1355,3.4830344442138195,0
1356,3.325429783981251,0
1357,3.3584347517152953,0
1358,3.3750442254974433,0
1359,3.4223190680265074,0
1360,3.768352957249154,0
1361,6.996160141324353,0
1362,10.143939104804595,0
1363,2.6803502569272686,0
1364,1.6686025510700584,0
1365,4.8108225411227785,0
1366,2.5814782735379205,0
1367,3.4829729376788188,0
1368,3.354371739216912,0
1369,3.286463688409148,0
1370,3.4193590298315053,0
1371,3.412403943081364,0
1372,3.353682653938135,0
1373,3.3108224140243983,0
1374,3.2871200380457477,0
1375,3.3034217374703214,0
1376,3.3782252455668433,0
1377,3.287205711202658,0
1378,3.3568020423787326,0
1379,3.256013906302857,0
1380,3.6526419589865804,0
1381,7.126193537550554,0
1382,10.153874536117389,0
1383,2.566359429332242,0
1384,1.4880989855307891,0
1385,4.84904862762501,0
1386,2.492966730327372,0
1387,3.5084843790952136,0
1388,3.4368679838393934,0
1389,3.330708817447399,0
1390,3.485408256251765,0
1391,3.3309945392849443,0
1392,3.1775901356481593,0
1393,3.2476190238952745,0
1394,3.3082045245381675,0
1395,3.1767162198863534,0
1396,3.1807707826156992,0
1397,3.205072740028252,0
1398,3.1974398000908804,0
1399,3.286905495944035,0
1400,3.5779204749958886,0
1401,6.972716097763797,0
1402,9.96431355140111,0
1403,2.4816388893169514,0
1404,1.5673211426797358,0
1405,4.714275093384212,0
1406,2.5801200715135897,0
1407,3.3627677532108433,0
1408,3.272157683339387,0
1409,3.280440624655076,0
1410,3.2663350186380464,0
1411,3.1472310613026258,0
1412,3.273023962679732,0
1413,3.298956683479289,0
1414,3.2085481431888785,0
1415,3.289251203743698,0
1416,3.1538185832494294,0
1417,3.0980184417631333,0
1418,3.208375185412771,0
1419,3.2484541398291964,0
1420,3.5309300426038597,0
1421,6.9415303471514775,0
1422,9.959204528062605,0
1423,2.523288829076136,0
1424,1.4565119412741472,0
1425,4.468704010169358,0
1426,2.285326826685793,0
1427,3.45468671790846,0
1428,3.161275012290621,0
1429,3.126020186008211,0
1430,3.1908740690845576,0
1431,3.114675591459158,0
1432,3.1942905793039653,0
1433,3.027873815954287,0
1434,3.098935029318716,0
1435,2.9467313138062057,0
1436,3.0610632748300985,0
1437,2.97824567461711,0
1438,2.993798865460419,0
1439,3.1694956668623298,0
1440,3.39451894122059,0
1441,6.794176297091452,0
1442,9.798141006773259,0
1443,2.4315908515456197,0
1444,1.2872086047551912,0
1445,4.623762097707221,0
1446,2.3626491127146085,0
1447,3.157302581228287,0
1448,3.097556813206744,0
1449,3.162772559573683,0
1450,3.1633482132621444,0
1451,2.996880245108189,0
1452,3.0501015690623197,0
1453,3.0528713206651945,0
1454,2.916595318651574,0
1455,3.2434357957461213,0
1456,3.0065892672674384,0
1457,3.0875086222155153,0
1458,3.016940206205919,0
1459,3.1144231631510606,0
1460,3.419671935436251,0
1461,6.83096027501057,0
1462,9.902421931340303,0
1463,2.467315673978444,0
1464,1.2501688189645823,0
1465,4.577624767412627,0
1466,2.091166125578124,0
1467,3.023403296449812,0
1468,2.756992463831251,0
1469,2.9616122860669343,0
1470,2.9258963308996675,0
1471,2.8155245070816615,0
1472,2.9209548636914997,0
1473,2.976150475359015,0
1474,2.985027156533466,0
1475,2.9033644739071875,0
1476,2.9687625779841196,0
1477,2.918647908068103,0
1478,3.0432463791903666,0
1479,3.105304129299848,0
1480,3.333684649591422,0
1481,6.869039456780381,0
1482,9.677048244699442,0
1483,2.3630806863360863,0
1484,1.2380614328575683,0
1485,4.462266979413573,0
1486,2.207116647909933,0
1487,3.059841090864698,0
1488,3.037936180734858,0
1489,2.7486991524995514,0
1490,2.9320847267938497,0
1491,2.8929366678585526,0
1492,2.88773118135091,0
1493,2.9196056763762717,0
1494,2.9179141530242756,0
1495,3.0568649775360472,0
1496,2.9765960974068784,0
1497,3.03594545873128,0
1498,2.9458058348516527,0
1499,2.8338431520457372,0
1500,3.1530367325087663,0
1501,6.5745173269179995,0
1502,9.584088689225927,0
1503,2.3584217435487087,0
1504,1.1045279454385302,0
1505,4.2191116491162175,0
1506,2.0896801146578166,0
1507,3.146497019050223,0
1508,2.972691931554736,0
1509,2.9842036817382653,0
1510,2.9111454986758756,0
1511,2.855071103794986,0
1512,2.8717525066401723,0
1513,2.94337179469571,0
1514,2.864328554354332,0
1515,2.9575803815366366,0
1516,2.8493676443277502,0
1517,2.628759772194167,0
1518,2.77539478102787,0
1519,2.804176133552693,0
1520,3.0545722988445605,0
1521,6.6284757723912975,0
1522,9.566530210709823,0
1523,2.0481412888735946,0
1524,1.0194187047898065,0
1525,4.257695603610008,0
1526,2.026278721779536,0
1527,3.022336983484802,0
1528,2.734559370350493,0
1529,2.765394265513974,0
1530,2.9137929566506853,0
1531,2.7794193700966088,0
1532,2.837382215022006,0
1533,2.8665059566592754,0
1534,2.7533612631751927,0
1535,2.7281153278508756,0
1536,2.8657667916537837,0
1537,2.813283639788446,0
1538,2.7693766697555047,0
1539,2.726203861507738,0
1540,3.125027796101332,0
1541,6.593723515823695,0
1542,9.51771016393862,0
1543,2.084970154474544,0
1544,1.026687184439046,0
1545,4.267530334412748,0
1546,2.1790218895454982,0
1547,2.8320999532108666,0
1548,2.7842122821984274,0
1549,2.839707145964343,0
1550,2.7409213866674222,0
1551,2.8058733315858126,0
1552,2.8269625496046866,0
1553,2.83718188925713,0
1554,2.773093306767403,0
1555,2.764596788444534,0
1556,2.7546249086981867,0
1557,2.778099211322971,0
1558,2.9220601360336222,0
1559,2.837040842468201,0
1560,3.178569976181379,0
1561,6.4171166353003795,0
1562,9.606964973853389,0
1563,2.1558730070438505,0
1564,1.0239185992926279,0
1565,4.253057070452664,0
1566,2.0321937359327644,0
1567,3.109655606357395,0
1568,2.767700431229983,0
1569,2.5669537197316483,0
1570,2.762001142826117,0
1571,2.697396972868715,0
1572,2.730593830233224,0
1573,2.629108742465366,0
1574,2.751093417237461,0
1575,2.802161204121448,0
1576,2.7164712256142436,0
1577,2.6743240455728623,0
1578,2.8040300929546373,0
1579,2.7164617169117284,0
1580,3.0872406455188246,0
1581,6.377085102581413,0
1582,9.434076945791478,0
1583,1.9347031803000754,0
1584,0.9845537697411637,0
1585,4.184685392015364,0
1586,2.0055099320219574,0
1587,2.842973106927892,0
1588,2.7581963932823723,0
1589,2.7112345809121994,0
1590,2.6596571744120534,0
1591,2.7318405005787545,0
1592,2.7468167026733608,0
1593,2.698869179014187,0
1594,2.686077902389978,0
1595,2.566881634207556,0
1596,2.542200520468404,0
1597,2.6785184293120716,0
1598,2.6169664737390095,0
1599,2.5827644532025835,0
1600,2.9440878413972946,0
1601,6.481742931463117,0
1602,9.347833399363806,0
1603,2.03851726823455,0
1604,1.0072450417277021,0
1605,4.148197953789719,0
1606,1.9205064494200466,0
1607,2.797879526841949,0
1608,2.652780169934288,0
1609,2.6099693541414912,0
1610,2.7103130439741103,0
1611,2.546398111905765,0
1612,2.605810303673246,0
1613,2.658307273144938,0
1614,2.6659414720073893,0
1615,2.583598289533353,0
1616,2.601174708215695,0
1617,2.6611390455006823,0
1618,2.6092025119480735,0
1619,2.5165152504470334,0
1620,2.8758719066552105,0
1621,6.337989385938571,0
1622,9.506426083594732,0
1623,1.9345981634565828,0
1624,0.8836351265424618,0
1625,4.173570748530427,0
1626,1.7089711830724705,0
1627,2.836946499191968,0
1628,2.578246503659931,0
1629,2.5658972679634946,0
1630,2.6261910994721744,0
1631,2.5935796533461666,0
1632,2.6765777214763147,0
1633,2.4673394775921995,0
1634,2.748143056847452,0
1635,2.6788577024278237,0
1636,2.702220276094143,0
1637,2.650501316252332,0
1638,2.4949244091107468,0
1639,2.6469325114907747,0
1640,3.0306011707290845,0
1641,6.41101347246353,0
1642,9.332263380866157,0
1643,1.7878126266487804,0
1644,0.8488361949906695,0
1645,4.048610608059813,0
1646,1.749867898840436,0
1647,2.695088693660435,0
1648,2.5989186546571905,0
1649,2.4506458141626837,0
1650,2.4506255971583353,0
1651,2.5152610318410455,0
1652,2.5789664073938683,0
1653,2.6032238299946275,0
1654,2.5760703069272064,0
1655,2.487105101152845,0
1656,2.3956239353954207,0
1657,2.406549383879141,0
1658,2.5048149012391963,0
1659,2.4953362319988037,0
1660,2.970444404779073,0
1661,6.3867440971767895,0
1662,9.262654674688408,0
1663,1.7436109309365428,0
1664,0.7108024198386933,0
1665,4.026681773696922,0
1666,1.6564674464784526,0
1667,2.7380437519001823,0
1668,2.495347323809723,0
1669,2.3520151874471287,0
1670,2.499715772085866,0
1671,2.5051130945033666,0
1672,2.4209191943314874,0
1673,2.4433647823338323,0
1674,2.471454481044914,0
1675,2.4373055685660945,0
1676,2.4237347927235513,0
1677,2.376170131572723,0
1678,2.347923109936369,0
1679,2.59093869203104,0
1680,2.78301394062037,0
1681,6.264542621310984,0
1682,9.148995758990372,0
1683,1.6342371039006225,0
1684,0.7350870059838299,0
1685,3.9625382855837863,0
1686,1.6913722162555738,0
1687,2.637186355317935,0
1688,2.4713208722197173,0
1689,2.3882365321551804,0
1690,2.338291880010134,0
1691,2.3366580881310455,0
1692,2.3094557149728208,0
1693,2.4249104313070626,0
1694,2.3379387782615546,0
1695,2.4735072359449615,0
1696,2.4839304285055994,0
1697,2.4225211710175216,0
1698,2.4121148334204454,0
1699,2.4187760477411846,0
1700,2.715595389340817,0
1701,6.08533425141897,0
1702,9.088208994044326,0
1703,1.7109644841137492,0
1704,0.7098455666939503,0
1705,3.798549017227539,0
1706,1.6850387087057126,0
1707,2.7050322516024927,0
1708,2.4652855217724503,0
1709,2.315856599153754,0
1710,2.3275594613825477,0
1711,2.401029205526001,0
1712,2.248619852725742,0
1713,2.4534831939617208,0
1714,2.3926933246126136,0
1715,2.286256036194094,0
1716,2.4096600465751252,0
1717,2.3119757052535856,0
1718,2.4859287978554283,0
1719,2.3558925337817773,0
1720,2.6208173977146116,0
1721,6.134740933055775,0
1722,9.04416309156462,0
1723,1.4088676263724829,0
1724,0.6765123252080962,0
1725,3.966443783532777,0
1726,1.447384631252271,0
1727,2.5442602787151594,0
1728,2.4327145720363212,0
1729,2.139099061697164,0
1730,2.2499962095840282,0
1731,2.33275203067337,0
1732,2.265858590606787,0
1733,2.2531068679869932,0
1734,2.27078480014449,0
1735,2.4087643374074665,0
1736,2.1346959053334977,0
1737,2.2933414278390702,0
1738,2.2852996667803938,0
1739,2.341721128974848,0
1740,2.5000093666039978,0
1741,5.9712413328038165,0
1742,8.977145067741423,0
1743,1.5197324826665919,0
1744,0.6538282311584172,0
1745,3.6872886227586648,0
1746,1.574109507856962,0
1747,2.5104119654115538,0
1748,2.250749122318233,0
1749,2.1510170155429713,0
1750,2.381280735511371,0
1751,2.2699337093492478,0
1752,2.2858043247808952,0
1753,2.2239341706800744,0
1754,2.2849067469329527,0
1755,2.132181043646656,0
1756,2.2091906256699927,0
1757,2.309726081034982,0
1758,2.370496411558943,0
1759,2.2569971970268488,0
1760,2.5875124649877597,0
1761,6.001128826989703,0
1762,8.989206967851862,0
1763,1.4294682096951905,0
1764,0.6172265444063971,0
1765,3.7500449792472432,0
1766,1.4311962586469331,0
1767,2.599005226494982,0
1768,2.2764513188213433,0
1769,2.1191685530170328,0
1770,2.188012927509578,0
1771,2.2683349691893784,0
1772,2.228981544902193,0
1773,2.102579242872499,0
1774,2.2715896432167675,0
1775,2.1924355997703717,0
1776,2.2045115172286573,0
1777,2.1101025838145855,0
1778,2.257389867699434,0
1779,2.1723090543415995,0
1780,2.5365272559138887,0
1781,5.947710959487644,0
1782,8.971870061915162,0
1783,1.3579107865916522,0
1784,0.6049842695936847,0
1785,3.784077830832268,0
1786,1.4434346668732343,0
1787,2.30697897707881,0
1788,2.1736103193654883,0
1789,2.0613996678729842,0
1790,2.2763321783904416,0
1791,2.1634328849764506,0
1792,2.292542543781014,0
1793,2.3466984117700074,0
1794,2.042527808486232,0
1795,2.325798690031691,0
1796,2.055710138522158,0
1797,2.1947003036824237,0
1798,2.2504045418942047,0
1799,2.2086874994300643,0
1800,2.5202497137707045,0
1801,6.032313576836408,0
1802,8.892182305083546,0
1803,1.4520629473322404,0
1804,0.43180041965116733,0
1805,3.7213764066599158,0
1806,1.3461516373313132,0
1807,2.1812189219635165,0
1808,2.0882003585369526,0
1809,2.1682873563360374,0
1810,2.0937604119802296,0
1811,2.1749676748198348,0
1812,2.1696505188154225,0
1813,1.9794114715534281,0
1814,2.2492640122353005,0
1815,2.1953797565150652,0
1816,2.2391001373873576,0
1817,2.0376376041376654,0
1818,2.121176819481949,0
1819,2.073620167075584,0
1820,2.6107385808842434,0
1821,5.9904349225339395,0
1822,8.842534040426353,0
1823,1.3612811137278515,0
1824,0.5160519615453552,0
1825,3.6505896172026304,0
1826,1.4229082131786552,0
1827,2.142912738710885,0
1828,2.2498276693565042,0
1829,2.1111554424806758,0
1830,2.06911076674646,0
1831,2.105121241627447,0
1832,1.9914758734989944,0
1833,2.116580057427558,0
1834,2.0317226270376842,0
1835,2.0422954694110524,0
1836,2.1102065316622114,0
1837,2.0435742568779744,0
1838,2.132740379887317,0
1839,2.2320262046465613,0
1840,2.375602822654562,0
1841,5.836859144457618,0
1842,8.871400903922977,0
1843,1.2940574233863507,0
1844,0.4127157546817859,0
1845,3.6959209942471434,0
1846,1.366917062068775,0
1847,2.0760092115256747,0
1848,2.075942591170477,0
1849,2.0859379256017156,0
1850,1.9703649305240618,0
1851,2.001712885489209,0
1852,2.0071332307956906,0
1853,1.963118621898718,0
1854,2.105103543013287,0
1855,1.9313689004039691,0
1856,1.9922734612359538,0
1857,1.9326790720058031,0
1858,2.1507001903575382,0
1859,2.0078194439836277,0
1860,2.3111333790763346,0
1861,5.9031894400703555,0
1862,8.647205758795895,0
1863,1.2510230240483482,0
1864,0.3234349947049999,0
1865,3.51198754644152,0
1866,1.216935694946724,0
1867,2.1334538712030673,0
1868,1.9008941957311414,0
1869,1.733325483440019,0
1870,1.9572406102743236,0
1871,2.044331746600992,0
1872,1.9780441368574473,0
1873,1.8749580434771898,0
1874,1.906343181129209,0
1875,2.002024033305549,0
1876,2.0009421765649393,0
1877,1.8530865079560173,0
1878,1.8966892012483536,0
1879,1.9180761482096824,0
1880,2.2797217267814887,0
1881,5.83335912398257,0
1882,8.720207758645795,0
1883,1.2232426352884809,0
1884,0.2375596102683073,0
1885,3.4588194726720274,0
1886,1.2334669977195993,0
1887,2.1239511310817645,0
1888,1.894457962758508,0
1889,1.8796572826621594,0
1890,2.001509748988294,0
1891,1.9499365616440165,0
1892,2.0205150323449805,0
1893,1.9825408494916177,0
1894,1.9012249264648653,0
1895,2.001996946115799,0
1896,1.8436669756229873,0
1897,1.950683552277404,0
1898,1.9801545729801227,0
1899,1.949451772345556,0
1900,2.282916930570183,0
1901,5.724376903260397,0
1902,8.600017000536733,0
1903,1.1148760107354612,0
1904,0.2883921836504677,0
1905,3.4021639458030606,0
1906,1.0594180181699508,0
1907,2.014262064238614,0
1908,1.9009378501629535,0
1909,1.7640660654057119,0
1910,1.781847890456986,0
1911,1.8407278592297662,0
1912,1.87989010753178,0
1913,1.7034132800777408,0
1914,1.870239788492732,0
1915,1.8372818562377482,0
1916,1.7698768702802186,0
1917,1.9217464136527316,0
1918,1.802759656096875,0
1919,1.7648041676223447,0
1920,2.1012341523000786,0
1921,5.673745713745037,0
1922,8.44517331523523,0
1923,1.1020022682590984,0
1924,0.14558076759567284,0
1925,3.237999835160916,0
1926,0.9852196864709409,0
1927,1.966571340651576,0
1928,1.8349627247868743,0
1929,1.8372232704977844,0
1930,1.7779845967454144,0
1931,1.817452066200389,0
1932,1.764826508076449,0
1933,1.7703719630212051,0
1934,1.8454909473158365,0
1935,1.742459438640088,0
1936,1.724991179353031,0
1937,1.875282656719733,0
1938,1.7595688870249517,0
1939,1.632584815826123,0
1940,1.988068835590572,0
1941,5.61089005768969,0
1942,8.47786185755148,0
1943,0.9506642368148889,0
1944,0.26878882012100225,0
1945,3.275283270709184,0
1946,0.9117428846082273,0
1947,1.9460908223010562,0
1948,1.7065612809952506,0
1949,1.6932133579265902,0
1950,1.7494909982067484,0
1951,1.6081061220244541,0
1952,1.7959944090369688,0
1953,1.619260379377079,0
1954,1.731193155365368,0
1955,1.6646352131192577,0
1956,1.8211959434175458,0
1957,1.716906783491924,0
1958,1.6127769795663842,0
1959,1.7204825501364254,0
1960,2.0141826701234087,0
1961,5.583697276929939,0
1962,8.373543561297982,0
1963,0.7919995981879079,0
1964,-0.11838000713038399,0
1965,3.1805790636070332,0
1966,0.921686058302635,0
1967,1.786408017336465,0
1968,1.6993240555244835,0
1969,1.7658034657904391,0
1970,1.7870912098240492,0
1971,1.6935798329526626,0
1972,1.6872587807416224,0
1973,1.6479806918852447,0
1974,1.7504558910103438,0
1975,1.652401382134956,0
1976,1.7023096322827664,0
1977,1.801417935229729,0
1978,1.6323831882932736,0
1979,1.6561412764327947,0
1980,1.9981320502188749,0
1981,5.55759344657367,0
1982,8.377537473476274,0
1983,0.8390360743367509,0
1984,-0.01664453740737648,0
1985,3.2606630727920325,0
1986,1.0220684628585024,0
1987,1.8380172958158116,0
1988,1.6000033065081753,0
1989,1.6214841780153852,0
1990,1.606769275470197,0
1991,1.6517403998101865,0
1992,1.5078410293930695,0
1993,1.7819040284529264,0
1994,1.5557878786148314,0
1995,1.5374903758858978,0
1996,1.6728374441699805,0
1997,1.555057791828374,0
1998,1.6709989915278698,0
1999,1.577225005981719,0
2000,2.0887348247762483,0
2001,5.393738068734086,0
2002,8.229908375569037,0
2003,0.9013747400775182,0
2004,-0.006661851428206189,0
2005,3.1084051960673267,0
2006,0.8656814631938978,0
2007,1.8918566965266148,0
2008,1.671492920895287,0
2009,1.6379702579644044,0
2010,1.6367254437624497,0
2011,1.577652568411123,0
2012,1.6094775748626173,0
2013,1.599799508755107,0
2014,1.7041704579807955,0
2015,1.575678614268428,0
2016,1.5997493699691538,0
2017,1.5836096775281643,0
2018,1.5761150737689997,0
2019,1.652283230283763,0
2020,2.138839097223978,0
2021,5.341285755373768,0
2022,8.248183295016599,0
2023,0.8408128986765929,0
2024,0.06242049140968442,0
2025,3.178015273633264,0
2026,0.9617904321815309,0
2027,1.731822666069515,0
2028,1.5437798301828227,0
2029,1.4861716007713954,0
2030,1.6675041532589987,0
2031,1.6756827364226619,0
2032,1.5059839003814253,0
2033,1.6138675346316682,0
2034,1.5763665285457917,0
2035,1.5401894906767921,0
2036,1.5959293210625907,0
2037,1.6483010121395127,0
2038,1.6302396464089453,0
2039,1.5070024940185938,0
2040,1.8780588615214167,0
2041,5.3312402980674625,0
2042,8.293078994973108,0
2043,0.5674601959661617,0
2044,-0.0036721369276786486,0
2045,3.0156809307242973,0
2046,0.827218120180825,0
2047,1.6661814420412793,0
2048,1.6447990444956748,0
2049,1.5101680240403235,0
2050,1.578521986752478,0
2051,1.5983024636298049,0
2052,1.5441523352728195,0
2053,1.5579241842947733,0
2054,1.5673177200035073,0
2055,1.508071381002824,0
2056,1.6024037918804035,0
2057,1.5763785084067892,0
2058,1.5838713125555108,0
2059,1.5588202105885707,0
2060,1.902878775048012,0
2061,5.357629655572049,0
2062,8.324399871309538,0
2063,0.5635853985494004,0
2064,-0.011764146752046623,0
2065,3.048765235565875,0
2066,0.7582501506304152,0
2067,1.7277823412053983,0
2068,1.5427288334975864,0
2069,1.549724812986389,0
2070,1.5488503684844481,0
2071,1.5509714550157152,0
2072,1.4171308409166319,0
2073,1.4612115458017763,0
2074,1.4481746074847344,0
2075,1.3512423001548546,0
2076,1.3001198488645875,0
2077,1.4548847864766612,0
2078,1.4223438869592433,0
2079,1.3234762565528337,0
2080,1.6985720982840524,0
2081,5.335482486618248,0
2082,8.087036301719687,0
2083,0.5168441780824204,0
2084,-0.2998661586518363,0
2085,2.8960204498906466,0
2086,0.6205833287529515,0
2087,1.5470178500358465,0
2088,1.4320953149162694,0
2089,1.3106919436159548,0
2090,1.4205410666243776,0
2091,1.3916192831979026,0
2092,1.5743175890099497,0
2093,1.4532681248036297,0
2094,1.50072890022746,0
2095,1.409361587900689,0
2096,1.458651293742953,0
2097,1.4985505005645912,0
2098,1.4423738411768012,0
2099,1.518996087337284,0
2100,1.7344010385225004,0
2101,5.339009561063209,0
2102,8.248464015289162,0
2103,0.5777065884499304,0
2104,-0.27901673251936177,0
2105,2.8803229134393806,0
2106,0.6384732899803512,0
2107,1.6614550213454091,0
2108,1.3537399501756988,0
2109,1.3136338514671266,0
2110,1.4059645296369374,0
2111,1.3439589317296692,0
2112,1.2735890228619469,0
2113,1.2959609047423375,0
2114,1.3605726244394198,0
2115,1.4323673192556132,0
2116,1.4495926947388569,0
2117,1.2907800543961563,0
2118,1.3226763464730777,0
2119,1.458009351056843,0
2120,1.76593572348782,0
2121,5.254535667381688,0
2122,7.964340002706293,0
2123,0.7107664931426814,0
2124,-0.114997344912805,0
2125,2.7305273496106683,0
2126,0.5056971437330894,0
2127,1.6075597414846363,0
2128,1.277496504385972,0
2129,1.3397905774529228,0
2130,1.2683662539051268,0
2131,1.3078908233016258,0
2132,1.4236666740648447,0
2133,1.2074346644963414,0
2134,1.443856822754744,0
2135,1.1809892971207359,0
2136,1.270972506527715,0
2137,1.3496151947546715,0
2138,1.352185961503273,0
2139,1.3459899116962313,0
2140,1.7676706301967533,0
2141,5.27862695469256,0
2142,8.009835581921507,0
2143,0.5629437098455778,0
2144,-0.296697749641581,0
2145,2.904102224083221,0
2146,0.5400766098676961,0
2147,1.550257168958116,0
2148,1.1823254463994375,0
2149,1.3155567851302539,0
2150,1.2977326646427396,0
2151,1.292449604155488,0
2152,1.4205818531716767,0
2153,1.2215190109734382,0
2154,1.3830009992919106,0
2155,1.2699331663321887,0
2156,1.1523204611926574,0
2157,1.2870793085164804,0
2158,1.2927819701631778,0
2159,1.2798352082656983,0
2160,1.651209365474366,0
2161,5.180007152375984,0
2162,7.946822506310868,0
2163,0.47143897453150385,0
2164,-0.3168547778881454,0
2165,2.750368560979884,0
2166,0.39842947949635854,0
2167,1.5144780794939021,0
2168,1.3014528866687793,0
2169,1.3506760990439914,0
2170,1.397944384597038,0
2171,1.3959121892224688,0
2172,1.2127485196313532,0
2173,1.3043196039788814,0
2174,1.3443466086804263,0
2175,1.434996487190873,0
2176,1.3130107233488193,0
2177,1.1698868154763382,0
2178,1.324270277218448,0
2179,1.2963325487336903,0
2180,1.4709914770454264,0
2181,5.206142430781138,0
2182,7.822877755487695,0
2183,0.3840522128332493,0
2184,-0.37921434500802587,0
2185,2.806943949277197,0
2186,0.4186592926603875,0
2187,1.4695571292144907,0
2188,1.2038117600188274,0
2189,1.3620953761710493,0
2190,1.3854706540323247,0
2191,1.2348454251741414,0
2192,1.2704817467868341,0
2193,1.390676894017159,0
2194,1.2280123522997823,0
2195,1.2380920442139645,0
2196,1.2631257743622524,0
2197,1.3265067891688063,0
2198,1.2590357265549768,0
2199,1.2025056727880408,0
2200,1.4771712358641276,0
2201,5.176385540645576,0
2202,7.9033517853700275,0
2203,0.4385351600724755,0
2204,-0.3765317004148314,0
2205,2.6794494597303498,0
2206,0.5665553421259173,0
2207,1.4231852259453812,0
2208,1.1487196536690498,0
2209,1.1480182785374784,0
2210,1.2314116298867341,0
2211,1.2040225854933966,0
2212,1.265344997543664,0
2213,1.2430980561110496,0
2214,1.1502441351146206,0
2215,1.267385307035557,0
2216,1.1293585729465487,0
2217,1.316326992295012,0
2218,1.2770891574545193,0
2219,1.3173687455757022,0
2220,1.5140735038932334,0
2221,5.0053441207859795,0
2222,7.869156293161186,0
2223,0.42462169745802836,0
2224,-0.4500033323468282,0
2225,2.746133468428462,0
2226,0.4114468250492169,0
2227,1.407168815481341,0
2228,1.0577598280081313,0
2229,1.2485237155378317,0
2230,1.2042235055913988,0
2231,1.0866284790957665,0
2232,1.270085092434988,0
2233,1.2194834868656972,0
2234,1.2553308006590778,0
2235,0.987933996406152,0
2236,1.243010531585235,0
2237,1.2718847011307852,0
2238,1.146761337453556,0
2239,1.1420751561357596,0
2240,1.4066566922478738,0
2241,5.072952386153623,0
2242,7.87325855166943,0
2243,0.27367324725582576,0
2244,-0.49104231738882476,0
2245,2.649198164552015,0
2246,0.4344676618500567,0
2247,1.420965715796762,0
2248,1.2179665077439021,0
2249,1.268415178460272,0
2250,1.0759898241758632,0
2251,1.0172989705502007,0
2252,1.1628130811770545,0
2253,1.1267182670662235,0
2254,1.0330800145243675,0
2255,1.108233370043094,0
2256,1.099373513036945,0
2257,1.1795485555135916,0
2258,1.0210430098782743,0
2259,0.9611758281079535,0
2260,1.4585676692485312,0
2261,4.941641454308238,0
2262,7.902655695686155,0
2263,0.18667947598833767,0
2264,-0.48181972324421585,0
2265,2.5922017617053177,0
2266,0.33935687305280515,0
2267,1.2963625194447699,0
2268,1.1111391998756008,0
2269,1.1334088312385995,0
2270,1.1457368872375921,0
2271,0.9987458275931955,0
2272,1.0816888899331494,0
2273,1.122706597863612,0
2274,1.0910215706708533,0
2275,0.9472882918591933,0
2276,1.1266349108495441,0
2277,1.0813119067283181,0
2278,1.1557467702846274,0
2279,0.9824490415912599,0
2280,1.5128642055271686,0
2281,5.046019648588584,0
2282,7.877512311036666,0
2283,0.3106678409908388,0
2284,-0.5151437530625214,0
2285,2.600918442663546,0
2286,0.2826903070195699,0
2287,1.1972121426698195,0
2288,0.9742492828290056,0
2289,0.9666400599799235,0
2290,1.1697651726271736,0
2291,0.940166874117117,0
2292,0.9198265940837985,0
2293,0.9450923747712601,0
2294,0.8882052376161722,0
2295,1.0323477261090899,0
2296,0.9413954812891377,0
2297,1.0650254434653978,0
2298,1.0172188730651157,0
2299,1.0961842388403182,0
2300,1.4456344252653974,0
2301,4.899082086450421,0
2302,7.767281706114351,0
2303,0.24976779527594883,0
2304,-0.6385107003521138,0
2305,2.395997575718014,0
2306,0.2153554540338416,0
2307,1.1964763817650024,0
2308,0.9890309881489371,0
2309,1.0932191121430739,0
2310,1.1323852940451191,0
2311,0.9645365927207342,0
2312,0.9240965401435841,0
2313,0.8672303518118849,0
2314,0.948617641288248,0
2315,1.0057606077870265,0
2316,0.9573396336850015,0
2317,0.9798669271026225,0
2318,1.0247557872447601,0
2319,0.9433123984224084,0
2320,1.3116173016605597,0
2321,4.800249701236351,0
2322,7.70173315645563,0
2323,-0.010764999033097133,0
2324,-0.6232975362553017,0
2325,2.2910224091161546,0
2326,0.22193373060437294,0
2327,1.2362280019360061,0
2328,1.0527202026323779,0
2329,0.9455742174999612,0
2330,1.0762198669954204,0
2331,0.986634117094539,0
2332,1.0531671173784782,0
2333,0.8657360216678034,0
2334,0.9428881072353563,0
2335,0.863039616080085,0
2336,1.0808571335200523,0
2337,0.9612049636359076,0
2338,0.9037194802506224,0
2339,0.9246877640268415,0
2340,1.2947397574906907,0
2341,4.877008781026771,0
2342,7.616021851089341,0
2343,0.08987603619967366,0
2344,-0.5889295310008027,0
2345,2.371359311380461,0
2346,0.17113909644553693,0
2347,1.2270185483754912,0
2348,0.8403903219168319,0
2349,0.8826350779475522,0
2350,0.8525320512788985,0
2351,0.8211246408719668,0
2352,0.8499994521699696,0
2353,0.9221388161704902,0
2354,0.8482494770004008,0
2355,0.9257021547562422,0
2356,0.8682643038332889,0
2357,0.8658594543919717,0
2358,0.9096012679309806,0
2359,0.9990798323793173,0
2360,1.2367343282266516,0
2361,4.8017830048055,0
2362,7.553254806460826,0
2363,-0.0301702477704483,0
2364,-0.5502809262314285,0
2365,2.249807667607735,0
2366,0.12535741894339514,0
2367,1.0046999674742971,0
2368,0.9264424709150162,0
2369,0.7546361773700664,0
2370,0.8634725127373044,0
2371,0.8521775520999709,0
2372,1.0718270506452001,0
2373,0.919178592033575,0
2374,0.9778299716627571,0
2375,0.9242226136058658,0
2376,1.0735706256714326,0
2377,0.8072200052743005,0
2378,0.782088548526998,0
2379,0.9822633299662299,0
2380,1.1288372756237652,0
2381,4.829499534936133,0
2382,7.563524295446109,0
2383,-0.08663219127953536,0
2384,-0.7817884786155219,0
2385,2.4171782965860977,0
2386,0.15949487549405816,0
2387,1.1408966277725963,0
2388,0.8550578494661286,0
2389,0.923100132148156,0
2390,0.8612824319524357,0
2391,0.9305705126114947,0
2392,0.9210546364335365,0
2393,0.8215191591433773,0
2394,0.7658500106929237,0
2395,0.990137125173216,0
2396,0.8295802696776872,0
2397,0.7205524598230999,0
2398,0.796382700549631,0
2399,0.7521923556210529,0
2400,1.0804168806683425,0
2401,4.706074461353012,0
2402,7.594883985067579,0
2403,-0.09945000562655903,0
2404,-0.904322258455618,0
2405,2.2854872944660585,0
2406,-0.03777585402348971,0
2407,1.091714259568053,0
2408,0.7672381453929237,0
2409,0.825377751014639,0
2410,0.7509751111183685,0
2411,0.7675623259818445,0
2412,0.7891256866447479,0
2413,0.8313923148816809,0
2414,0.7434852901661106,0
2415,0.6778577306450255,0
2416,0.7856372251657135,0
2417,0.8137500375175031,0
2418,0.9228962566292054,0
2419,0.8178684018338053,0
2420,1.1463394528460926,0
2421,4.812287864355852,0
2422,7.561035825211486,0
2423,-0.11930901227093149,0
2424,-0.7448036756221332,0
2425,2.3836763122490545,0
2426,0.06408415271372081,0
2427,1.0237163182460676,0
2428,0.6363868840355065,0
2429,0.7901907864070324,0
2430,0.8456529326480362,0
2431,0.7719084433213892,0
2432,0.6838792090717496,0
2433,0.7014487360021061,0
2434,0.8284254635383537,0
2435,0.7254197005921904,0
2436,0.7873340265142366,0
2437,0.7211648993897095,0
2438,0.7814755988397893,0
2439,0.8313954347248126,0
2440,1.1692558429617252,0
2441,4.770003303603516,0
2442,7.497181128038745,0
2443,-0.2717488050160851,0
2444,-0.8198612418862887,0
2445,2.1637706655805857,0
2446,-0.051386112247210236,0
2447,1.0136163859152025,0
2448,0.7593393278769198,0
2449,0.5993051962995334,0
2450,0.7672778172558885,0
2451,0.965172632389981,0
2452,0.6528752158016822,0
2453,0.7680621095492879,0
2454,0.8173878269072233,0
2455,0.7389110250570134,0
2456,0.7573446571459159,0
2457,0.7966131718289728,0
2458,0.6968490044565114,0
2459,0.7411855489631334,0
2460,1.0891958274721842,0
2461,4.581789321404614,0
2462,7.492640966349926,0
2463,-0.15104877160734698,0
2464,-0.7654910750740918,0
2465,2.102782820320662,0
2466,-0.08035936988376646,0
2467,0.781497117038225,0
2468,0.5542036754280586,0
2469,0.5913008869165979,0
2470,0.6114010396522376,0
2471,0.5982052263037863,0
2472,0.7405669281302218,0
2473,0.7165610689155829,0
2474,0.7278654190324543,0
2475,0.6160888396503086,0
2476,0.6222443511805583,0
2477,0.5321278964935772,0
2478,0.6017610919026324,0
2479,0.7850408294491256,0
2480,1.0097665140816803,0
2481,4.763760430268089,0
2482,7.33492061351012,0
2483,-0.22737837854669662,0
2484,-0.6986413383706683,0
2485,2.1269066883056706,0
2486,-0.16942003432693975,0
2487,0.7878890448602792,0
2488,0.7491533481474237,0
2489,0.6190578599760338,0
2490,0.5124121891756832,0
2491,0.61577361225308,0
2492,0.6525805583273955,0
2493,0.5980450663533439,0
2494,0.6364650007482712,0
2495,0.5376488976304897,0
2496,0.44877316495881825,0
2497,0.5978701645825686,0
2498,0.7216712046630682,0
2499,0.580425402370285,0
2500,0.9048748140461409,0
2501,4.539019860101917,0
2502,7.206671350035033,0
2503,-0.42703709132658485,0
2504,-1.006450569042598,0
2505,2.054515318398514,0
2506,-0.13089924530739672,0
2507,0.9050664078949434,0
2508,0.641915007557821,0
2509,0.506957779998844,0
2510,0.43363554518283154,0
2511,0.5465148340292316,0
2512,0.6160136888591382,0
2513,0.5999590454985543,0
2514,0.687692205842009,0
2515,0.5129250121421112,0
2516,0.5643799881349527,0
2517,0.6639669860315504,0
2518,0.5924224155460711,0
2519,0.5770750873678058,0
2520,0.9812678005267509,0
2521,4.508599054394363,0
2522,7.262956123305138,0
2523,-0.3929969697590757,0
2524,-0.9135986995426489,0
2525,1.9815414982657646,0
2526,-0.2837461872831319,0
2527,0.862881444075499,0
2528,0.5425067280711816,0
2529,0.6209562189346954,0
2530,0.7237569958532087,0
2531,0.5352543104336126,0
2532,0.6630042003011217,0
2533,0.5973021148702445,0
2534,0.6532247679473626,0
2535,0.48523534007316815,0
2536,0.5006905893120791,0
2537,0.6819943634311684,0
2538,0.6728447878722112,0
2539,0.605950940705006,0
2540,0.9284487908220236,0
2541,4.5029754403648425,0
2542,7.341879061502038,0
2543,-0.4554985365848773,0
2544,-0.961307127991814,0
2545,1.888566375175953,0
2546,-0.30021887755839133,0
2547,0.7477866177354997,0
2548,0.5140121562467286,0
2549,0.5677270763237983,0
2550,0.5090100288745086,0
2551,0.5445272734388806,0
2552,0.5529857316044734,0
2553,0.5408052608312115,0
2554,0.553161168486133,0
2555,0.5414110196937681,0
2556,0.6004298118293226,0
2557,0.5634505831089477,0
2558,0.5447489187864939,0
2559,0.42260709050472456,0
2560,1.0139712773103644,0
2561,4.4813000458419445,0
2562,7.285606006269025,0
2563,-0.38227166221087017,0
2564,-0.9342521113260053,0
2565,1.9450316688030667,0
2566,-0.20066043226087216,0
2567,0.809084661117288,0
2568,0.49688837753891996,0
2569,0.38128759450310157,0
2570,0.5270291913328728,0
2571,0.43240012261141025,0
2572,0.3927377509185483,0
2573,0.5255646069052783,0
2574,0.5807026666682976,0
2575,0.3546860324652904,0
2576,0.4185688460912698,0
2577,0.5292840768377374,0
2578,0.44617145141811565,0
2579,0.546878883530135,0
2580,0.8651943524665633,0
2581,4.431055993561967,0
2582,7.133594851738967,0
2583,-0.46108390244199304,0
2584,-0.967301206466297,0
2585,1.8413776050670339,0
2586,-0.3001365943301539,0
2587,0.6323110102252003,0
2588,0.33131765283495124,0
2589,0.5662601083898644,0
2590,0.3420502558255229,0
2591,0.5083928392860466,0
2592,0.37415202453018964,0
2593,0.36489412145617817,0
2594,0.39347623175455443,0
2595,0.4819782816805159,0
2596,0.46051324520121273,0
2597,0.3902009712205192,0
2598,0.39062487048350114,0
2599,0.39227906825727643,0
2600,0.6896449353655323,0
2601,4.415734484493729,0
2602,7.129236558263467,0
2603,-0.6060714140187077,0
2604,-1.1978191697213167,0
2605,1.908437243536281,0
2606,-0.2518547565504018,0
2607,0.5704205347299115,0
2608,0.41861921700240706,0
2609,0.42030884963860804,0
2610,0.3858368391714194,0
2611,0.4400005464239895,0
2612,0.44332725061969336,0
2613,0.34373270699631053,0
2614,0.43908932090399805,0
2615,0.3781149980437096,0
2616,0.34291813813486266,0
2617,0.32509232079245576,0
2618,0.33240511760586505,0
2619,0.30021736209269545,0
2620,0.7828934430934135,0
2621,4.448939508296712,0
2622,7.034882831935369,0
2623,-0.6775083814115395,0
2624,-1.1183122313337162,0
2625,1.8668055398021872,0
2626,-0.31226845781035856,0
2627,0.5463984325181106,0
2628,0.35709520892867114,0
2629,0.3208196013289333,0
2630,0.5710508725537764,0
2631,0.42441289884202993,0
2632,0.398145582343389,0
2633,0.4883886961675675,0
2634,0.284565901724007,0
2635,0.364561831351743,0
2636,0.4057738508604131,0
2637,0.3631136858371742,0
2638,0.35559897898503656,0
2639,0.2873723021340613,0
2640,0.677341372546119,0
2641,4.401186126236258,0
2642,7.060711062648308,0
2643,-0.630366466559942,0
2644,-1.236126349690544,0
2645,1.7447136216620172,0
2646,-0.3913330136494471,0
2647,0.38026008868711125,0
2648,0.3942372361423294,0
2649,0.2784660221735759,0
2650,0.22580256643690835,0
2651,0.3057906191659809,0
2652,0.2612321571364164,0
2653,0.2349848114981919,0
2654,0.4012039150485555,0
2655,0.2376730474241228,0
2656,0.37824830897373024,0
2657,0.31073928088710395,0
2658,0.234506393674379,0
2659,0.3430545313942124,0
2660,0.6170030208428966,0
2661,4.31812024514382,0
2662,7.011588381793415,0
2663,-0.6589912877101352,0
2664,-1.133502753264453,0
2665,1.594896487651627,0
2666,-0.5163429940648593,0
2667,0.5365771496794332,0
2668,0.34104626525384474,0
2669,0.25847093049702485,0
2670,0.3043337823062065,0
2671,0.4151283199545869,0
2672,0.37477345998011796,0
2673,0.31384162487491823,0
2674,0.2229797975590853,0
2675,0.20871099742265722,0
2676,0.26076206295247,0
2677,0.20752258852988592,0
2678,0.19025692667013203,0
2679,0.3619785010968889,0
2680,0.5047266018950104,0
2681,4.248349664953097,0
2682,6.896613375695316,0
2683,-0.7256547010583634,0
2684,-1.2873233329230667,0
2685,1.6141480578192462,0
2686,-0.5191431153078335,0
2687,0.42675948127298086,0
2688,0.1930523525905586,0
2689,0.08195683818484409,0
2690,0.19144401097935335,0
2691,0.1991400356629276,0
2692,0.3465813745077967,0
2693,0.28711786420250174,0
2694,0.1771851329442228,0
2695,0.23153997655052225,0
2696,0.31342021776608564,0
2697,0.30377649379878624,0
2698,0.15260258957124626,0
2699,0.15027673792012622,0
2700,0.5559364139290579,0
2701,4.168578228655811,0
2702,6.7405160205514,0
2703,-0.8258859368595972,0
2704,-1.2814556757964317,0
2705,1.7124791056468593,0
2706,-0.5742954184304868,0
2707,0.49853565086724283,0
2708,0.2634869693289716,0
2709,0.06481748627528626,0
2710,0.21122709140707552,0
2711,0.20957047620012692,0
2712,0.2006726136783125,0
2713,0.16808272043978406,0
2714,0.18320855808292114,0
2715,0.1793459084132721,0
2716,0.13168231113303241,0
2717,0.1015643337399284,0
2718,0.23430659326994285,0
2719,0.13284931178463194,0
2720,0.4813890745861718,0
2721,4.091521840647314,0
2722,6.8677799302547955,0
2723,-0.9121048009465422,0
2724,-1.4631911233554378,0
2725,1.4986089698145344,0
2726,-0.6969635286501901,0
2727,0.3648648566856516,0
2728,0.14627001182295646,0
2729,0.056615362142625414,0
2730,0.3362742002063041,0
2731,0.08842980087159959,0
2732,0.16505683112609348,0
2733,0.07448994835062132,0
2734,0.2632498954838947,0
2735,0.2088500427196683,0
2736,0.21484859371801898,0
2737,0.22520582396918476,0
2738,0.21454014639595756,0
2739,0.16149556669357956,0
2740,0.5615555712632165,0
2741,4.187544593255236,0
2742,6.731288327049446,0
2743,-0.8360706959399886,0
2744,-1.356179417573959,0
2745,1.478603079575093,0
2746,-0.6460209326932942,0
2747,0.3130645274453987,0
2748,0.1532205845418601,0
2749,0.03186229979260362,0
2750,0.10686271583307111,0
2751,0.09235403325815242,0
2752,0.07982564994376286,0
2753,0.035751235988616556,0
2754,0.110642324537604,0
2755,0.07237296245319644,0
2756,0.06922150803125193,0
2757,0.11602814746390505,0
2758,0.044141709678180846,0
2759,0.11324815824116742,0
2760,0.5181178148961387,0
2761,4.009340896119913,0
2762,6.733533316611657,0
2763,-0.8935638325126027,0
2764,-1.563457905942731,0
2765,1.3889849763405389,0
2766,-0.823021061336923,0
2767,0.3578918987931822,0
2768,-0.16167968977578293,0
2769,0.02002064748121518,0
2770,-0.008338983827895427,0
2771,0.1548407556646107,0
2772,-0.06795998003862946,0
2773,0.17700311088374684,0
2774,0.0748694548001809,0
2775,0.03339995563070129,0
2776,-0.01252620460806679,0
2777,-0.07071500962392525,0
2778,0.06405576224780338,0
2779,0.030524963660605725,0
2780,0.4288327218757648,0
2781,4.007666346319187,0
2782,6.75173272387802,0
2783,-1.0448103397243667,0
2784,-1.4872060961628515,0
2785,1.4186968443541177,0
2786,-0.728196869390648,0
2787,0.2159207374845571,0
2788,0.0851237891365041,0
2789,0.06402780267475837,0
2790,-0.05265592882352549,0
2791,-0.0017702975214153177,0
2792,0.01610407656586451,0
2793,-0.041336831983299224,0
2794,0.01511212895520378,0
2795,-0.09483647092020488,0
2796,-0.04422534945414433,0
2797,0.02702505712808108,0
2798,-0.11346477270613439,0
2799,-0.09072495508116037,0
2800,0.41215751260273226,0
2801,3.9155164730870755,0
2802,6.652637234050211,0
2803,-1.0682416257272165,0
2804,-1.5685590127081575,0
2805,1.4104690396415054,0
2806,-0.9052427203725142,0
2807,0.12987772047544469,0
2808,-0.028588983924635616,0
2809,-0.14386166148985424,0
2810,-0.010449987595290144,0
2811,0.02433098065864353,0
2812,0.017246204424584903,0
2813,-0.03783819922677835,0
2814,-0.049336409572440613,0
2815,0.1122187654982866,0
2816,0.0542432611320786,0
2817,-0.11843720366750267,0
2818,0.08355197820264398,0
2819,-0.08150813309559199,0
2820,0.33600867351963937,0
2821,4.087015186162157,0
2822,6.610846229142853,0
2823,-0.9917182210643524,0
2824,-1.5392139988965245,0
2825,1.452859622700032,0
2826,-0.8307528176897853,0
2827,0.2263667936415249,0
2828,-0.048015985703796726,0
2829,-0.056212347444424195,0
2830,-0.1734858525683904,0
2831,0.05003230001253167,0
2832,-0.14104566930445053,0
2833,-0.1784848950894829,0
2834,-0.01269386002594812,0
2835,-0.10198181916113341,0
2836,-0.015325849262022607,0
2837,-0.20843216792156194,0
2838,-0.14331831419196325,0
2839,-0.10145126834056196,0
2840,0.37980701564804764,0
2841,3.9423248718321013,0
2842,6.72218188858834,0
2843,-1.0808079933467323,0
2844,-1.590070456812059,0
2845,1.3463541754568042,0
2846,-0.9632945672798129,0
2847,0.18257936850943537,0
2848,-0.16454299134135544,0
2849,-0.036384505508222066,0
2850,-0.20184637545031692,0
2851,-0.18016042251918524,0
2852,-0.1471357805398676,0
2853,-0.1027532922597853,0
2854,-0.1483496410643268,0
2855,-0.07610652886924577,0
2856,-0.19380158505795136,0
2857,-0.17182329076181324,0
2858,0.010341591819284235,0
2859,-0.2331187767373437,0
2860,0.2835804116031054,0
2861,3.9611036804634607,0
2862,6.593576576924874,0
2863,-1.1311138870963784,0
2864,-1.616210305230764,0
2865,1.283942288909567,0
2866,-0.977755249732465,0
2867,0.12057953012421002,0
2868,-0.04262780355082333,0
2869,-0.13724971390730456,0
2870,-0.12787111007069737,0
2871,0.05652192966119044,0
2872,0.10460304180159458,0
2873,-0.04407882167839761,0
2874,-0.00879633244929369,0
2875,-0.06076866294117343,0
2876,-0.08292476800860939,0
2877,0.04287206757196682,0
2878,-0.09575560344624959,0
2879,0.04624686588607751,0
2880,0.20668877992435744,0
2881,3.803199989527903,0
2882,6.569593504733517,0
2883,-1.1117260436935057,0
2884,-1.7276858140859441,0
2885,1.2643140465309857,0
2886,-0.9646154827648705,0
2887,0.09021925513054802,0
2888,-0.17206001903054,0
2889,-0.23537993810255983,0
2890,-0.1648589322884301,0
2891,-0.029464814626495923,0
2892,-0.15139508891176118,0
2893,-0.12158457456932063,0
2894,-0.017087470345073692,0
2895,-0.16197742972921592,0
2896,-0.2011501135281401,0
2897,-0.17139216309146332,0
2898,-0.0891953590147091,0
2899,-0.22415780742284386,0
2900,0.3353019280378837,0
2901,3.8680083662797182,0
2902,6.364629644399205,0
2903,-1.1649840355268184,0
2904,-1.6285115013190297,0
2905,1.29722534560405,0
2906,-0.9553800510802454,0
2907,0.10591581585690221,0
2908,-0.27269609552998875,0
2909,-0.18825842248565697,0
2910,-0.07066757060540377,0
2911,-0.14677348499189177,0
2912,-0.1715955073638899,0
2913,-0.10807656846454924,0
2914,-0.16600675015499922,0
2915,-0.2134632107948425,0
2916,-0.16923068374240058,0
2917,-0.2307986098357095,0
2918,-0.07014864488791309,0
2919,-0.1311783567732393,0
2920,0.25218402133896234,0
2921,3.929213694505389,0
2922,6.530985761569943,0
2923,-1.2350559482109171,0
2924,-1.6190066669679368,0
2925,1.2503564088677113,0
2926,-0.9712928379946042,0
2927,-0.006830931183814309,0
2928,-0.08683557029163828,0
2929,-0.256518329998709,0
2930,-0.22370478192536702,0
2931,-0.20430560887680238,0
2932,-0.24094065861253944,0
2933,-0.27039096956931646,0
2934,-0.20952590505721017,0
2935,-0.12107460500466294,0
2936,-0.3368864104444578,0
2937,-0.2382305202581616,0
2938,-0.16378624996073227,0
2939,-0.3067850081798037,0
2940,0.22215125625541515,0
2941,3.8582356397360362,0
2942,6.479807519793274,0
2943,-1.2042117540979203,0
2944,-1.5610987986808869,0
2945,1.2105151072319382,0
2946,-0.879074999053593,0
2947,0.08120792783903102,0
2948,-0.21347119103400847,0
2949,-0.1597345134614977,0
2950,-0.2954581453522056,0
2951,-0.130592196076409,0
2952,-0.17587595354180247,0
2953,-0.3112055994363122,0
2954,-0.2589018956863912,0
2955,-0.2430759401158007,0
2956,-0.2626500564074457,0
2957,-0.2455214823263162,0
2958,-0.2032053344070296,0
2959,-0.22304742590922744,0
2960,0.013800711052024128,0
2961,3.871088847432097,0
2962,6.454124524039006,0
2963,-1.3615473708404708,0
2964,-1.6562609212533506,0
2965,1.0516570517480774,0
2966,-0.9901142629805766,0
2967,0.012509312226837405,0
2968,-0.2748160707830194,0
2969,-0.1520934201238266,0
2970,-0.10611354475476008,0
2971,-0.21428910817878444,0
2972,-0.1821914820150647,0
2973,-0.3088265859952069,0
2974,-0.36895912659085045,0
2975,-0.1903738645122723,0
2976,-0.238017219109935,0
2977,-0.2527502535202677,0
2978,-0.22396789520253046,0
2979,-0.30976129978302736,0
2980,0.11096139659418286,0
2981,3.776731550757899,0
2982,6.409030417483488,0
2983,-1.2649597235730734,0
2984,-1.6901873958150322,0
2985,1.215145353967519,0
2986,-1.0175897609104552,0
2987,-0.07808819890102517,0
2988,-0.340689781685791,0
2989,-0.32239455000416584,0
2990,-0.2689838716128193,0
2991,-0.28320875143485574,0
2992,-0.25843835262503156,0
2993,-0.23103054309639492,0
2994,-0.2689793097537836,0
2995,-0.33883503821978905,0
2996,-0.18727069223542617,0
2997,-0.23061197426216384,0
2998,-0.1958533370920244,0
2999,-0.21462414035074748,0
3000,0.1925676238199906,0
3001,3.8403772959028313,0
3002,6.3269131265843335,0
3003,-1.3918112532138525,0
3004,-1.692501662824581,0
3005,1.1344691616119484,0
3006,-1.1429974116050505,0
3007,-0.19446952491115485,0
3008,-0.32119420243131014,0
3009,-0.3300108753471995,0
3010,-0.23881790453185253,0
3011,-0.3363189656327999,0
3012,-0.44557177520106844,0
3013,-0.2963561584182379,0
3014,-0.224204132891674,0
3015,-0.4076862118025622,0
3016,-0.23583159616838995,0
3017,-0.28357568767076774,0
3018,-0.364795106036681,0
3019,-0.2997682940674626,0
3020,0.11288880954873137,0
3021,3.5900449215270887,0
3022,6.321353975485256,0
3023,-1.5088596321866143,0
3024,-1.818204720886608,0
3025,1.1720629332454204,0
3026,-1.144617650701489,0
3027,-0.037144409055079736,0
3028,-0.4318626932515712,0
3029,-0.35326413195687784,0
3030,-0.3576395025948735,0
3031,-0.3570495701028243,0
3032,-0.31182216143123975,0
3033,-0.262621458472655,0
3034,-0.3913357880777184,0
3035,-0.4312645247153874,0
3036,-0.3651138736772507,0
3037,-0.5083434742217968,0
3038,-0.2957405099124282,0
3039,-0.48188375835646435,0
3040,0.0002207483684501521,0
3041,3.6097618673622125,0
3042,6.2122210293490365,0
3043,-1.5014273476294293,0
3044,-1.769028600848808,0
3045,1.0924845127991285,0
3046,-1.165233727193334,0
3047,-0.17084987218337572,0
3048,-0.4216707191659661,0
3049,-0.3665571150115242,0
3050,-0.3518742389752824,0
3051,-0.28893344420113587,0
3052,-0.4453602026877027,0
3053,-0.3809630088406412,0
3054,-0.414747932761096,0
3055,-0.37388380672700583,0
3056,-0.46588201147089103,0
3057,-0.2721284753121575,0
3058,-0.3251268687698419,0
3059,-0.2742404099036595,0
3060,-0.11725048436811669,0
3061,3.80500338559245,0
3062,6.144975057719881,0
3063,-1.4179461759340204,0
3064,-1.7984139058586996,0
3065,1.0583270066850607,0
3066,-1.047971597723758,0
3067,-0.13239211765845843,0
3068,-0.4265520741460419,0
3069,-0.48020124124159735,0
3070,-0.40023273049212993,0
3071,-0.4362324223883146,0
3072,-0.3903845640505608,0
3073,-0.3600138489528443,0
3074,-0.3666698177771117,0
3075,-0.36976323337664374,0
3076,-0.41887033080506375,0
3077,-0.4572274010127443,0
3078,-0.41850665601735104,0
3079,-0.3804300883830819,0
3080,-0.012044509793811331,0
3081,3.584168761601398,0
3082,6.2632471639396465,0
3083,-1.375792316490323,0
3084,-1.6923254571672062,0
3085,0.9826711324186291,0
3086,-1.162211254036315,0
3087,-0.27555607788763103,0
3088,-0.44509546102183545,0
3089,-0.3989901861339998,0
3090,-0.2947034247129712,0
3091,-0.3215768671879259,0
3092,-0.3759369200499403,0
3093,-0.39732795132543597,0
3094,-0.45769903663065603,0
3095,-0.48074655931026095,0
3096,-0.523097667984842,0
3097,-0.5535089624085061,0
3098,-0.41822921497455967,0
3099,-0.579496917747329,0
3100,-0.2598311194894335,0
3101,3.5357354252910085,0
3102,6.041928418266915,0
3103,-1.5587661701238118,0
3104,-1.8552952073856983,0
3105,0.9047511622283307,0
3106,-1.4765745358853126,0
3107,-0.299301065166285,0
3108,-0.4513829618359242,0
3109,-0.524118912963069,0
3110,-0.5335120012884497,0
3111,-0.49420375073212286,0
3112,-0.3830254297541823,0
3113,-0.3876125876659452,0
3114,-0.42051451649697613,0
3115,-0.4042797587525366,0
3116,-0.5235868789662087,0
3117,-0.32049809015985425,0
3118,-0.47471059153603734,0
3119,-0.44310660732745105,0
3120,-0.07056318845460341,0
3121,3.6297358373557618,0
3122,6.094618227536947,0
3123,-1.616002590826458,0
3124,-1.8796508235868976,0
3125,1.0447570391878958,0
3126,-1.1839134980691128,0
3127,-0.17816479862948437,0
3128,-0.5961280711347465,0
3129,-0.5250313878683034,0
3130,-0.5266856720714882,0
3131,-0.5983452290160283,0
3132,-0.5303603704127106,0
3133,-0.49206242719536514,0
3134,-0.4122767153345289,0
3135,-0.41921533522760807,0
3136,-0.45046939536590835,0
3137,-0.4968562463351604,0
3138,-0.29426917890640214,0
3139,-0.43249652685766815,0
3140,-0.06809775823921577,0
3141,3.621801139666809,0
3142,6.171970008741655,0
3143,-1.688981462841662,0
3144,-1.8718266277165065,0
3145,0.908184279548028,0
3146,-1.1389032010518294,0
3147,-0.2654181587377606,0
3148,-0.416073249452093,0
3149,-0.5882928022081351,0
3150,-0.5004000557041284,0
3151,-0.5404892080942183,0
3152,-0.41248645375952275,0
3153,-0.5604422984136481,0
3154,-0.5956383588352596,0
3155,-0.5930574876623377,0
3156,-0.5435999240176118,0
3157,-0.48582975080613366,0
3158,-0.620050756707407,0
3159,-0.550592275633087,0
3160,-0.2061104089808664,0
3161,3.5150033210146323,0
3162,5.95700352041779,0
3163,-1.5759881921334364,0
3164,-1.9127036773464239,0
3165,0.9282601176666732,0
3166,-1.290998935349743,0
3167,-0.2089713356405201,0
3168,-0.5239276905268831,0
3169,-0.6047596198381269,0
3170,-0.5172051697757857,0
3171,-0.4085641369567187,0
3172,-0.5802744392713738,0
3173,-0.4777544426950363,0
3174,-0.5633266108300904,0
3175,-0.4955506787200401,0
3176,-0.4975787974462812,0
3177,-0.5865513492539236,0
3178,-0.588154068530449,0
3179,-0.5705688503470289,0
3180,-0.08058348787496117,0
3181,3.4404101640295983,0
3182,5.975851603078841,0
3183,-1.7111350832143708,0
3184,-2.0293307362555026,0
3185,0.9515492710496618,0
3186,-1.2391471004896524,0
3187,-0.37581909971172356,0
3188,-0.5858604984644941,0
3189,-0.6477678518108643,0
3190,-0.502262750761882,0
3191,-0.5016550299341709,0
3192,-0.6035167579654697,0
3193,-0.6742364200856821,0
3194,-0.4922885667322975,0
3195,-0.5295095899056746,0
3196,-0.49512062129244794,0
3197,-0.5738538361916732,0
3198,-0.44601565212288263,0
3199,-0.6486007671738967,0
3200,-0.06036223713692823,0
3201,3.5867634868123965,0
3202,6.0970307723883295,0
3203,-1.7128619547594517,0
3204,-2.035762654215964,0
3205,0.8438308460913877,0
3206,-1.292867812931175,0
3207,-0.4359455707504636,0
3208,-0.6979402831095779,0
3209,-0.6414173525318798,0
3210,-0.5091599921435954,0
3211,-0.5158915339643603,0
3212,-0.5838596334102324,0
3213,-0.737148471685357,0
3214,-0.5161112052134931,0
3215,-0.6159052794894289,0
3216,-0.5648105908023746,0
3217,-0.709953927587346,0
3218,-0.6659873636033099,0
3219,-0.6219438503569532,0
3220,-0.30907380599694784,0
3221,3.481969614217605,0
3222,5.9077978350748825,0
3223,-1.7987179929706072,0
3224,-2.218661973827697,0
3225,0.7388733500917044,0
3226,-1.434912163115637,0
3227,-0.4757265626482873,0
3228,-0.6956777145520373,0
3229,-0.6246041756226596,0
3230,-0.5784134038864073,0
3231,-0.6925194971323148,0
3232,-0.5521378401225677,0
3233,-0.7318327670513121,0
3234,-0.5173196810102932,0
3235,-0.5287858723544926,0
3236,-0.6858184254857096,0
3237,-0.5372819922896378,0
3238,-0.7570590607005743,0
3239,-0.576628726054769,0
3240,-0.14354780907012576,0
3241,3.3788889513565508,0
3242,5.9422814910223885,0
3243,-1.7853619104665177,0
3244,-1.877232384156663,0
3245,0.857865294502601,0
3246,-1.3439025625740082,0
3247,-0.28237045790150705,0
3248,-0.692750194922391,0
3249,-0.6191918997604282,0
3250,-0.5708167953942759,0
3251,-0.6872095001407669,0
3252,-0.5853535262251184,0
3253,-0.6659064734170996,0
3254,-0.5841555477226424,0
3255,-0.6659061907322518,0
3256,-0.6466765648472304,0
3257,-0.6431308063149753,0
3258,-0.603464901285758,0
3259,-0.6190880521694501,0
3260,-0.29707098669334014,0
3261,3.335157511216449,0
3262,6.104989451227678,0
3263,-1.6936112239459808,0
3264,-2.149944045140354,0
3265,0.7155177861989993,0
3266,-1.4324971946342355,0
3267,-0.41700372629061117,0
3268,-0.7556859922732035,0
3269,-0.7570488650907173,0
3270,-0.6781190322805447,0
3271,-0.7117317896825773,0
3272,-0.7282947253276001,0
3273,-0.7346792990602353,0
3274,-0.6925693542467487,0
3275,-0.7224181127792153,0
3276,-0.7634915075810512,0
3277,-0.690269769190469,0
3278,-0.7571773171983542,0
3279,-0.8087689064933647,0
3280,-0.2753873192486236,0
3281,3.3032803351070776,0
3282,5.975519257715546,0
3283,-1.9456354732549088,0
3284,-1.9917612306894719,0
3285,0.7017326886905935,0
3286,-1.4844338855318608,0
3287,-0.4673346572549618,0
3288,-0.8892663537893872,0
3289,-0.6991977849103682,0
3290,-0.7023104147576732,0
3291,-0.7490244118599094,0
3292,-0.7555797571377695,0
3293,-0.7420525106250819,0
3294,-0.7790957530839611,0
3295,-0.7837255319219381,0
3296,-0.8392222293355743,0
3297,-0.748281928829318,0
3298,-0.8331159749869452,0
3299,-0.5819795113612648,0
3300,-0.17185490367755935,0
3301,3.2261652385088926,0
3302,5.907433103888629,0
3303,-1.805041057149166,0
3304,-2.1728426021291747,0
3305,0.8033214144431492,0
3306,-1.4774993590670134,0
3307,-0.49771535597390903,0
3308,-0.6796601978189524,0
3309,-0.7407924289201319,0
3310,-0.6627941185756124,0
3311,-0.67524994005716,0
3312,-0.8029333991587778,0
3313,-0.7223605698863793,0
3314,-0.7862541738187763,0
3315,-0.6760841871764983,0
3316,-0.7255270780292117,0
3317,-0.7309625594926871,0
3318,-0.7390517415100823,0
3319,-0.6824017014319708,0
3320,-0.24306848113400753,0
3321,3.399798479603303,0
3322,5.910510000067814,0
3323,-1.984818726274592,0
3324,-1.9691495481915244,0
3325,0.600513622606822,0
3326,-1.482190334877104,0
3327,-0.49314293146208255,0
3328,-0.9101054469091815,0
3329,-0.6695260099458435,0
3330,-0.6636884985227705,0
3331,-0.7582383493792535,0
3332,-0.8073250655806706,0
3333,-0.7036655135800328,0
3334,-0.8456893767235427,0
3335,-0.7573494794034993,0
3336,-0.8769889995331558,0
3337,-0.7601231058294007,0
3338,-0.7461323479121319,0
3339,-0.7330304237300691,0
3340,-0.42874678405879374,0
3341,3.40746296793824,0
3342,5.89160263494626,0
3343,-1.9096347180773585,0
3344,-2.199822792664105,0
3345,0.5838511354502436,0
3346,-1.649167300160227,0
3347,-0.6080046582886379,0
3348,-0.9495907293331942,0
3349,-0.6711536921940587,0
3350,-0.7822969993227636,0
3351,-0.7692646133947353,0
3352,-0.8308586687758361,0
3353,-0.7214616798561193,0
3354,-0.7611781637692906,0
3355,-0.6850642258673711,0
3356,-0.7055006273924739,0
3357,-0.9314744290067936,0
3358,-0.7618041596052368,0
3359,-0.8857359160838072,0
3360,-0.4115635121698957,0
3361,3.33984053179824,0
3362,5.760700653794996,0
3363,-1.9377501006906925,0
3364,-2.1683816451376785,0
3365,0.5637658742658886,0
3366,-1.6004770611978032,0
3367,-0.47716298802027723,0
3368,-0.7516032305963279,0
3369,-0.8926809099373734,0
3370,-0.7980801120461539,0
3371,-0.8519668365969552,0
3372,-0.7485117626926178,0
3373,-0.8342451126348014,0
3374,-0.9965111989916302,0
3375,-0.8724174773238204,0
3376,-0.7491856763852216,0
3377,-0.8021797041784702,0
3378,-0.936619921812981,0
3379,-0.8532985209969524,0
3380,-0.35319711882890564,0
3381,3.1778677588642212,0
3382,5.702467178383551,0
3383,-2.1275802830170893,0
3384,-2.2133958695692084,0
3385,0.5046154143226382,0
3386,-1.5926971709293023,0
3387,-0.6420203219035414,0
3388,-0.9284774358888701,0
3389,-0.8163371545469132,0
3390,-0.8096689715246965,0
3391,-0.8279830198594932,0
3392,-0.9430777566277588,0
3393,-0.805831507846748,0
3394,-0.8193485943692138,0
3395,-0.8426756046497862,0
3396,-0.7577047050889653,0
3397,-0.7793661972531041,0
3398,-0.8212948762435003,0
3399,-0.7604279820859845,0
3400,-0.455808722873959,0
3401,3.1041279121822924,0
3402,5.617098639474879,0
3403,-1.9069978021191902,0
3404,-2.2289076739152027,0
3405,0.40242947170629606,0
3406,-1.7284687701690382,0
3407,-0.7271079529893755,0
3408,-0.8454992387317763,0
3409,-1.034034976059098,0
3410,-0.9187595845322739,0
3411,-0.9378231555931987,0
3412,-0.9527782171416063,0
3413,-0.8576569621313894,0
3414,-0.8901007687489703,0
3415,-0.9648778768057368,0
3416,-0.8775457054715192,0
3417,-0.9246486718171183,0
3418,-0.8083573938944506,0
3419,-0.8715665835790477,0
3420,-0.5415577304606806,0
3421,3.1106609365550453,0
3422,5.574609622391344,0
3423,-2.0894494926789724,0
3424,-2.2056767982413943,0
3425,0.43087815779554095,0
3426,-1.758423584789806,0
3427,-0.7333263172123317,0
3428,-0.9190552416326734,0
3429,-1.0145918221751395,0
3430,-1.0084239613401962,0
3431,-0.9753476125754261,0
3432,-1.0137725226931378,0
3433,-0.9321545296520497,0
3434,-0.8759563344810491,0
3435,-1.0014100733090276,0
3436,-0.9367106005418264,0
3437,-0.9343117586936127,0
3438,-1.019840054222174,0
3439,-0.9530381876723006,0
3440,-0.5322321195971386,0
3441,3.2048256972801097,0
3442,5.708767690195154,0
3443,-2.095217756009753,0
3444,-2.2945027448611492,0
3445,0.443766068654568,0
3446,-1.7361040261443579,0
3447,-0.6857347119868809,0
3448,-0.905761379603915,0
3449,-0.9444274700586405,0
3450,-0.8701798758725625,0
3451,-1.019189352010343,0
3452,-0.9508504382142613,0
3453,-0.9386992900749148,0
3454,-0.9919671453718004,0
3455,-0.9015239846171808,0
3456,-0.8749322124119898,0
3457,-1.07639434864519,0
3458,-0.8753921930988541,0
3459,-0.9941660019403845,0
3460,-0.4585960460665587,0
3461,3.072540786430072,0
3462,5.671553723971115,0
3463,-2.3114939043829645,0
3464,-2.400827311154414,0
3465,0.34710641976034906,0
3466,-1.7162024467545807,0
3467,-0.7700648284335355,0
3468,-0.9434305457245213,0
3469,-1.0057857899385614,0
3470,-0.9767625350846321,0
3471,-0.9505703070224079,0
3472,-1.114433404490429,0
3473,-0.9034443493165794,0
3474,-1.0281711130318676,0
3475,-0.8988717951645293,0
3476,-0.8679239659451836,0
3477,-1.0648605627029835,0
3478,-0.9528727818877194,0
3479,-0.9309362803946902,0
3480,-0.5287640894771455,0
3481,3.2221016381526235,0
3482,5.5598667086359,0
3483,-2.0668289059444764,0
3484,-2.3522436898869588,0
3485,0.2880510956546869,0
3486,-1.871873430932617,0
3487,-0.6951914368102625,0
3488,-0.9130042519201208,0
3489,-0.9749015034274421,0
3490,-0.9279821677986954,0
3491,-0.9204029563141307,0
3492,-1.000569072419439,0
3493,-0.9978394105170398,0
3494,-0.9454637176492742,0
3495,-0.8683917456933314,0
3496,-1.0608748981820237,0
3497,-1.0077437798994815,0
3498,-0.9673502292029788,0
3499,-1.0414881413757717,0
3500,-0.6794975340068496,0
3501,3.07145494879829,0
3502,5.580178961191077,0
3503,-2.3023665010026484,0
3504,-2.4144179945622013,0
3505,0.4131305977523002,0
3506,-1.8640675624493233,0
3507,-0.7662384196244306,0
3508,-0.9295600419052714,0
3509,-0.9973619704988202,0
3510,-1.0083731169002235,0
3511,-1.0554023493251468,0
3512,-1.01335034644329,0
3513,-1.090292231121337,0
3514,-1.025386981929824,0
3515,-0.977566902937697,0
3516,-1.0102437063527057,0
3517,-1.035379667873584,0
3518,-0.932918054242215,0
3519,-1.1945570587342356,0
3520,-0.6184516132840177,0
3521,3.0802224699332528,0
3522,5.495171025359601,0
3523,-2.1815923772245256,0
3524,-2.42009008506478,0
3525,0.3398261293991147,0
3526,-1.8597911241292195,0
3527,-0.8687560036670652,0
3528,-0.9788355858780531,0
3529,-1.1573599786476474,0
3530,-1.0288850527110338,0
3531,-1.0235680934257565,0
3532,-1.01752901672891,0
3533,-1.0024361789968377,0
3534,-1.1219820800458609,0
3535,-0.9550202193309868,0
3536,-1.1906543029487204,0
3537,-1.063450053504579,0
3538,-1.0242561941301394,0
3539,-0.9432346106372761,0
3540,-0.5713373535781306,0
3541,3.112649189796447,0
3542,5.601277056436072,0
3543,-2.2532099026106707,0
3544,-2.5191439780470675,0
3545,0.30992789740181514,0
3546,-1.8282278758844175,0
3547,-0.8707493896736513,0
3548,-1.045195140100535,0
3549,-1.1053235181277645,0
3550,-1.0219811925272697,0
3551,-1.1126725098998944,0
3552,-1.0150836508143537,0
3553,-1.107200090029051,0
3554,-1.073011295405844,0
3555,-0.9923615951208649,0
3556,-0.982475818479797,0
3557,-1.1814830760742714,0
3558,-1.0759922419178216,0
3559,-1.131729539564871,0
3560,-0.670138391489622,0
3561,3.027986708871918,0
3562,5.5712949414953234,0
3563,-2.2430730719796315,0
3564,-2.4416126499667827,0
3565,0.32675841532790706,0
3566,-1.8219272833357079,0
3567,-0.8055568657198051,0
3568,-1.1795080586886177,0
3569,-1.2296568022507883,0
3570,-1.055190035585233,0
3571,-1.1399402106271503,0
3572,-1.0575284974779051,0
3573,-1.2001129269512865,0
3574,-0.9582767339521239,0
3575,-0.9232084575801398,0
3576,-1.1987548149232414,0
3577,-1.1381042317720285,0
3578,-1.0651630975880644,0
3579,-1.042063231851225,0
3580,-0.6618500219346308,0
3581,3.1126882742356843,0
3582,5.414700028104253,0
3583,-2.2630805951039514,0
3584,-2.4794271079691095,0
3585,0.507516485344715,0
3586,-2.0430704394070176,0
3587,-0.7739174325178473,0
3588,-1.2773550854735582,0
3589,-1.2407209296168034,0
3590,-1.011410659379086,0
3591,-1.2003821596654634,0
3592,-1.1717437337524006,0
3593,-1.0196026812555483,0
3594,-1.0675162375474414,0
3595,-1.1329050909929155,0
3596,-1.073715672553191,0
3597,-1.1140885968893908,0
3598,-1.0722967901223595,0
3599,-1.0812098710370592,0
3600,-0.6608473023138332,0
3601,2.9530446214330013,0
3602,5.458150839331151,0
3603,-2.4048352079811863,0
3604,-2.5822675928558345,0
3605,0.34270075694974755,0
3606,-1.9994466396515507,0
3607,-0.8506357593948211,0
3608,-1.1684481807639642,0
3609,-1.1601905513666133,0
3610,-1.0709711465868246,0
3611,-1.1840325448574012,0
3612,-1.0798196198203631,0
3613,-1.171984688384632,0
3614,-1.2137994331395856,0
3615,-1.2089173835374454,0
3616,-1.2473376782822978,0
3617,-1.2460954334247436,0
3618,-1.1441014472324476,0
3619,-1.0907865504221017,0
3620,-0.6750998562153646,0
3621,2.986332110750207,0
3622,5.399361512708289,0
3623,-2.255338940412505,0
3624,-2.367805422636385,0
3625,0.2344387811048223,0
3626,-1.8979553018831399,0
3627,-0.8423371693681809,0
3628,-1.1234015777053552,0
3629,-1.1439869424673423,0
3630,-0.9892520129260247,0
3631,-1.06073920002149,0
3632,-1.0567296016149934,0
3633,-1.0423262829095055,0
3634,-1.0984408748645724,0
3635,-1.1005398747053192,0
3636,-1.2475837500281077,0
3637,-1.0887843627594729,0
3638,-1.0618314162084066,0
3639,-1.0321018528761168,0
3640,-0.7164678854720807,0
3641,3.1358034979545177,0
3642,5.366406083150693,0
3643,-2.3398061880507433,0
3644,-2.4524217392443672,0
3645,0.3678520129857157,0
3646,-2.0289033137756647,0
3647,-0.8711527983048375,0
3648,-1.3158780993354497,0
3649,-1.1442729478982907,0
3650,-1.1602599701675071,0
3651,-1.0391012012103928,0
3652,-1.0181590337363027,0
3653,-1.1805282289404906,0
3654,-0.9888114202948646,0
3655,-1.1093984713333953,0
3656,-1.110220588968788,0
3657,-1.060060554327613,0
3658,-1.0989504957861582,0
3659,-1.2310334094912483,0
3660,-0.8510501687482079,0
3661,2.886431114354907,0
3662,5.282434630985239,0
3663,-2.378601476736417,0
3664,-2.519191699153989,0
3665,0.24894771069528487,0
3666,-1.8886108354099362,0
3667,-0.9670749270845213,0
3668,-1.1553513181436659,0
3669,-1.1294598172901413,0
3670,-1.0852205476470527,0
3671,-1.0817121476164315,0
3672,-1.0935394842003863,0
3673,-1.0429603303218014,0
3674,-1.2629382029647387,0
3675,-1.1605554693855074,0
3676,-1.2188013397083124,0
3677,-1.2404654912872748,0
3678,-1.1512738391760307,0
3679,-1.2151512182315642,0
3680,-0.7050017685022549,0
3681,2.97239565539592,0
3682,5.420820873983971,0
3683,-2.4466030770107388,0
3684,-2.6911974244280703,0
3685,0.22750694200060417,0
3686,-1.8635450900003336,0
3687,-0.854217422015184,0
3688,-1.1940735007567553,0
3689,-0.9821357021045131,0
3690,-1.0744580303711608,0
3691,-1.1770054431869423,0
3692,-1.1809310153736179,0
3693,-1.1577603263534733,0
3694,-1.0512510399712027,0
3695,-1.1062155928822146,0
3696,-1.1061881106061577,0
3697,-1.137607204751007,0
3698,-1.1845849487526825,0
3699,-1.1427145812068926,0
3700,-0.5925352898127133,0
3701,3.028097857581175,0
3702,5.368311120396432,0
3703,-2.449876286792854,0
3704,-2.425973071917548,0
3705,0.34584044987737883,0
3706,-2.0372672149392015,0
3707,-0.9131111644492778,0
3708,-1.2177335759307497,0
3709,-1.2267237871619228,0
3710,-1.1237498331149356,0
3711,-1.3151179327346356,0
3712,-1.14888763240889,0
3713,-1.1878146221536563,0
3714,-1.2436755587574344,0
3715,-1.2912493531377867,0
3716,-1.0853588609805815,0
3717,-1.2741661623340947,0
3718,-1.2844114099102024,0
3719,-1.3488540218293996,0
3720,-0.8018449111437511,0
3721,3.0168145441206073,0
3722,5.30737373198642,0
3723,-2.458852574598725,0
3724,-2.5405525498851036,0
3725,0.18465723586456795,0
3726,-1.9830789473810133,0
3727,-0.9807097917866815,0
3728,-1.1355110241438746,0
3729,-1.2877992937754386,0
3730,-1.2722964905604843,0
3731,-1.25261420969115,0
3732,-1.2874422870295408,0
3733,-1.2932309266203035,0
3734,-1.2337460740978512,0
3735,-1.2862466958755272,0
3736,-1.230687553987467,0
3737,-1.1909227130703823,0
3738,-1.1295457070076682,0
3739,-1.2023212388257445,0
3740,-0.7550549898036437,0
3741,3.078191721131975,0
3742,5.436851528455281,0
3743,-2.3824456602713635,0
3744,-2.5471702711975928,0
3745,0.15521937189064472,0
3746,-1.9645285874574072,0
3747,-0.9483546120283297,0
3748,-1.2883798922326395,0
3749,-1.217511230837071,0
3750,-1.217479575031511,0
3751,-1.3110870886278914,0
3752,-1.1781265859129904,0
3753,-1.2318353052647406,0
3754,-1.299099783452722,0
3755,-1.2306184548925605,0
3756,-1.2753816751632865,0
3757,-1.201959128749258,0
3758,-1.3537270180174654,0
3759,-1.1909819637273231,0
3760,-0.8626385002853751,0
3761,3.0141943596277767,0
3762,5.256927979716393,0
3763,-2.436908319339363,0
3764,-2.4534915167825244,0
3765,-0.008203151927776098,0
3766,-2.158606268266266,0
3767,-1.0083346098986465,0
3768,-1.3036896510669143,0
3769,-1.2325535139880044,0
3770,-1.2321604422786328,0
3771,-1.2295722410116068,0
3772,-1.263629539774205,0
3773,-1.3165984192285582,0
3774,-1.242044059643941,0
3775,-1.249314462495204,0
3776,-1.175172116099598,0
3777,-1.2271523059702074,0
3778,-1.2302051076837486,0
3779,-1.2211146499061625,0
3780,-0.6651698571965587,0
3781,2.96437033717426,0
3782,5.304998267704538,0
3783,-2.406366025719797,0
3784,-2.5655505088172275,0
3785,0.21401664869508275,0
3786,-2.0416921218829724,0
3787,-1.034159961583171,0
3788,-1.283573522875973,0
3789,-1.330863298608483,0
3790,-1.2326390784986188,0
3791,-1.4016581513101096,0
3792,-1.2194217436286314,0
3793,-1.1783412866458292,0
3794,-1.178182140312412,0
3795,-1.3378658294215104,0
3796,-1.2338741072305233,0
3797,-1.2552042400113461,0
3798,-1.2204726652923565,0
3799,-1.266062648242824,0
3800,-0.8793613115996498,0
3801,2.9641194526326213,0
3802,5.136366381890366,0
3803,-2.545159740307091,0
3804,-2.6822920534131853,0
3805,0.11317981549693479,0
3806,-1.9413266585851539,0
3807,-1.0644869283040694,0
3808,-1.1698719723367168,0
3809,-1.3255730022042411,0
3810,-1.2102474259614517,0
3811,-1.3084486088679548,0
3812,-1.3386216143927634,0
3813,-1.2585551000286461,0
3814,-1.275872866363633,0
3815,-1.3911203364638218,0
3816,-1.2154287543080118,0
3817,-1.3973281033467295,0
3818,-1.3536238906155493,0
3819,-1.3465935165819884,0
3820,-0.9022282955087474,0
3821,2.896020412056057,0
3822,5.22039219036823,0
3823,-2.7099360979452243,0
3824,-2.6082373940770207,0
3825,-0.00675347312811958,0
3826,-2.1003054895075306,0
3827,-1.2291662083391586,0
3828,-1.4025468653310655,0
3829,-1.3617011666648502,0
3830,-1.3773556230380355,0
3831,-1.345248321370742,0
3832,-1.3872281924822125,0
3833,-1.224616008840656,0
3834,-1.387942269011603,0
3835,-1.3803502653854733,0
3836,-1.330219254508661,0
3837,-1.37439696786943,0
3838,-1.2919427102321945,0
3839,-1.3522726605029807,0
3840,-0.8734584914224268,0
3841,2.9178206498425405,0
3842,5.346048609873073,0
3843,-2.6993458218836284,0
3844,-2.6502042753517436,0
3845,-0.055310669687043124,0
3846,-2.050368177357675,0
3847,-1.106598512376998,0
3848,-1.3684886994272276,0
3849,-1.2329136948099855,0
3850,-1.3066351453791907,0
3851,-1.3627848719829734,0
3852,-1.3196002184087643,0
3853,-1.4274884586800027,0
3854,-1.2751834095244514,0
3855,-1.4985919612029823,0
3856,-1.2736047108116004,0
3857,-1.3491971370720288,0
3858,-1.2266696538502389,0
3859,-1.3488873268335002,0
3860,-1.1152402683492086,0
3861,2.7106080679352456,0
3862,5.080202469134951,0
3863,-2.638805267463516,0
3864,-2.62103816921853,0
3865,0.08843496084389235,0
3866,-2.2094683397114148,0
3867,-1.1021359697076494,0
3868,-1.5568181612459182,0
3869,-1.3805919611286532,0
3870,-1.3531553716782005,0
3871,-1.2586687982455265,0
3872,-1.4024799283836191,0
3873,-1.4269046015583011,0
3874,-1.3213379668031504,0
3875,-1.229921274415658,0
3876,-1.3282590196012354,0
3877,-1.4504388955177692,0
3878,-1.4612664377674371,0
3879,-1.3753077147492756,0
3880,-0.934413087073533,0
3881,2.8710173047398486,0
3882,5.064203644123963,0
3883,-2.597079855041475,0
3884,-2.703043266705004,0
3885,0.07462616815659295,0
3886,-2.2013323656082857,0
3887,-1.1497479494626925,0
3888,-1.4496159391886372,0
3889,-1.3550682308084492,0
3890,-1.2738826661420448,0
3891,-1.4323674096581538,0
3892,-1.4508505826980493,0
3893,-1.3318694354135066,0
3894,-1.3769359488166097,0
3895,-1.3515609833338365,0
3896,-1.5343917467913184,0
3897,-1.4170703077656805,0
3898,-1.3575364736206736,0
3899,-1.4775825549738435,0
3900,-0.9024528123845874,0
3901,2.813217399658782,0
3902,5.023202673714509,0
3903,-2.6410461131157854,0
3904,-2.6939655141857797,0
3905,-0.0007185227669912475,0
3906,-2.2712227934481217,0
3907,-1.1528752425601416,0
3908,-1.398902312250614,0
3909,-1.4423152456924073,0
3910,-1.52932485580466,0
3911,-1.2972272855097424,0
3912,-1.3328789797010738,0
3913,-1.5151456918348931,0
3914,-1.328332337071943,0
3915,-1.3149375660260683,0
3916,-1.2687668504137983,0
3917,-1.313364635253331,0
3918,-1.3091424623562018,0
3919,-1.392127325514955,0
3920,-1.004035345568051,0
3921,2.873818032416441,0
3922,5.067589080466207,0
3923,-2.6299096327001044,0
3924,-2.624073936852458,0
3925,-0.021120787850877676,0
3926,-2.189707519958619,0
3927,-1.1648169793007175,0
3928,-1.5106785990775808,0
3929,-1.4638932358334429,0
3930,-1.3257178606923,0
3931,-1.4165633874929047,0
3932,-1.49364911106164,0
3933,-1.3873460383269125,0
3934,-1.5350074493164563,0
3935,-1.5289492875981692,0
3936,-1.5116755665693828,0
3937,-1.3211194706078964,0
3938,-1.2720707685060064,0
3939,-1.2363018111249513,0
3940,-1.005819598195036,0
3941,2.772842463965136,0
3942,5.124529343889611,0
3943,-2.780201797787093,0
3944,-2.7336684923915326,0
3945,-0.012188076746670884,0
3946,-2.1689075161930416,0
3947,-1.1846791919786712,0
3948,-1.3797829672659179,0
3949,-1.37575280587977,0
3950,-1.3276773936417325,0
3951,-1.59285581712375,0
3952,-1.2872925706179357,0
3953,-1.5206297195380432,0
3954,-1.427589492151631,0
3955,-1.4252863123002628,0
3956,-1.525816202130612,0
3957,-1.5003771023176165,0
3958,-1.3271652896792712,0
3959,-1.47396373053661,0
3960,-0.9160154114013008,0
3961,2.8448183317803375,0
3962,5.10038768917046,0
3963,-2.7783661828465176,0
3964,-2.7938653131292397,0
3965,-0.08661448824413398,0
3966,-2.234837569011471,0
3967,-1.2520651350459262,0
3968,-1.5229698387162665,0
3969,-1.553935278797919,0
3970,-1.491597516204056,0
3971,-1.4098186880808088,0
3972,-1.589648490211482,0
3973,-1.565672053257114,0
3974,-1.497288727331628,0
3975,-1.551444754091516,0
3976,-1.5196086842511496,0
3977,-1.476853393667275,0
3978,-1.5228743109424467,0
3979,-1.523358930166293,0
3980,-1.0968965575249328,0
3981,2.655052898289088,0
3982,4.861702520596714,0
3983,-2.7788256597302468,0
3984,-2.898666588083235,0
3985,-0.1641159586405505,0
3986,-2.2806988011328393,0
3987,-1.1781077976632015,0
3988,-1.3839115341019488,0
3989,-1.4572352033342963,0
3990,-1.4197527659705116,0
3991,-1.5188291346049059,0
3992,-1.5826239924080303,0
3993,-1.3942312741063163,0
3994,-1.4453170533436965,0
3995,-1.494854634215695,0
3996,-1.5699258407417032,0
3997,-1.4766330112327846,0
3998,-1.3541667656414256,0
3999,-1.381073001779591,0
4000,-1.1127760057203822,0
4001,2.741857419569218,0
4002,5.109376518956745,0
4003,-2.8529839594813,0
4004,-2.79519347487118,0
4005,-0.07977092062209512,0
4006,-2.227463593092122,0
4007,-1.2678775232697577,0
4008,-1.6190043120932835,0
4009,-1.6122777481693775,0
4010,-1.4032033017605767,0
4011,-1.4579846810428967,0
4012,-1.5243572358399504,0
4013,-1.6297539187337118,0
4014,-1.516601525852142,0
4015,-1.3991602462727868,0
4016,-1.6119167820983227,0
4017,-1.480286325845163,0
4018,-1.6102645932740651,0
4019,-1.4396096013202362,0
4020,-1.0030039885208177,0
4021,2.65979437587515,0
4022,4.932234655720901,0
4023,-2.7818171035570973,0
4024,-2.8217366245864923,0
4025,-0.05609096295163685,0
4026,-2.325573743599201,0
4027,-1.3068341272934836,0
4028,-1.3673973910991604,0
4029,-1.486773340015485,0
4030,-1.620626819084598,0
4031,-1.584773194621485,0
4032,-1.5880168458107478,0
4033,-1.5796979537744553,0
4034,-1.4247306259771257,0
4035,-1.4994309197373576,0
4036,-1.6051825887691147,0
4037,-1.525786412598003,0
4038,-1.5812660406838601,0
4039,-1.6010208816734917,0
4040,-1.0806665759027734,0
4041,2.5912688035353604,0
4042,5.059274054963119,0
4043,-2.7634792145949385,0
4044,-2.7507051161693337,0
4045,-0.1028964252365252,0
4046,-2.383229713209059,0
4047,-1.110121069423148,0
4048,-1.3859643976055862,0
4049,-1.4435682276423816,0
4050,-1.4473688949926031,0
4051,-1.5134141739942042,0
4052,-1.590910258452906,0
4053,-1.532180025000172,0
4054,-1.3436637554510853,0
4055,-1.4180687513997834,0
4056,-1.507006640974941,0
4057,-1.5739271825443943,0
4058,-1.5832066627841694,0
4059,-1.5433479558952774,0
4060,-1.1547708888107375,0
4061,2.7140632490466143,0
4062,4.921222906018784,0
4063,-2.7730601611847288,0
4064,-2.8050083879272574,0
4065,-0.14702895929451776,0
4066,-2.3069506232541315,0
4067,-1.400957965951047,0
4068,-1.6603139288204525,0
4069,-1.664267366911448,0
4070,-1.4802305406388916,0
4071,-1.5419129186894711,0
4072,-1.4464101231057789,0
4073,-1.568679322604686,0
4074,-1.682557026392471,0
4075,-1.58300611027313,0
4076,-1.6396368561274948,0
4077,-1.5199661196407834,0
4078,-1.5741704670154293,0
4079,-1.4642351214190703,0
4080,-1.137708735903159,0
4081,2.6890917474333973,0
4082,4.908748285229818,0
4083,-2.8752401467271085,0
4084,-2.801311823976254,0
4085,-0.09420455738207201,0
4086,-2.2250981212143963,0
4087,-1.24906501799783,0
4088,-1.4657416847286577,0
4089,-1.5049132664984657,0
4090,-1.4629727990493717,0
4091,-1.4472115730716513,0
4092,-1.551231096964222,0
4093,-1.4928696701532398,0
4094,-1.5120214196245514,0
4095,-1.6092263315099646,0
4096,-1.4405651111292874,0
4097,-1.498870502317725,0
4098,-1.4659376550847465,0
4099,-1.5478764481002814,0
4100,-1.0306998075711093,0
4101,2.816790533985472,0
4102,4.824326152796042,0
4103,-2.937671322212739,0
4104,-2.881914917486899,0
4105,-0.09735051514388782,0
4106,-2.2291776954250144,0
4107,-1.3447636176009943,0
4108,-1.4991895401436077,0
4109,-1.5208180646742135,0
4110,-1.505140772342628,0
4111,-1.6721783313620644,0
4112,-1.578760265176041,0
4113,-1.5414678743724273,0
4114,-1.4378657716997112,0
4115,-1.5036832861065854,0
4116,-1.5380475665186901,0
4117,-1.4466762184064614,0
4118,-1.6056112555435436,0
4119,-1.5160781832208658,0
4120,-1.0186157715129522,0
4121,2.648754704487401,0
4122,5.051507700984779,0
4123,-2.838811655940875,0
4124,-2.70964075016206,0
4125,-0.09021317818692798,0
4126,-2.2568389078795854,0
4127,-1.4488400431664565,0
4128,-1.6600811944244007,0
4129,-1.5873973100188858,0
4130,-1.6311470514374236,0
4131,-1.5776262897293425,0
4132,-1.5608537173166914,0
4133,-1.5403659278348667,0
4134,-1.5998884018290989,0
4135,-1.4959852095192463,0
4136,-1.604586456506164,0
4137,-1.4823022322007184,0
4138,-1.5417288331390933,0
4139,-1.6127398497531844,0
4140,-1.0483757187422853,0
4141,2.5562644083556876,0
4142,4.802885141208081,0
4143,-2.95111739491625,0
4144,-2.9367805975620755,0
4145,-0.23100360321721558,0
4146,-2.3959174987691014,0
4147,-1.4349470986510686,0
4148,-1.6298060961552654,0
4149,-1.6783134395519657,0
4150,-1.5918093569155287,0
4151,-1.509630625322129,0
4152,-1.548719955582142,0
4153,-1.6805464241465755,0
4154,-1.4589322131469413,0
4155,-1.5030480917640607,0
4156,-1.5595630078503577,0
4157,-1.573155411517535,0
4158,-1.6741633092422523,0
4159,-1.4427263920696827,0
4160,-1.1626321446198233,0
4161,2.6543943214330024,0
4162,4.999323223919999,0
4163,-2.934294364210152,0
4164,-2.6905811626727543,0
4165,-0.12681318354156867,0
4166,-2.290785548511421,0
4167,-1.2911438055116076,0
4168,-1.6098582121789058,0
4169,-1.5624123395372314,0
4170,-1.5181645265433887,0
4171,-1.5796568717508341,0
4172,-1.582368931211775,0
4173,-1.601197347217047,0
4174,-1.6131781667005958,0
4175,-1.5195164094642426,0
4176,-1.6358299059767383,0
4177,-1.6378963560898818,0
4178,-1.6628447911240707,0
4179,-1.6776561264806809,0
4180,-1.13363492997853,0
4181,2.6873087558418938,0
4182,4.973739359220989,0
4183,-2.971748880174003,0
4184,-2.846690189649213,0
4185,-0.13307095765032906,0
4186,-2.3448339872397943,0
4187,-1.3467672974853178,0
4188,-1.4773747308505565,0
4189,-1.5534929011230096,0
4190,-1.5732202218623972,0
4191,-1.5436500405640496,0
4192,-1.5731636275410374,0
4193,-1.5848111046557405,0
4194,-1.5255395880078295,0
4195,-1.5401668057421514,0
4196,-1.545090169755594,0
4197,-1.6521212276769432,0
4198,-1.6035727771565678,0
4199,-1.5817697438728748,0
4200,-1.0798644515401938,0
4201,2.6904398414863024,0
4202,4.891130032131185,0
4203,-2.886982083931541,0
4204,-2.7483707548494776,0
4205,-0.262794910723839,0
4206,-2.3852899986405967,0
4207,-1.2712694697190132,0
4208,-1.5716176459692592,0
4209,-1.7495801141823395,0
4210,-1.4100797331347144,0
4211,-1.552888051094744,0
4212,-1.5456458756912834,0
4213,-1.5973963635369857,0
4214,-1.722497146073658,0
4215,-1.6871675611343118,0
4216,-1.4887881623178358,0
4217,-1.5675746975704816,0
4218,-1.521597040725183,0
4219,-1.634476564961867,0
4220,-0.9327672366981061,0
4221,2.7494913479170933,0
4222,4.772253887043582,0
4223,-2.942034311254636,0
4224,-2.8935368539789095,0
4225,-0.11567452330058803,0
4226,-2.3299993660122507,0
4227,-1.2964633055385706,0
4228,-1.7667713205293913,0
4229,-1.6816195017860394,0
4230,-1.4331933014039737,0
4231,-1.6150188940389278,0
4232,-1.5484947693103202,0
4233,-1.5860481818073866,0
4234,-1.5527615010601004,0
4235,-1.7016506651023118,0
4236,-1.711243263127398,0
4237,-1.5453300473809106,0
4238,-1.5187291785504133,0
4239,-1.6003612179214737,0
4240,-1.061280653560632,0
4241,2.561517765961267,0
4242,4.83692682302566,0
4243,-2.81944816198181,0
4244,-2.7961835804676696,0
4245,-0.29188118318728784,0
4246,-2.351257977949694,0
4247,-1.490738799040837,0
4248,-1.6435169928307398,0
4249,-1.59041635142467,0
4250,-1.6481849392953265,0
4251,-1.6434566989137471,0
4252,-1.6205690501775354,0
4253,-1.5956273761785587,0
4254,-1.578156992089918,0
4255,-1.5600644976272304,0
4256,-1.4091635189637997,0
4257,-1.5869886718514759,0
4258,-1.5476095014232225,0
4259,-1.6549574522257229,0
4260,-1.1236177635957272,0
4261,2.700133812276711,0
4262,4.918480677853411,0
4263,-2.926767559083987,0
4264,-2.9279433416271097,0
4265,-0.28747949931700134,0
4266,-2.2549863970420523,0
4267,-1.2875417548082777,0
4268,-1.5916262457961072,0
4269,-1.5982941857133632,0
4270,-1.4584073530043005,0
4271,-1.5083919504287457,0
4272,-1.5896538164778584,0
4273,-1.5318549485320374,0
4274,-1.5821637940307445,0
4275,-1.572393111713771,0
4276,-1.45040089727233,0
4277,-1.6820822874529096,0
4278,-1.7097213244332528,0
4279,-1.6743364133901573,0
4280,-0.9353288760350861,0
4281,2.62343627117569,0
4282,4.961913126855721,0
4283,-2.9995043194978654,0
4284,-2.796439819962356,0
4285,-0.09799312832720175,0
4286,-2.4093176818412365,0
4287,-1.3368227579682235,0
4288,-1.5594884788710615,0
4289,-1.4985093424622766,0
4290,-1.5741201556122506,0
4291,-1.557567302325316,0
4292,-1.6025528163346778,0
4293,-1.5317920128932512,0
4294,-1.659753482665802,0
4295,-1.6521863435776476,0
4296,-1.6206114443213484,0
4297,-1.6510298884292922,0
4298,-1.647865011196346,0
4299,-1.4377782742270133,0
4300,-1.2398002890106607,0
4301,2.6556125618767235,0
4302,4.850400204491019,0
4303,-2.919828305923055,0
4304,-2.7751134397811152,0
4305,-0.3179231758828456,0
4306,-2.3879913236523773,0
4307,-1.3734627966207007,0
4308,-1.5457092638945285,0
4309,-1.596914588466205,0
4310,-1.6285032087033575,0
4311,-1.51618181136314,0
4312,-1.645391313562678,0
4313,-1.5490362539484395,0
4314,-1.6002645233214283,0
4315,-1.6480055069188735,0
4316,-1.4855778735439584,0
4317,-1.5736862303326042,0
4318,-1.5833289984775107,0
4319,-1.5763226485218682,0
4320,-1.0972071013444884,0
4321,2.6251438043167976,0
4322,4.95877583705497,0
4323,-3.0181483645333396,0
4324,-2.7475686452305883,0
4325,-0.14355583915095038,0
4326,-2.312811810667093,0
4327,-1.3946838390829008,0
4328,-1.729690231854183,0
4329,-1.601484058399911,0
4330,-1.6657308567563496,0
4331,-1.5426334239621884,0
4332,-1.6693366960877656,0
4333,-1.5884082632257692,0
4334,-1.5356996546191068,0
4335,-1.7617901984900506,0
4336,-1.6238063965163492,0
4337,-1.731321787779044,0
4338,-1.4978001782083905,0
4339,-1.5932639943202909,0
4340,-1.165861132872947,0
4341,2.744574131771888,0
4342,4.918475370943414,0
4343,-2.9181243800842083,0
4344,-2.8348973062181098,0
4345,-0.2072443548697278,0
4346,-2.19735438937567,0
4347,-1.1716278555916104,0
4348,-1.5011726302722126,0
4349,-1.5383900419843444,0
4350,-1.4201456394955048,0
4351,-1.5429853308586343,0
4352,-1.4247315414513897,0
4353,-1.6120363880545916,0
4354,-1.5596413337638715,0
4355,-1.4865643789187128,0
4356,-1.6026130122601439,0
4357,-1.484690913698845,0
4358,-1.593784428509967,0
4359,-1.5310053097422605,0
4360,-0.961951198501346,0
4361,2.5700396235716867,0
4362,4.883581966934351,0
4363,-3.1300002329928054,0
4364,-2.761293843103414,0
4365,-0.3199508413305516,0
4366,-2.32739641472786,0
4367,-1.3985803752011146,0
4368,-1.6948598266294082,0
4369,-1.674631321645194,0
4370,-1.6969954355682324,0
4371,-1.5274547062000177,0
4372,-1.5858336144101064,0
4373,-1.6818122731902547,0
4374,-1.729721688106389,0
4375,-1.689980770033692,0
4376,-1.6658722675688076,0
4377,-1.575841573386326,0
4378,-1.5968666787700605,0
4379,-1.6146263681772257,0
4380,-1.198087615814326,0
4381,2.760074437820499,0
4382,4.803072715195826,0
4383,-2.9496465966589946,0
4384,-2.7086512991703993,0
4385,-0.3931022601405427,0
4386,-2.392567710421437,0
4387,-1.3243286156158316,0
4388,-1.6966696110393802,0
4389,-1.7190283502658286,0
4390,-1.6827147776330977,0
4391,-1.5423376353013012,0
4392,-1.6422361145322653,0
4393,-1.7104551836285677,0
4394,-1.6895309170076076,0
4395,-1.6537447370756055,0
4396,-1.7308843133803362,0
4397,-1.6956719391005934,0
4398,-1.6696766822476368,0
4399,-1.4819956209400338,0
4400,-1.1539288133695904,0
4401,2.5439663131146144,0
4402,4.9049080453899,0
4403,-3.0487697238050266,0
4404,-2.8371408616535883,0
4405,-0.21402941951843601,0
4406,-2.391693199304309,0
4407,-1.4024193473322322,0
4408,-1.6276358461688967,0
4409,-1.6108626486238848,0
4410,-1.6434285815951584,0
4411,-1.6787527086652834,0
4412,-1.5201031122142559,0
4413,-1.6335065601904424,0
4414,-1.66285038570707,0
4415,-1.5767990428903684,0
4416,-1.6427858096997445,0
4417,-1.699075392556541,0
4418,-1.6761514811015876,0
4419,-1.6335299215725956,0
4420,-1.1357215919714494,0
4421,2.592644152259872,0
4422,4.747913770873502,0
4423,-3.122484651479663,0
4424,-2.9129704945802013,0
4425,-0.28550862291310963,0
4426,-2.556058115367251,0
4427,-1.5567674576658779,0
4428,-1.7110666250863804,0
4429,-1.6111383657012295,0
4430,-1.685298824177039,0
4431,-1.652775583481892,0
4432,-1.6553241493238107,0
4433,-1.5831518402475289,0
4434,-1.658567215195803,0
4435,-1.6367179007734087,0
4436,-1.7088598383758236,0
4437,-1.7620081697105745,0
4438,-1.6604860165090836,0
4439,-1.6355890185063184,0
4440,-1.1845039578269898,0
4441,2.5411433819177254,0
4442,4.787482537251734,0
4443,-3.078752912455114,0
4444,-2.748704524038698,0
4445,-0.3004891201033346,0
4446,-2.4981871037019587,0
4447,-1.4702772093447276,0
4448,-1.6992637872668286,0
4449,-1.7388606220847627,0
4450,-1.7046528751083367,0
4451,-1.610682930795865,0
4452,-1.6942518280669225,0
4453,-1.7771720974111362,0
4454,-1.591208991278934,0
4455,-1.7224687128625205,0
4456,-1.6652666234932167,0
4457,-1.7803070509135501,0
4458,-1.8725734931953226,0
4459,-1.809184885165097,0
4460,-1.2425478267059165,0
4461,2.5644211411672364,0
4462,4.687664458499705,0
4463,-3.180964737904727,0
4464,-2.8741086874366593,0
4465,-0.42862575451170004,0
4466,-2.552725977003043,0
4467,-1.4648982403015889,0
4468,-1.7094065259483526,0
4469,-1.60526840178269,0
4470,-1.7162758146573085,0
4471,-1.7181238295975874,0
4472,-1.7234811710009983,0
4473,-1.820300283076732,0
4474,-1.7391213603391524,0
4475,-1.7031621269462016,0
4476,-1.7328170437987278,0
4477,-1.7494992061394787,0
4478,-1.7462970175691939,0
4479,-1.8164741979016228,0
4480,-1.2815979386417795,0
4481,2.631866320616656,0
4482,4.735084562921081,0
4483,-3.289222994307809,0
4484,-2.880352805093903,0
4485,-0.46139535044062097,0
4486,-2.519255657269509,0
4487,-1.4947142204023645,0
4488,-1.8090452419303142,0
4489,-1.6445309039257625,0
4490,-1.6497599931110236,0
4491,-1.6520443777967142,0
4492,-1.7800756198800836,0
4493,-1.7391961464293841,0
4494,-1.760815941848714,0
4495,-1.7098399825905832,0
4496,-1.7193802196226906,0
4497,-1.7232244669914891,0
4498,-1.8278068137255543,0
4499,-1.7008835659995705,0
4500,-1.172500822687007,0
4501,2.572800764610811,0
4502,4.73482714567056,0
4503,-3.2256851960064106,0
4504,-3.0091301114104345,0
4505,-0.4402137022895114,0
4506,-2.4637853289947635,0
4507,-1.4984615364302876,0
4508,-1.7815294968807471,0
4509,-1.7169138430842263,0
4510,-1.7173469828557675,0
4511,-1.8049543146988376,0
4512,-1.728540069228703,0
4513,-1.713221129600014,0
4514,-1.8569461054184058,0
4515,-1.6792477259482408,0
4516,-1.7867445316893642,0
4517,-1.7360540492847996,0
4518,-1.7125520245214705,0
4519,-1.7910090899020188,0
4520,-1.233787191454736,0
4521,2.6676646572074754,0
4522,4.732353493472506,0
4523,-3.2147256679972998,0
4524,-2.833699325160134,0
4525,-0.36483902921259803,0
4526,-2.61432528367041,0
4527,-1.4667696238715109,0
4528,-1.8489412277417328,0
4529,-1.6458426759745,0
4530,-1.7589916591749686,0
4531,-1.8047865347364003,0
4532,-1.641420775110933,0
4533,-1.7532734406714967,0
4534,-1.6977341898234548,0
4535,-1.7081437690136616,0
4536,-1.715855889561744,0
4537,-1.817415167185613,0
4538,-1.7849536159103487,0
4539,-1.6914374369412597,0
4540,-1.3615618420743267,0
4541,2.542215321144922,0
4542,4.831775343254849,0
4543,-3.1202606130060406,0
4544,-2.996654030933026,0
4545,-0.45062775579603875,0
4546,-2.4292068265393563,0
4547,-1.531995709623631,0
4548,-1.7554558807944136,0
4549,-1.8371620756421496,0
4550,-1.7234414829931177,0
4551,-1.6993666309223723,0
4552,-1.83645574740037,0
4553,-1.7722902513478345,0
4554,-1.8070715785714695,0
4555,-1.7162235094850808,0
4556,-1.7119707983329844,0
4557,-1.7936781664181451,0
4558,-1.6267649235279296,0
4559,-1.8106933471291624,0
4560,-1.2400678148013662,0
4561,2.6099853708082676,0
4562,4.764913195442722,0
4563,-3.075692432633725,0
4564,-2.9244543599102037,0
4565,-0.5241796731920356,0
4566,-2.540395163048375,0
4567,-1.580846778906598,0
4568,-1.8438110123627234,0
4569,-1.7986878393904426,0
4570,-1.7521038755843343,0
4571,-1.7283477982185103,0
4572,-1.8252817352700095,0
4573,-1.7636534952582117,0
4574,-1.8006596435269895,0
4575,-1.8565446367348952,0
4576,-1.7299944585541065,0
4577,-1.8273360668687717,0
4578,-1.756170828596384,0
4579,-1.840171187037247,0
4580,-1.2716495056339523,0
4581,2.6644179408760262,0
4582,4.840204703753024,0
4583,-3.1981161119825696,0
4584,-3.081648389707553,0
4585,-0.46873843280930605,0
4586,-2.6501318119165553,0
4587,-1.5954743601925063,0
4588,-1.854947195256981,0
4589,-1.8321912076204232,0
4590,-1.8004978745907703,0
4591,-1.7480611181243755,0
4592,-1.8294771751467505,0
4593,-1.8329873635536469,0
4594,-1.8371428736905178,0
4595,-1.7965141934005235,0
4596,-1.9292902592288053,0
4597,-1.7910382364821675,0
4598,-1.7915013762173209,0
4599,-1.8095701502621606,0
4600,-1.2889892030386538,0
4601,2.4482064724343005,0
4602,4.604129695456426,0
4603,-3.163013026781662,0
4604,-2.879559977317877,0
4605,-0.3596599501192146,0
4606,-2.5111489057187213,0
4607,-1.4646921928745305,0
4608,-1.8239069099740384,0
4609,-1.758758430339196,0
4610,-1.6597655292554143,0
4611,-1.6424297233374285,0
4612,-1.652392126913261,0
4613,-1.8641538407070077,0
4614,-1.8153767979740445,0
4615,-1.6237476178336616,0
4616,-1.716263169815304,0
4617,-1.7993140474688902,0
4618,-1.7733067434640866,0
4619,-1.8172967208139914,0
4620,-1.2512947089989541,0
4621,2.4967724878959308,0
4622,4.7419141268924925,0
4623,-3.3011755605992144,0
4624,-2.971849048625111,0
4625,-0.4530496486598292,0
4626,-2.5610079127395444,0
4627,-1.4846765682569774,0
4628,-1.9409249357107334,0
4629,-1.832291101080977,0
4630,-1.8719604061542963,0
4631,-1.8852091177134094,0
4632,-1.8469977428485547,0
4633,-1.780807337570959,0
4634,-1.8415967989445088,0
4635,-1.9309712305281435,0
4636,-1.7378884146754978,0
4637,-1.8484393837923745,0
4638,-1.635640931473252,0
4639,-1.6914633403042734,0
4640,-1.3306048896686122,0
4641,2.455856680381877,0
4642,4.745811627153402,0
4643,-3.2415346217439405,0
4644,-2.8903285103577483,0
4645,-0.36189972856176666,0
4646,-2.662296452014102,0
4647,-1.4533072196546706,0
4648,-1.7170052814168175,0
4649,-1.7250186502016485,0
4650,-1.8308962785967586,0
4651,-1.6924869015553061,0
4652,-1.9323621808588558,0
4653,-1.9296492811434114,0
4654,-1.7588415588459998,0
4655,-1.7798562395295516,0
4656,-1.679053229567832,0
4657,-1.8122031032963215,0
4658,-1.8529201659162644,0
