timestamp,value-0,is_anomaly
0,0.22211892658823343,0.0
1,4.53859801152794,0.0
2,5.0010300072157365,0.0
3,-3.0009188464394847,0.0
4,1.5692734317014942,0.0
5,-0.7122938923359894,0.0
6,0.2113151436813242,0.0
7,-0.09185344932776707,0.0
8,0.0054413275548131565,0.0
9,0.1354156222815249,0.0
10,0.00652451341460953,0.0
11,0.06982582622286938,0.0
12,0.018945532510581557,0.0
13,-0.026822177940663917,0.0
14,-0.022556099903293523,0.0
15,-0.007103643378296458,0.0
16,0.012624070684706673,0.0
17,0.9774750438851493,0.0
18,6.455959734368553,0.0
19,1.5336820688836605,0.0
20,-1.9281157200830634,0.0
21,1.2391104147812015,0.0
22,-0.6777554954127541,0.0
23,0.29884010759776014,0.0
24,-0.09021635886542965,0.0
25,-0.0043549046862865655,0.0
26,0.003282635943061331,0.0
27,0.05176979771197796,0.0
28,0.04794279806014203,0.0
29,-0.06786754354984903,0.0
30,0.05671771942971501,0.0
31,0.028849448429161366,0.0
32,0.12563084155296608,0.0
33,0.13312664032103033,0.0
34,2.438123054169753,0.0
35,6.942346046173358,0.0
36,-1.8181214953050733,0.0
37,0.19745371866708758,0.0
38,0.16193707124206025,0.0
39,-0.1819366017751533,0.0
40,0.013262440269499217,0.0
41,-0.008409224748378581,0.0
42,0.10866984038228508,0.0
43,-0.07024497762051743,0.0
44,-0.07328191920329492,0.0
45,-0.028829065714305997,0.0
46,0.05147862301343711,0.0
47,-0.03666371129859526,0.0
48,0.040963099266213,0.0
49,-0.030614927996174192,0.0
50,0.26759041667209704,0.0
51,4.549972820297193,0.0
52,4.964854223996263,0.0
53,-3.044037910336566,0.0
54,1.4516522073805735,0.0
55,-0.7682886619135859,0.0
56,0.2326062781074357,0.0
57,-0.16539451473573763,0.0
58,-0.07848394089203754,0.0
59,-0.06415574939585095,0.0
60,-0.09268570375926659,0.0
61,-0.08175692593914638,0.0
62,-0.020849481456957787,0.0
63,-0.05715666703100102,0.0
64,-0.033203379220351194,0.0
65,0.02772856544123841,0.0
66,-0.10877982973307052,0.0
67,1.0041732358201771,0.0
68,6.319021733403915,0.0
69,1.4673686341536776,0.0
70,-1.9786352164022394,0.0
71,1.2338760873646644,0.0
72,-0.5598850141206819,0.0
73,0.21361209816215695,0.0
74,-0.14549055617959855,0.0
75,-0.04615970201909255,0.0
76,-0.08726435748426578,0.0
77,-0.04441494100942734,0.0
78,-0.03206794146048721,0.0
79,0.003710256595176674,0.0
80,-0.0018535585100565785,0.0
81,0.05184128300232968,0.0
82,-0.027275378734226526,0.0
83,-4.5105798268866085e-05,0.0
84,2.4478484460557697,0.0
85,6.854737289568687,0.0
86,-1.815293888900361,0.0
87,0.17927637593521512,0.0
88,0.1009046635739087,0.0
89,-0.0978406944545444,0.0
90,0.06092667927061245,0.0
91,0.08005796143270769,0.0
92,-0.03008453119917521,0.0
93,-0.03445110139294806,0.0
94,-0.07718939301424318,0.0
95,-0.03946296221334549,0.0
96,0.03266676233214775,0.0
97,-0.09535077893379745,0.0
98,-0.07499728142284573,0.0
99,-0.05263478542098805,0.0
100,0.2826597279724039,0.0
101,4.593934445316712,0.0
102,4.8905455981513315,0.0
103,-3.1035054974257883,0.0
104,1.5140107092676227,0.0
105,-0.7154290069593214,0.0
106,0.22311961434889271,0.0
107,-0.15411446064433235,0.0
108,0.024371377261284508,0.0
109,-0.11516299272375012,0.0
110,-0.13856979813555992,0.0
111,-0.13139068140284804,0.0
112,-0.10764726358426555,0.0
113,-0.05572228464169941,0.0
114,-0.16560615474854945,0.0
115,-0.07022388780650306,0.0
116,-0.051030944968650876,0.0
117,0.9488978836942736,0.0
118,6.518054861394813,0.0
119,1.4564276327664365,0.0
120,-1.9721907364159132,0.0
121,1.0817737218388706,0.0
122,-0.712332140494025,0.0
123,0.1461460770254523,0.0
124,-0.08867472550274241,0.0
125,0.04723134183134377,0.0
126,-0.0057094638050615015,0.0
127,0.05763408115976536,0.0
128,0.04635634368665559,0.0
129,-0.0179038514035063,0.0
130,-0.02922392087483997,0.0
131,-0.014398574044594933,0.0
132,-0.001143944870691093,0.0
133,0.007768692112980257,0.0
134,2.5170505186061893,0.0
135,6.806344339044707,0.0
136,-1.900330335195275,0.0
137,0.15670796910288623,0.0
138,0.06916138956908717,0.0
139,-0.0855035383093444,0.0
140,0.02414430319746893,0.0
141,0.01096052228193823,0.0
142,-0.13144009560158745,0.0
143,-0.159635929758575,0.0
144,-0.07894117296664979,0.0
145,-0.03145418718336688,0.0
146,-0.14361031518962575,0.0
147,-0.014074368126977974,0.0
148,-0.11666577226826183,0.0
149,-0.08859659743662221,0.0
150,0.2451726686636987,0.0
151,4.567587931098544,0.0
152,4.913402944183115,0.0
153,-3.0877302806197253,0.0
154,1.4965458236594735,0.0
155,-0.795724430466852,0.0
156,0.24015875441231263,0.0
157,-0.12827721114834648,0.0
158,0.03567564141636068,0.0
159,-0.01562937406075373,0.0
160,0.00854317823102997,0.0
161,-0.005827447674592033,0.0
162,-0.02432279566795651,0.0
163,-0.01926417818083696,0.0
164,-0.05295953325009162,0.0
165,0.0013863624690597202,0.0
166,0.025863148191323362,0.0
167,0.9487833539384625,0.0
168,6.446632470584745,0.0
169,1.501860204988156,0.0
170,-1.948664512054443,0.0
171,1.1637149482284108,0.0
172,-0.7229019730625408,0.0
173,0.2302796820694993,0.0
174,-0.003794581722799381,0.0
175,0.023920044256562766,0.0
176,-0.0033730754307583002,0.0
177,-0.012715233108778048,0.0
178,0.025788638732140542,0.0
179,0.10577973527728532,0.0
180,0.004830471605462728,0.0
181,-0.07073336175549165,0.0
182,0.051069900167046024,0.0
183,0.11197163405280908,0.0
184,2.5431785264728766,0.0
185,6.84313886636509,0.0
186,-1.8477477842604513,0.0
187,0.22214598910630307,0.0
188,0.17566892606608292,0.0
189,-0.1393174932692585,0.0
190,0.005188853465071624,0.0
191,-0.08158828703606597,0.0
192,-0.05794125773379727,0.0
193,-0.020709125197864813,0.0
194,0.05345509477394362,0.0
195,-0.05259659486871364,0.0
196,0.002650150036526272,0.0
197,-0.026101006177766915,0.0
198,-0.04323877683335425,0.0
199,-0.028560122510481265,0.0
200,0.2513486433514267,0.0
201,4.679714759007863,0.0
202,4.92494650733765,0.0
203,-2.958076707348993,0.0
204,1.5384858767835075,0.0
205,-0.7843021659007837,0.0
206,0.2790241319077163,0.0
207,-0.12585327818988135,0.0
208,0.06668963240066496,0.0
209,-0.11657501586311077,0.0
210,-0.010978527882203479,0.0
211,0.013566524651769007,0.0
212,-0.07796821773680113,0.0
213,-0.05280732277357189,0.0
214,-0.06578171316163775,0.0
215,0.05216978391159833,0.0
216,-0.08216539577465179,0.0
217,1.0066262383441515,0.0
218,6.439606053347746,0.0
219,1.4230093767447627,0.0
220,-1.9527676216612209,0.0
221,1.1603600034371881,0.0
222,-0.6356139221554741,0.0
223,0.23484998499281845,0.0
224,-0.10548473243729595,0.0
225,0.033310647852732016,0.0
226,-0.01941712790829387,0.0
227,0.009792517289466316,0.0
228,0.06371482175626401,0.0
229,-0.005316050729721543,0.0
230,0.03412984419520484,0.0
231,0.034423493214988936,0.0
232,0.048385746447760385,0.0
233,0.10119650997982275,0.0
234,2.593814294140934,0.0
235,6.785324519663942,0.0
236,-1.8363540012466446,0.0
237,0.2639642323696841,0.0
238,0.07766013646706636,0.0
239,-0.06047453310875765,0.0
240,-0.015335505389113949,0.0
241,0.022482295525621917,0.0
242,0.09262718660896405,0.0
243,-0.003787453314580292,0.0
244,0.012000928575557146,0.0
245,0.07236006651240134,0.0
246,0.032252142203096634,0.0
247,0.019899924463068028,0.0
248,-0.0024884054519934383,0.0
249,0.027493175327846852,0.0
250,0.35611194592080864,0.0
251,4.696137806637955,0.0
252,5.026394236909288,0.0
253,-3.0436511541661204,0.0
254,1.6598036199160746,0.0
255,-0.6685476789020512,0.0
256,0.38951663744866016,0.0
257,-0.12047712799643912,0.0
258,0.10846421944168116,0.0
259,-0.009448018032046812,0.0
260,-0.0034313705953482806,0.0
261,0.06702433308891008,0.0
262,0.07711497067912657,0.0
263,0.024961841886689096,0.0
264,0.038778867293946126,0.0
265,0.04952653204237606,0.0
266,0.07061631986845741,0.0
267,0.9256385286389444,0.0
268,6.517765204410855,0.0
269,1.4743283431020402,0.0
270,-1.8504240368339486,0.0
271,1.2539218682449278,0.0
272,-0.624463853821265,0.0
273,0.21541198314429866,0.0
274,-0.11059026781020848,0.0
275,0.16770732274209382,0.0
276,-0.03741493097169275,0.0
277,0.01775177885721809,0.0
278,0.09085140177682394,0.0
279,0.07014058127284081,0.0
280,-0.07542243373957769,0.0
281,0.06141991171758743,0.0
282,0.049046701773127054,0.0
283,0.10453799821440872,0.0
284,2.595430397199599,0.0
285,6.945264438290625,0.0
286,-1.7843603123364475,0.0
287,0.40244138557786024,0.0
288,0.300921952384094,0.0
289,-0.024297434989697428,0.0
290,0.1854726727590374,0.0
291,0.1367550323588047,0.0
292,0.0927066072317222,0.0
293,0.07755018352561571,0.0
294,0.07751381140790786,0.0
295,0.13630618910403017,0.0
296,0.12906862947722736,0.0
297,0.01852437196748949,0.0
298,0.10984789987818082,0.0
299,0.040624983508137924,0.0
300,0.32663240001749066,0.0
301,4.789148303790726,0.0
302,4.959874627259464,0.0
303,-2.913431405022533,0.0
304,1.6252837428796492,0.0
305,-0.698309547940348,0.0
306,0.29634556063853795,0.0
307,-0.008390962373295882,0.0
308,-0.029795401535254763,0.0
309,0.05140165533828817,0.0
310,0.06959471428912342,0.0
311,0.0001227288567681624,0.0
312,0.03984335390159718,0.0
313,0.05104734993820856,0.0
314,0.1252996671944471,0.0
315,-0.00843915447717803,0.0
316,0.013728001674712435,0.0
317,1.0368130941021587,0.0
318,6.5615504092234875,0.0
319,1.476822972966333,0.0
320,-1.841461177932224,0.0
321,1.2609217655197413,0.0
322,-0.5636085897777214,0.0
323,0.3747392825608651,0.0
324,-0.05373220262636535,0.0
325,0.05231194982756933,0.0
326,0.06753409500688705,0.0
327,0.08366972388507594,0.0
328,0.05178460319591559,0.0
329,0.11724830892336767,0.0
330,0.11365252297828224,0.0
331,-0.054540095096721676,0.0
332,0.07816146172614649,0.0
333,0.058006989206829555,0.0
334,2.514960925704196,0.0
335,6.915027151701077,0.0
336,-1.833025755656602,0.0
337,0.22901513118419015,0.0
338,0.1395735437698175,0.0
339,-0.01160503870876289,0.0
340,0.14334824771472496,0.0
341,0.016551078311301058,0.0
342,0.09693751628091725,0.0
343,0.06256838276207977,0.0
344,0.07341518037903934,0.0
345,0.127959432539601,0.0
346,0.02949741254003454,0.0
347,-0.013671070353315759,0.0
348,0.045960756590589145,0.0
349,-0.0065766562768915515,0.0
350,0.3536906614400752,0.0
351,4.688506567058846,0.0
352,4.965779821969553,0.0
353,-2.9363043745040955,0.0
354,1.6047740288266528,0.0
355,-0.658234188068012,0.0
356,0.37741302504779356,0.0
357,0.0024767001581504286,0.0
358,0.12312926311459463,0.0
359,-0.0349998978415714,0.0
360,0.03323571024612879,0.0
361,0.13484344461250752,0.0
362,0.13917029035235645,0.0
363,0.03732864867284334,0.0
364,0.025389648109423672,0.0
365,0.00839691723554968,0.0
366,0.13217465001286977,0.0
367,1.0348348750266676,0.0
368,6.54643965715932,0.0
369,1.347927214964129,0.0
370,-1.7965615579381926,0.0
371,1.2371787664173197,0.0
372,-0.6593046362499966,0.0
373,0.24398955797419725,0.0
374,-0.15676415310187763,0.0
375,0.08989934007228081,0.0
376,-0.0018980401346558083,0.0
377,-0.05991046626700513,0.0
378,-0.012965892393998025,0.0
379,-0.05351171781189142,0.0
380,0.010969126542127517,0.0
381,0.0012005751703331325,0.0
382,-0.04463313252467005,0.0
383,-0.037794990631558535,0.0
384,2.5322648082944,0.0
385,6.8395573604705096,0.0
386,-1.8715223080811938,0.0
387,0.35532798240184227,0.0
388,0.14469222612198754,0.0
389,-0.09762354969678068,0.0
390,0.01011431131882128,0.0
391,0.021842109804673153,0.0
392,-0.0029256297586086263,0.0
393,0.029345860456308263,0.0
394,-0.0201822840841681,0.0
395,0.03385103737772856,0.0
396,-0.006107669526190701,0.0
397,-0.011301430602521619,0.0
398,0.007109200640772679,0.0
399,-0.025765619843358258,0.0
400,0.27630288675162495,0.0
401,4.600139023201985,0.0
402,4.7303784586914865,0.0
403,-3.0476939371537037,0.0
404,1.5917723761614735,0.0
405,-0.6774279559348171,0.0
406,0.1904293729934109,0.0
407,-0.1238942838102956,0.0
408,-0.00035516083290334025,0.0
409,-0.05406726535918518,0.0
410,-0.00821761564682091,0.0
411,0.14889096869195226,0.0
412,-0.09080693060038882,0.0
413,0.016033661267649404,0.0
414,-0.10939621639426297,0.0
415,-0.12279440348121383,0.0
416,0.010416325953055246,0.0
417,0.9768072678939256,0.0
418,6.512783861611685,0.0
419,1.330716635596906,0.0
420,-1.8470586472255142,0.0
421,1.1873359768382763,0.0
422,-0.565083431392127,0.0
423,0.31295992084952656,0.0
424,-0.09702470654507435,0.0
425,0.07113657694729061,0.0
426,0.10011163641999762,0.0
427,0.10303527532127858,0.0
428,0.02015429063087023,0.0
429,-0.04614727332784895,0.0
430,0.023533695553468324,0.0
431,-0.010937341848776226,0.0
432,-0.05547377276697423,0.0
433,0.08633804820647184,0.0
434,2.603053110314278,0.0
435,6.9460049457186335,0.0
436,-1.9140713419059907,0.0
437,0.33548014034064444,0.0
438,0.10358468306323522,0.0
439,0.007221617383986932,0.0
440,0.04857862922698427,0.0
441,-0.12968677739572243,0.0
442,0.1212579176725425,0.0
443,0.08590339725892829,0.0
444,0.012027769985517689,0.0
445,0.018284937547279393,0.0
446,0.015225241506501232,0.0
447,-0.060557463307285064,0.0
448,-0.02030284499568842,0.0
449,-0.07722000857702989,0.0
450,0.32421440915211497,0.0
451,4.662651269368177,0.0
452,4.816679713320455,0.0
453,-3.0099212770306987,0.0
454,1.444543847818807,0.0
455,-0.739226330808025,0.0
456,0.32192252499950513,0.0
457,-0.12082114215620543,0.0
458,-0.02373312828965042,0.0
459,0.015980771029747164,0.0
460,-0.06906720823869135,0.0
461,0.08578048851658268,0.0
462,0.0024332480171970414,0.0
463,0.02921559762641266,0.0
464,0.07772123506614537,0.0
465,0.01680680058319543,0.0
466,-0.0012697364075338385,0.0
467,1.0362893560530462,0.0
468,6.526557977065191,0.0
469,1.3256147950457706,0.0
470,-1.8854297562391056,0.0
471,1.2178534278844255,0.0
472,-0.5371096950241723,0.0
473,0.22133822200339673,0.0
474,-0.08320526729592165,0.0
475,-0.014936915627771035,0.0
476,-0.0624289064735874,0.0
477,-0.051825638557927,0.0
478,-0.07369143301597704,0.0
479,-0.05985120931155559,0.0
480,-0.019735937478999058,0.0
481,0.08050220045144518,0.0
482,-0.01313366632399247,0.0
483,0.03281427173583588,0.0
484,2.6654003800602024,0.0
485,6.858660905655529,0.0
486,-1.7995246859208638,0.0
487,0.3565579084819889,0.0
488,0.12700657610853774,0.0
489,-0.030185232335956592,0.0
490,0.09131266234383467,0.0
491,0.008419111039753291,0.0
492,-0.011153507626607516,0.0
493,0.011349532117991796,0.0
494,-0.03122523349964223,0.0
495,0.04783267182707002,0.0
496,0.05939886735687479,0.0
497,0.06797777445328965,0.0
498,0.0333888920850298,0.0
499,-0.04970808007802006,0.0
500,0.2358823616714147,0.0
501,4.719326289480549,0.0
502,4.7955632226308245,0.0
503,-3.0119764808793357,0.0
504,1.652344391329902,0.0
505,-0.694833909565937,0.0
506,0.4379587439074814,0.0
507,-0.03956527925949896,0.0
508,0.12835175822304778,0.0
509,0.053004098859503856,0.0
510,0.03679255590568417,0.0
511,0.1101409347066748,0.0
512,0.049368786378851066,0.0
513,0.05094642251516804,0.0
514,-0.04346308123097564,0.0
515,0.04857601830582611,0.0
516,0.0727935793593372,0.0
517,1.0927818339785138,0.0
518,6.514981624736026,0.0
519,1.3074494456833152,0.0
520,-1.838471579916743,0.0
521,1.1103279289828092,0.0
522,-0.5690927589194392,0.0
523,0.24740385519696084,0.0
524,-0.07085700236890957,0.0
525,0.007289386994800178,0.0
526,0.03298304519149693,0.0
527,0.08281955639921343,0.0
528,0.0941584062934236,0.0
529,0.014629404101282209,0.0
530,0.0021002653794426375,0.0
531,0.054989547611980966,0.0
532,0.006609435573439567,0.0
533,0.0537247506297439,0.0
534,2.609384590214991,0.0
535,6.805901655831513,0.0
536,-1.9850610728339422,0.0
537,0.3131406009863077,0.0
538,0.04912596759046042,0.0
539,-0.004595628918303035,0.0
540,0.06489564338698335,0.0
541,0.006535828483063889,0.0
542,0.01229300787261661,0.0
543,0.03128787069211991,0.0
544,0.014573417113847313,0.0
545,0.05097763549789079,0.0
546,0.06875563133185467,0.0
547,0.13998958534125205,0.0
548,0.1108820522753926,0.0
549,0.04510459615940286,0.0
550,0.3775401318876432,0.0
551,4.793519553309465,0.0
552,4.843641004939129,0.0
553,-2.8880573264737417,0.0
554,1.6740409540481547,0.0
555,-0.7944634532436912,0.0
556,0.38135129322283545,0.0
557,-0.1844363219299271,0.0
558,-0.0015271744537586202,0.0
559,0.06908884333314089,0.0
560,0.02705088094751426,0.0
561,0.07289776832258049,0.0
562,0.029557180993200226,0.0
563,0.0298818886241369,0.0
564,-0.05482328258053084,0.0
565,-0.016681053066071587,0.0
566,0.026669844281909133,0.0
567,1.0567082253785307,0.0
568,6.5648640650032695,0.0
569,1.3016240373235082,0.0
570,-1.8574992022906323,0.0
571,1.1551812130479302,0.0
572,-0.561772332916756,0.0
573,0.20271607438766515,0.0
574,-0.05674312323920776,0.0
575,0.045792294318630265,0.0
576,0.05700986478880635,0.0
577,0.018312870025323447,0.0
578,-0.05721971939277112,0.0
579,-0.02763262167193354,0.0
580,-0.07779213784293314,0.0
581,-0.05391700314206656,0.0
582,0.023542317936282694,0.0
583,-0.0012447911311266047,0.0
584,2.662542073004545,0.0
585,6.74285778863844,0.0
586,-1.9891340857832058,0.0
587,0.326488765041543,0.0
588,0.0751664483059161,0.0
589,-0.031110489432861793,0.0
590,0.03395677917720853,0.0
591,-0.024824139161812996,0.0
592,0.00034079450012498586,0.0
593,-0.006625287746567656,0.0
594,0.021506222680696744,0.0
595,0.015825168767494402,0.0
596,0.02883252476743787,0.0
597,-0.07993013767673725,0.0
598,0.026373563126303064,0.0
599,0.017782351288928265,0.0
600,0.3519512839752913,0.0
601,4.688180299884797,0.0
602,4.786659568343496,0.0
603,-2.9294140809602536,0.0
604,1.5351297632709529,0.0
605,-0.6803177166179512,0.0
606,0.37725489074978713,0.0
607,-0.11394220841298705,0.0
608,0.04981116511473348,0.0
609,0.06874924256168116,0.0
610,0.014575636198022482,0.0
611,-0.00269491636079279,0.0
612,0.0988073681215245,0.0
613,0.018699510796176294,0.0
614,0.07128444718622061,0.0
615,0.08824706469003328,0.0
616,0.054957780702286047,0.0
617,1.2029315535966405,0.0
618,6.636061645367862,0.0
619,1.3636263407139082,0.0
620,-1.7837381518306965,0.0
621,1.2212246273490304,0.0
622,-0.5327216145829093,0.0
623,0.2496110821347846,0.0
624,-0.09940153996887852,0.0
625,0.02820013424471137,0.0
626,0.028295626983819752,0.0
627,0.009781895612565785,0.0
628,-0.043757101520364224,0.0
629,-0.11653437475072148,0.0
630,0.0034422944918138035,0.0
631,-0.04230840929356458,0.0
632,-0.10763146671145413,0.0
633,-0.024424806693603678,0.0
634,2.512468263465762,0.0
635,6.771965684645696,0.0
636,-2.0777960924989864,0.0
637,0.28861383294886217,0.0
638,-0.08434773101888532,0.0
639,-0.17512536841121562,0.0
640,-0.03929900008436241,0.0
641,-0.03301384446527166,0.0
642,-0.13222970698121508,0.0
643,-0.07567159237896559,0.0
644,-0.015075482697591068,0.0
645,0.06826305050789457,0.0
646,-0.06264225215817548,0.0
647,-0.0216502484554592,0.0
648,-0.06635048731955151,0.0
649,-0.058679928823398966,0.0
650,0.26412670737843863,0.0
651,4.744856999197325,0.0
652,4.715996485694712,0.0
653,-3.003788988089314,0.0
654,1.4898279925339557,0.0
655,-0.8100337329706386,0.0
656,0.30440803819411827,0.0
657,-0.1696197601714783,0.0
658,0.062753748944251,0.0
659,0.025189452729219988,0.0
660,-0.051545743853904605,0.0
661,0.03491627407094612,0.0
662,0.030972636565139485,0.0
663,-0.09531664869350809,0.0
664,0.02173276259968313,0.0
665,-0.03534277361044044,0.0
666,-0.07418890695214977,0.0
667,1.158628408270141,0.0
668,6.561875916887929,0.0
669,1.3101711842866646,0.0
670,-1.7607137049893096,0.0
671,1.1914361641065383,0.0
672,-0.6004437687414221,0.0
673,0.31402304545271525,0.0
674,-0.07204215494417189,0.0
675,-0.03471348856896143,0.0
676,-0.03165323158933508,0.0
677,-0.013878663610228192,0.0
678,-0.046891668213301596,0.0
679,-0.016815903022061655,0.0
680,-0.0008241923489725848,0.0
681,-0.039722041406605235,0.0
682,-0.028076044828908263,0.0
683,-0.06001228421112799,0.0
684,2.55368767555866,0.0
685,6.703230235208641,0.0
686,-2.136634623375229,0.0
687,0.39791559654413333,0.0
688,-0.041250453045662855,0.0
689,-0.012628439321409182,0.0
690,-0.06982815586592805,0.0
691,-0.010447408161063895,0.0
692,-0.01755132574100449,0.0
693,-0.03220228604148976,0.0
694,-0.027337485126219193,0.0
695,0.023949237419658063,0.0
696,-0.1162889658784037,0.0
697,-0.12861779311480837,0.0
698,0.012178056009655184,0.0
699,-0.050601467647812974,0.0
700,0.2876340514063113,0.0
701,4.750776162509246,0.0
702,4.740224612527163,0.0
703,-3.004533681150771,0.0
704,1.517517968561957,0.0
705,-0.6580694583922297,0.0
706,0.3145125258315742,0.0
707,-0.15955232440752914,0.0
708,0.016948242317147415,0.0
709,-0.10956860208057376,0.0
710,0.05343777679388946,0.0
711,-0.06837604513407333,0.0
712,-0.050180373198301376,0.0
713,-0.02084980067560634,0.0
714,-0.04188483785718413,0.0
715,0.037244710142550985,0.0
716,-0.07083867556509116,0.0
717,1.0933693306272523,0.0
718,6.55781797226386,0.0
719,1.2731430508561774,0.0
720,-1.6909541316871726,0.0
721,1.1697400297867546,0.0
722,-0.5288335463379166,0.0
723,0.3916277505213589,0.0
724,-0.12008635841905024,0.0
725,-0.059680096169026156,0.0
726,0.09166130228713003,0.0
727,-0.05899725587949355,0.0
728,-0.02655381071566743,0.0
729,-0.16185410158974078,0.0
730,0.03604535646834435,0.0
731,-0.05461127569071633,0.0
732,-0.024520897913817716,0.0
733,0.20535579124660946,0.0
734,2.6013786619280275,0.0
735,6.8166230809045985,0.0
736,-2.0413283320497966,0.0
737,0.39941006457201045,0.0
738,0.09784721132279972,0.0
739,0.06925381630264768,0.0
740,0.09223711925719505,0.0
741,0.017041303957900933,0.0
742,0.0306023130331443,0.0
743,0.09911079548949839,0.0
744,0.05238549709222266,0.0
745,0.030076295269296532,0.0
746,0.061888602143056165,0.0
747,0.06999332987857451,0.0
748,0.061301294673944004,0.0
749,0.02043983535392276,0.0
750,0.36299051625080864,0.0
751,4.929589247973521,0.0
752,4.7810382865961945,0.0
753,-2.975517910851172,0.0
754,1.632574273188655,0.0
755,-0.6965318383302614,0.0
756,0.30936793184640676,0.0
757,-0.012574419718699117,0.0
758,-0.0388264924265864,0.0
759,-0.06699736473554935,0.0
760,-0.0018315308105384936,0.0
761,0.02602939135290473,0.0
762,-0.05388883041672815,0.0
763,0.06211679912220621,0.0
764,-0.03565411937162914,0.0
765,0.11122518431902229,0.0
766,0.07945851768121182,0.0
767,1.1218380260123944,0.0
768,6.651643672900137,0.0
769,1.239432432996822,0.0
770,-1.7047408342475585,0.0
771,1.2800551501652027,0.0
772,-0.5789090771978419,0.0
773,0.2971949152256443,0.0
774,-0.07317589098118737,0.0
775,0.07048732007278075,0.0
776,0.011460515603257608,0.0
777,-0.0359682747274702,0.0
778,0.1093467895605219,0.0
779,0.0214811255819389,0.0
780,0.10365853462617966,0.0
781,-0.020776753998651983,0.0
782,0.04622073223228919,0.0
783,0.10409787912406039,0.0
784,2.708514204593756,0.0
785,6.816660938997187,0.0
786,-1.9775626971812985,0.0
787,0.4113546249249904,0.0
788,0.0829630529460163,0.0
789,0.046202109123068054,0.0
790,0.1569389485846414,0.0
791,0.15226975291122286,0.0
792,0.006945931766581266,0.0
793,0.025883404550811936,0.0
794,0.05067181345921461,0.0
795,0.14880946103799633,0.0
796,-0.0009604794434140834,0.0
797,0.06371136101891313,0.0
798,0.013924120292518077,0.0
799,0.004195452278541595,0.0
800,0.42177240018229867,0.0
801,4.889120995959553,0.0
802,4.810877997706059,0.0
803,-2.9454886241908333,0.0
804,1.6736968416948657,0.0
805,-0.6715605242508096,0.0
806,0.3395872366633914,0.0
807,-0.013737093055450567,0.0
808,0.08336759684947484,0.0
809,0.09268467306987258,0.0
810,-0.008890587035166361,0.0
811,0.02126542322280297,0.0
812,0.11971753987700937,0.0
813,0.0776542012494965,0.0
814,0.14773865279929985,0.0
815,0.06949763800884537,0.0
816,0.10155693652288347,0.0
817,1.1856093597066704,0.0
818,6.70353151493076,0.0
819,1.1607429597931977,0.0
820,-1.6557537224401833,0.0
821,1.1738194354601086,0.0
822,-0.554409032247741,0.0
823,0.2048315618304989,0.0
824,-0.0893734132491939,0.0
825,0.058217020482173046,0.0
826,0.038925136838400314,0.0
827,0.09293424408837911,0.0
828,-0.015456515205920139,0.0
829,0.05039283310989447,0.0
830,0.0029311930164094627,0.0
831,0.023021075106145546,0.0
832,0.09059798668288044,0.0
833,0.04982202859601634,0.0
834,2.7837201211008966,0.0
835,6.8411555871159715,0.0
836,-2.038238866311946,0.0
837,0.37256681142841175,0.0
838,0.0008255532188896492,0.0
839,-0.06552376536609872,0.0
840,0.12159214391894732,0.0
841,-0.06365930655829419,0.0
842,0.05322149386303972,0.0
843,0.08391926922129561,0.0
844,-0.05458108022619076,0.0
845,0.05747809018473013,0.0
846,0.018563710015345687,0.0
847,0.11137233727654555,0.0
848,0.03520983703554745,0.0
849,0.10571505231833941,0.0
850,0.4671695461425649,0.0
851,4.863453515954221,0.0
852,4.779725857596699,0.0
853,-2.8450804482294427,0.0
854,1.6537602177714243,0.0
855,-0.6693452486406554,0.0
856,0.33917528223494864,0.0
857,-0.08881354523901516,0.0
858,0.049191075660392936,0.0
859,-0.01702670107429917,0.0
860,-0.05491687319104651,0.0
861,0.07476480480353379,0.0
862,0.047955815936075105,0.0
863,0.041685097665381,0.0
864,-0.02689231884224684,0.0
865,0.09248128351246893,0.0
866,0.028697943039327517,0.0
867,1.193832232352214,0.0
868,6.630132485984902,0.0
869,1.291313163645551,0.0
870,-1.7341399281115326,0.0
871,1.196906255599622,0.0
872,-0.6580622595725956,0.0
873,0.23821452854549366,0.0
874,-0.08548863196855738,0.0
875,-0.058336837866243045,0.0
876,0.021783728412287873,0.0
877,-0.07386970111104273,0.0
878,-0.024618905156502564,0.0
879,0.005296507940128993,0.0
880,-0.054498088819175686,0.0
881,0.006892380754277305,0.0
882,0.04800401193925078,0.0
883,0.00309738093567645,0.0
884,2.7277921296442327,0.0
885,6.826713093027361,0.0
886,-2.1450513794217367,0.0
887,0.37691308612148733,0.0
888,0.03298552166340344,0.0
889,-0.10727032321336105,0.0
890,0.010327872671367977,0.0
891,-0.018471974063638544,0.0
892,0.07290412030244378,0.0
893,-0.0870742389396572,0.0
894,0.022251448527605362,0.0
895,0.019788198278810693,0.0
896,8.731372148235769e-05,0.0
897,0.04588256432279371,0.0
898,-0.11113614819353702,0.0
899,0.04271879857615405,0.0
900,0.32977173815488825,0.0
901,4.818506486612787,0.0
902,4.660904197405309,0.0
903,-2.919328845289752,0.0
904,1.5856926676925998,0.0
905,-0.7313145290902379,0.0
906,0.21971079431302826,0.0
907,-0.12027872510916127,0.0
908,-0.011118692327068636,0.0
909,-0.00889993006791399,0.0
910,-0.05932001758084876,0.0
911,0.035284455228277445,0.0
912,0.021841447338688574,0.0
913,0.0007700451743722064,0.0
914,-0.0704085281952112,0.0
915,0.06765909476530832,0.0
916,0.03208463737747595,0.0
917,1.1646216700454068,0.0
918,6.596336599443412,0.0
919,1.1616734504902433,0.0
920,-1.8395634866944772,0.0
921,1.1445815404880908,0.0
922,-0.5688930245625823,0.0
923,0.2930730433214619,0.0
924,-0.017953551896017994,0.0
925,0.060721057594524404,0.0
926,-0.06210500849808119,0.0
927,-0.018487762826902936,0.0
928,-0.030467792365063338,0.0
929,-0.02619777342949136,0.0
930,-0.012570734042061351,0.0
931,-0.0845516280857791,0.0
932,-0.08146870825102073,0.0
933,-0.02165065064026233,0.0
934,2.5864756443658803,0.0
935,6.717059248743909,0.0
936,-2.1472185494864244,0.0
937,0.43497430800504,0.0
938,-0.04075641407364976,0.0
939,-0.09735972867121953,0.0
940,-0.02214636609199878,0.0
941,-0.011573603666011605,0.0
942,-0.16539486323964583,0.0
943,-0.0339446765350046,0.0
944,-0.047158114573318116,0.0
945,0.004511337429251385,0.0
946,-0.00641661115164311,0.0
947,-0.10283760983199575,0.0
948,-0.03643470184011234,0.0
949,-0.06960831005517815,0.0
950,0.28745954646084537,0.0
951,4.890010612563003,0.0
952,4.5624053351564235,0.0
953,-3.002120692584864,0.0
954,1.5660316370727074,0.0
955,-0.7163032719376228,0.0
956,0.2062736590909563,0.0
957,-0.16785040748079147,0.0
958,-0.012447030214139683,0.0
959,0.014851355774133684,0.0
960,-0.028362561262299447,0.0
961,0.02443080434511346,0.0
962,0.0009444432971875858,0.0
963,-0.03505504331657132,0.0
964,0.031794636446546024,0.0
965,0.004779307272309091,0.0
966,-0.016260834548789904,0.0
967,1.2263505167014848,0.0
968,6.588144695905814,0.0
969,1.0952739082415643,0.0
970,-1.8095834698411586,0.0
971,1.180368721041958,0.0
972,-0.591073286221903,0.0
973,0.17959556691063439,0.0
974,-0.17639540843996682,0.0
975,0.03954061988846119,0.0
976,0.04426106250938378,0.0
977,-0.007703382507237119,0.0
978,-0.034899458572783086,0.0
979,0.062949825125195,0.0
980,-0.00020157951268850657,0.0
981,0.03409341668129259,0.0
982,-0.0420116179682052,0.0
983,0.009426484617839539,0.0
984,2.7333830213922936,0.0
985,6.816152103369218,0.0
986,-2.0822354974354895,0.0
987,0.4425043561606429,0.0
988,0.042720216466969066,0.0
989,-0.11319209944016341,0.0
990,0.060053776736174035,0.0
991,-0.0354815625005106,0.0
992,-0.05128647322140593,0.0
993,-0.006818007551328503,0.0
994,0.04143953121490783,0.0
995,-0.008070258033348814,0.0
996,0.03545669429365664,0.0
997,-0.005490736936822062,0.0
998,0.008125479882604134,0.0
999,0.09883865471062125,0.0
1000,0.35765733877149414,0.0
1001,4.909164465586304,0.0
1002,4.524246189861419,0.0
1003,-2.925072926247047,0.0
1004,1.4984267410218504,0.0
1005,-0.8496051409043749,0.0
1006,0.24185704357334287,0.0
1007,-0.23799642870689358,0.0
1008,-0.012610197470140836,0.0
1009,-0.11970536658288343,0.0
1010,-0.09055944786789732,0.0
1011,-0.027691394557627896,0.0
1012,-0.10211922607408752,0.0
1013,-0.012964969961946321,0.0
1014,-0.04203258124425827,0.0
1015,-0.02924002629954427,0.0
1016,-0.05561819614656115,0.0
1017,1.139061468287388,0.0
1018,6.620273639213258,0.0
1019,1.1119031829021817,0.0
1020,-1.6104582316101836,0.0
1021,1.184336779503988,0.0
1022,-0.6171863840202209,0.0
1023,0.33498267322754255,0.0
1024,-0.030240604036998183,0.0
1025,0.03208047000713808,0.0
1026,0.1360425531712629,0.0
1027,-0.00034515121019820794,0.0
1028,-0.013574236579290612,0.0
1029,0.05930318746316172,0.0
1030,-0.0028118875053838484,0.0
1031,-0.03273188991859695,0.0
1032,0.023011454691155255,0.0
1033,0.011610151790323014,0.0
1034,2.8117761024571837,0.0
1035,6.772157332967758,0.0
1036,-2.0936831266331017,0.0
1037,0.44695316010338537,0.0
1038,0.0022646659804679767,0.0
1039,-0.06564133655160656,0.0
1040,0.02472574801097372,0.0
1041,0.11429604089663184,0.0
1042,0.04169855898265509,0.0
1043,0.07010456040964232,0.0
1044,0.05533511868834642,0.0
1045,0.04353968415908077,0.0
1046,0.06750405277323299,0.0
1047,0.03132985369636085,0.0
1048,-0.004172183287108208,0.0
1049,0.03440442261238594,0.0
1050,0.4136784953881275,0.0
1051,4.816002407211474,0.0
1052,4.637944491753587,0.0
1053,-2.8704121631535955,0.0
1054,1.606390294357083,0.0
1055,-0.772600781831756,0.0
1056,0.3865778558753657,0.0
1057,-0.12306135975790805,0.0
1058,-0.004428795938798011,0.0
1059,0.04981097099358388,0.0
1060,-0.017721267297149904,0.0
1061,0.012635658337108856,0.0
1062,0.1526444844586501,0.0
1063,0.03269917821229727,0.0
1064,0.028028428295538813,0.0
1065,-0.10609168814454788,0.0
1066,-0.07287977886623918,0.0
1067,1.1382637667844728,0.0
1068,6.665839491570537,0.0
1069,1.1079475746710614,0.0
1070,-1.6835580014161822,0.0
1071,1.091100312393268,0.0
1072,-0.5542337002230004,0.0
1073,0.26104961552808764,0.0
1074,-0.09598271365721112,0.0
1075,-4.476944016716666e-05,0.0
1076,0.04645379318799197,0.0
1077,-0.022919353404752166,0.0
1078,0.07391408015700755,0.0
1079,0.12338717074075153,0.0
1080,0.03265336875803127,0.0
1081,0.054596388089649076,0.0
1082,0.028608602453540268,0.0
1083,0.11913814983667341,0.0
1084,2.6383163594523844,0.0
1085,6.800769133633115,0.0
1086,-2.113826847640457,0.0
1087,0.5256297631681264,0.0
1088,0.09520405777792275,0.0
1089,-0.008622045473602506,0.0
1090,0.03220340046596632,0.0
1091,-0.05415513067316378,0.0
1092,2.178182580266232e-05,0.0
1093,-0.033090887216157105,0.0
1094,0.004437869661038056,0.0
1095,-0.04784473181057643,0.0
1096,0.045565790371632976,0.0
1097,-0.02202162393988049,0.0
1098,0.032097738222117145,0.0
1099,-0.034502579471726386,0.0
1100,0.3122271644171323,0.0
1101,4.810401982088175,0.0
1102,4.621902752262653,0.0
1103,-2.9612827750914765,0.0
1104,1.5752022500528098,0.0
1105,-0.7958570530152314,0.0
1106,0.24416847453522517,0.0
1107,-0.1688557665528479,0.0
1108,0.0434851649236177,0.0
1109,-0.03859729990110655,0.0
1110,0.014913264303440539,0.0
1111,0.055205712638619106,0.0
1112,-0.003907983366626903,0.0
1113,0.057186759544208904,0.0
1114,-0.04959619483673866,0.0
1115,-0.004581868924553362,0.0
1116,0.028026603405490333,0.0
1117,1.1249383881086767,0.0
1118,6.664875789507167,0.0
1119,1.0300616702196168,0.0
1120,-1.556733959726692,0.0
1121,1.1037908954976425,0.0
1122,-0.5012441987169184,0.0
1123,0.27436744250825484,0.0
1124,-0.10130919165853403,0.0
1125,0.07095472992712773,0.0
1126,0.020109633724329234,0.0
1127,0.004172160669168899,0.0
1128,-0.006071379322542389,0.0
1129,0.007375259324182847,0.0
1130,-0.045408877096758074,0.0
1131,0.11408577787053177,0.0
1132,-0.04482794163670595,0.0
1133,0.032360317901375515,0.0
1134,2.741744492910469,0.0
1135,6.724331621058658,0.0
1136,-2.2598714983381334,0.0
1137,0.42526897475765374,0.0
1138,-0.09825729153381652,0.0
1139,-0.01034055911995567,0.0
1140,-0.07490671281588872,0.0
1141,-0.050069742491509035,0.0
1142,-0.02758156454396086,0.0
1143,-0.0332198008120272,0.0
1144,-0.05282862272886332,0.0
1145,-0.0531061209054893,0.0
1146,0.0010712460024773496,0.0
1147,-0.0205869948353537,0.0
1148,0.022622622182854754,0.0
1149,0.05454429655558975,0.0
1150,0.3206507810817485,0.0
1151,4.816144544385654,0.0
1152,4.471910402627674,0.0
1153,-2.9587885164864423,0.0
1154,1.5296900834083418,0.0
1155,-0.7488585671203609,0.0
1156,0.23127247569150478,0.0
1157,-0.16542179431412696,0.0
1158,0.04203708870041742,0.0
1159,-0.07454757800604252,0.0
1160,-0.0814634374033161,0.0
1161,0.016381730455988876,0.0
1162,-0.025616703724182417,0.0
1163,-0.06475050449583192,0.0
1164,-0.04237106240079399,0.0
1165,-0.044743765324914045,0.0
1166,0.0201228648443171,0.0
1167,1.156298219378907,0.0
1168,6.581055651665801,0.0
1169,1.0336733702735663,0.0
1170,-1.7045270660061274,0.0
1171,1.1129062663046934,0.0
1172,-0.6233456325321396,0.0
1173,0.17156849070907526,0.0
1174,-0.1498175642344856,0.0
1175,-0.14603117652138062,0.0
1176,-0.10207727773825072,0.0
1177,-0.1729900288304009,0.0
1178,-0.12016349476575999,0.0
1179,-0.1378713654817198,0.0
1180,-0.18442505521209263,0.0
1181,-0.17509333387349907,0.0
1182,-0.1789014397329356,0.0
1183,-0.2234987387690466,0.0
1184,2.6098019429689905,0.0
1185,6.5384140562803745,0.0
1186,-2.311841828757967,0.0
1187,0.36194261763329644,0.0
1188,-0.10522476047947481,0.0
1189,-0.15115364541399992,0.0
1190,-0.0813276017391112,0.0
1191,-0.09324056869000169,0.0
1192,-0.10099965860504719,0.0
1193,-0.0066462014863048965,0.0
1194,-0.023973216661360455,0.0
1195,-0.005602593596635154,0.0
1196,0.016780406025194518,0.0
1197,-0.020690871688474236,0.0
1198,-0.0028709009418538753,0.0
1199,-0.15075994310026752,0.0
1200,0.29524152828399386,0.0
1201,4.784527261335367,0.0
1202,4.5467169339501865,0.0
1203,-3.028270299384208,0.0
1204,1.509614671271046,0.0
1205,-0.7597707165545038,0.0
1206,0.2188306436614023,0.0
1207,-0.1674024791948316,0.0
1208,-0.11431621000092759,0.0
1209,-0.02760142662618366,0.0
1210,-0.12439566592022404,0.0
1211,-0.06606740552941172,0.0
1212,-0.09708481557411111,0.0
1213,-0.05368184092951074,0.0
1214,-0.0964899201496792,0.0
1215,-0.06056048794032186,0.0
1216,-0.07782765261351182,0.0
1217,1.1528669712988833,0.0
1218,6.689194042418797,0.0
1219,1.0563391579651746,0.0
1220,-1.696874927493858,0.0
1221,1.069899207243119,0.0
1222,-0.6154845132825496,0.0
1223,0.25965409241442755,0.0
1224,-0.1141464368087702,0.0
1225,-0.025351880568729064,0.0
1226,0.026910006208274752,0.0
1227,0.002549715108477478,0.0
1228,-0.008306644373466586,0.0
1229,-0.00879991584529833,0.0
1230,0.07080932571304424,0.0
1231,0.0021353053619885404,0.0
1232,-0.06868057402779393,0.0
1233,0.03767936903335922,0.0
1234,2.789835516429119,0.0
1235,6.663996281059798,0.0
1236,-2.196530843074633,0.0
1237,0.41503645526628924,0.0
1238,-0.15723687469189335,0.0
1239,-0.13553243483737365,0.0
1240,-0.09238014767471564,0.0
1241,-0.010580959042501802,0.0
1242,-0.10922482223232509,0.0
1243,-0.07573412954802422,0.0
1244,-0.05806726557352968,0.0
1245,-0.04525125688046672,0.0
1246,-0.039912109733006615,0.0
1247,-0.02623703576248805,0.0
1248,-0.037961357856448094,0.0
1249,-0.1196158533265202,0.0
1250,0.309576716897405,0.0
1251,4.936121017670723,0.0
1252,4.400796459937107,0.0
1253,-3.1154899768566935,0.0
1254,1.4566245909697697,0.0
1255,-0.8052121244502431,0.0
1256,0.21159140172248678,0.0
1257,-0.14401059957464318,0.0
1258,0.011101778121955463,0.0
1259,-0.04483682249363561,0.0
1260,-0.07504699414969601,0.0
1261,0.01639442263802949,0.0
1262,-0.10146567773289822,0.0
1263,-0.043550372723388346,0.0
1264,0.08647424619849878,0.0
1265,0.004210254139063053,0.0
1266,0.09440836027016884,0.0
1267,1.1182606416510499,0.0
1268,6.612989380726507,0.0
1269,0.8871551628236645,0.0
1270,-1.6586075023241649,0.0
1271,1.1051866997501198,0.0
1272,-0.467105829816596,0.0
1273,0.23796749837416908,0.0
1274,-0.08932892297375114,0.0
1275,-0.08093037042435726,0.0
1276,0.04116982232903729,0.0
1277,-0.06561738560133956,0.0
1278,-0.028377304646272312,0.0
1279,-0.021406927782858055,0.0
1280,-0.08842349729594559,0.0
1281,-0.07612639157480516,0.0
1282,-0.010765574690160672,0.0
1283,0.1034132942582237,0.0
1284,2.7359544887138787,0.0
1285,6.777930542787647,0.0
1286,-2.14833803251049,0.0
1287,0.5706108710948185,0.0
1288,-0.1536979658751708,0.0
1289,0.04053880812818622,0.0
1290,-0.0657516071058362,0.0
1291,0.06850165225841062,0.0
1292,-0.015187152409462631,0.0
1293,0.07899714916027017,0.0
1294,-0.07361906349119252,0.0
1295,-0.03668802277347258,0.0
1296,0.06067633640179425,0.0
1297,0.016605569376977547,0.0
1298,0.05039155692464425,0.0
1299,0.01943062928131964,0.0
1300,0.37105567173923654,0.0
1301,4.873854119051784,0.0
1302,4.520899389899359,0.0
1303,-3.010370967105795,0.0
1304,1.622143438950963,0.0
1305,-0.7439991879535676,0.0
1306,0.4251834610324646,0.0
1307,-0.13789783546025441,0.0
1308,-0.02224645172504798,0.0
1309,-0.06920220822104967,0.0
1310,-0.0006894728841593117,0.0
1311,-0.08278614479459911,0.0
1312,0.033031925756372496,0.0
1313,0.05532970998895825,0.0
1314,0.019525068411781865,0.0
1315,0.04648006540231063,0.0
1316,-0.14781556899309792,0.0
1317,1.1688133484518828,0.0
1318,6.675401865342047,0.0
1319,0.9139285958258875,0.0
1320,-1.6273460102424249,0.0
1321,1.0602438328780055,0.0
1322,-0.5943807999705738,0.0
1323,0.1705319071377513,0.0
1324,-0.14729451749567946,0.0
1325,0.002094050063285252,0.0
1326,-0.06694948445626658,0.0
1327,0.07346963986809754,0.0
1328,0.018316739080299342,0.0
1329,0.06950419688858678,0.0
1330,-0.005287200099316257,0.0
1331,0.01846889192151506,0.0
1332,-0.06088139980323579,0.0
1333,0.03534839416107975,0.0
1334,2.7330952658012397,0.0
1335,6.802670293019907,0.0
1336,-2.0653815973208407,0.0
1337,0.5822808828555361,0.0
1338,-0.026267982691995963,0.0
1339,-0.040770840426174924,0.0
1340,0.08008356066437546,0.0
1341,0.04510974991453143,0.0
1342,-0.05597701987253691,0.0
1343,-0.09202131639393313,0.0
1344,0.021081220119234897,0.0
1345,0.0811995748786942,0.0
1346,-0.0018007876009731028,0.0
1347,0.007464870341068162,0.0
1348,0.05574642205660055,0.0
1349,0.06559504277855782,0.0
1350,0.42709475913469475,0.0
1351,4.991829920918053,0.0
1352,4.5589912690602645,0.0
1353,-2.904855115352139,0.0
1354,1.5442288463669622,0.0
1355,-0.8626971605605688,0.0
1356,0.28176686763339587,0.0
1357,-0.10102745351896547,0.0
1358,0.1221629948226933,0.0
1359,-0.02000696993341708,0.0
1360,-0.09501298376763673,0.0
1361,0.019814083997969443,0.0
1362,0.031283963041303445,0.0
1363,0.09126518178956583,0.0
1364,0.006445133176993224,0.0
1365,-0.04094792876665778,0.0
1366,0.09769544161340862,0.0
1367,1.2242274083406317,0.0
1368,6.692478962500003,0.0
1369,1.0029368579805582,0.0
1370,-1.5375860004358766,0.0
1371,1.033588078738555,0.0
1372,-0.5909997370054559,0.0
1373,0.2422845716427765,0.0
1374,0.018054668654902947,0.0
1375,0.1276931398942816,0.0
1376,0.13695847508907957,0.0
1377,-0.015977735184185382,0.0
1378,0.007523685359775961,0.0
1379,-0.027131862514985186,0.0
1380,0.022734429349774418,0.0
1381,-0.07046687662840696,0.0
1382,0.11278601536844514,0.0
1383,0.03755536041034207,0.0
1384,2.849363035771492,0.0
1385,6.686717687487386,0.0
1386,-2.112904351678655,0.0
1387,0.5891623885290966,0.0
1388,0.017187936704259103,0.0
1389,0.03961181921148093,0.0
1390,0.10485981977571772,0.0
1391,-0.0045457223755567475,0.0
1392,0.006703088328538661,0.0
1393,-0.007241213231996356,0.0
1394,-0.03939896051314677,0.0
1395,0.05503508076044786,0.0
1396,0.10073148750473963,0.0
1397,-0.011227472265070971,0.0
1398,-0.0068842749365693595,0.0
1399,-0.04444631028092073,0.0
1400,0.4029254210674733,0.0
1401,4.972867213589276,0.0
1402,4.460460363856595,0.0
1403,-3.0344234150753633,0.0
1404,1.604401085122141,0.0
1405,-0.8664074323589297,0.0
1406,0.22765270038671537,0.0
1407,-0.18007689349823222,0.0
1408,-0.05190392611101232,0.0
1409,-0.19478068714639724,0.0
1410,-0.10751211180600323,0.0
1411,-0.2118698581530259,0.0
1412,-0.13470034205108355,0.0
1413,-0.11261036083699223,0.0
1414,-0.1602530625125381,0.0
1415,-0.11173170412583491,0.0
1416,-0.0599701916718686,0.0
1417,1.1632081744789524,0.0
1418,6.6178660776256955,0.0
1419,0.8701090185986989,0.0
1420,-1.535072614969017,0.0
1421,1.136845586027081,0.0
1422,-0.5584907174863636,0.0
1423,0.3865644114240104,0.0
1424,-0.1151173892315179,0.0
1425,0.095684999219004,0.0
1426,-0.04626913391457336,0.0
1427,-0.01955263596880771,0.0
1428,-0.030515244094472538,0.0
1429,0.0022795477550821824,0.0
1430,0.06406205300530009,0.0
1431,-0.01576818628471683,0.0
1432,0.010724208071724927,0.0
1433,0.12792587446511017,0.0
1434,2.881721924196026,0.0
1435,6.687444695895646,0.0
1436,-2.285582354156317,0.0
1437,0.43180417887228795,0.0
1438,-0.08034132224475488,0.0
1439,-0.05351705179742056,0.0
1440,-0.06627284835035632,0.0
1441,0.005411431922406604,0.0
1442,0.009696677429777919,0.0
1443,0.03753249902878626,0.0
1444,0.012249602526406746,0.0
1445,-0.013255283305702342,0.0
1446,0.008372699240729458,0.0
1447,-0.03199337515816105,0.0
1448,0.001999600175137513,0.0
1449,-0.09706523872186054,0.0
1450,0.32249278373188595,0.0
1451,4.98220327889726,0.0
1452,4.289125634378927,0.0
1453,-2.9856065986669833,0.0
1454,1.407080015962098,0.0
1455,-0.8061455420448271,0.0
1456,0.33902571102135737,0.0
1457,-0.12125936171452786,0.0
1458,-0.007720143996064285,0.0
1459,-0.0362563986480118,0.0
1460,-0.08041032138743764,0.0
1461,-0.012497108834826413,0.0
1462,-0.13461802652977178,0.0
1463,-0.039601746632030324,0.0
1464,0.05663339249820789,0.0
1465,0.040380093686071344,0.0
1466,-0.0937808196440989,0.0
1467,1.1549760674749447,0.0
1468,6.664114212501708,0.0
1469,0.6765663973757191,0.0
1470,-1.6457301676122669,0.0
1471,0.998249492237376,0.0
1472,-0.6032429961517435,0.0
1473,0.3388222483009166,0.0
1474,-0.15361219461256082,0.0
1475,0.007584355757294211,0.0
1476,-0.07324415328252339,0.0
1477,-0.011508379557380956,0.0
1478,-0.019766942403696926,0.0
1479,-0.014235999754841806,0.0
1480,-0.07831359873637694,0.0
1481,-0.03706812194709901,0.0
1482,-0.1618461561905504,0.0
1483,-0.008790317031609736,0.0
1484,2.8338973323816896,0.0
1485,6.599621503852915,0.0
1486,-2.3727450336218894,0.0
1487,0.5191941029576703,0.0
1488,-0.10474610081422171,0.0
1489,-0.08049888700451371,0.0
1490,-0.040702913946868105,0.0
1491,-0.07982883721391967,0.0
1492,-0.00021089953999350874,0.0
1493,-0.06921436849362561,0.0
1494,-0.10608375007694534,0.0
1495,-0.09824713706836005,0.0
1496,-0.11089400223428335,0.0
1497,-0.0032899943548061507,0.0
1498,-0.12468294638419804,0.0
1499,-0.069826317367885,0.0
1500,0.29106710972865313,0.0
1501,4.936071510455319,0.0
1502,4.337859211553749,0.0
1503,-2.9145991516708785,0.0
1504,1.4977526634395553,0.0
1505,-0.8026995386768664,0.0
1506,0.2680374353854686,0.0
1507,-0.20788743971316118,0.0
1508,-0.01024223754211666,0.0
1509,-0.05700638150604413,0.0
1510,-0.0452700068168295,0.0
1511,0.0015985896893894042,0.0
1512,-0.006008782604921607,0.0
1513,-0.05712565947684771,0.0
1514,-0.05025551617155176,0.0
1515,0.03016335419195557,0.0
1516,-0.05801012357074746,0.0
1517,1.153659428843023,0.0
1518,6.7180314794594125,0.0
1519,0.9205127906272641,0.0
1520,-1.494821159705524,0.0
1521,1.061991158806735,0.0
1522,-0.5225491018081673,0.0
1523,0.341381912164387,0.0
1524,-0.058043295024545985,0.0
1525,0.03897667067437434,0.0
1526,0.08365382271825261,0.0
1527,0.013353114613909953,0.0
1528,0.04934833238452126,0.0
1529,0.024055017452820987,0.0
1530,0.00853402025573714,0.0
1531,0.03172405937692649,0.0
1532,-0.01795067370250533,0.0
1533,-0.02686366200464506,0.0
1534,2.961312877275232,0.0
1535,6.668920351994669,0.0
1536,-2.2487130790422882,0.0
1537,0.542825836501187,0.0
1538,-0.10527463734115808,0.0
1539,-0.07518726310457384,0.0
1540,-0.11119690189783843,0.0
1541,-0.08841414593199604,0.0
1542,-0.11056777863977563,0.0
1543,-0.0044904916022578956,0.0
1544,-0.1608574065523391,0.0
1545,-0.13456293721704451,0.0
1546,0.004974918479722076,0.0
1547,-0.07356289677445939,0.0
1548,-0.06355789433246341,0.0
1549,-0.02347881482361007,0.0
1550,0.3537423722903985,0.0
1551,4.973690932300861,0.0
1552,4.308777381247453,0.0
1553,-2.9372245058676505,0.0
1554,1.597438662388736,0.0
1555,-0.7388516742689256,0.0
1556,0.2521016193947612,0.0
1557,-0.16972862774718114,0.0
1558,-0.00452898083388123,0.0
1559,0.005763720120834662,0.0
1560,0.005071146013924985,0.0
1561,0.031800045366483065,0.0
1562,-0.06527371467662883,0.0
1563,0.05223603543203448,0.0
1564,-0.11359195641418936,0.0
1565,0.000985162919613071,0.0
1566,0.04071126295480751,0.0
1567,1.1299404917312257,0.0
1568,6.765492601427667,0.0
1569,0.7852891156958683,0.0
1570,-1.523638263659663,0.0
1571,1.086152942771422,0.0
1572,-0.573900216031472,0.0
1573,0.2483681190058525,0.0
1574,-0.10018421027914186,0.0
1575,-0.0013901565065619556,0.0
1576,-0.003400492175200595,0.0
1577,-0.04907068886336274,0.0
1578,-0.007089134822427089,0.0
1579,-0.08586422425473658,0.0
1580,-0.09244979324876472,0.0
1581,-0.018127106898180437,0.0
1582,-0.05685326415863847,0.0
1583,-0.0577570161947831,0.0
1584,2.8875004365240673,0.0
1585,6.561909613415083,0.0
1586,-2.27304387836905,0.0
1587,0.5055183030024009,0.0
1588,-0.11629651727905156,0.0
1589,-0.1411304139368553,0.0
1590,-0.048385327102318826,0.0
1591,-0.015940912095271646,0.0
1592,-0.03821989441734878,0.0
1593,0.02292388172875147,0.0
1594,-0.04899244641852578,0.0
1595,-0.02565092316585705,0.0
1596,-0.04940266251569412,0.0
1597,-0.018333497401975554,0.0
1598,-0.039954409997028664,0.0
1599,0.004557347407232307,0.0
1600,0.36396877711597014,0.0
1601,4.93938829286021,0.0
1602,4.270488764918959,0.0
1603,-2.9865481371577176,0.0
1604,1.547987852953588,0.0
1605,-0.808833850827498,0.0
1606,0.3418115207244879,0.0
1607,-0.061626966242763884,0.0
1608,0.04527592059134398,0.0
1609,-0.09464795182518773,0.0
1610,-0.07951345002765162,0.0
1611,-0.027458138627321306,0.0
1612,0.02478124634367348,0.0
1613,-0.07779385790686505,0.0
1614,-0.0375024040069376,0.0
1615,-0.010443462800029134,0.0
1616,0.05077915269279244,0.0
1617,1.2377448015309724,0.0
1618,6.691479521845377,0.0
1619,0.7082659391138094,0.0
1620,-1.6641703222861641,0.0
1621,1.0525792980632893,0.0
1622,-0.5909823670142319,0.0
1623,0.13849454115786705,0.0
1624,-0.20662951795573936,0.0
1625,0.030664947350765553,0.0
1626,-0.010495399095024602,0.0
1627,0.046705241656511604,0.0
1628,-0.03899314407239306,0.0
1629,-0.01800775959730253,0.0
1630,-0.005885467277346269,0.0
1631,-0.027114076230302358,0.0
1632,-0.03244845844706892,0.0
1633,-0.009052896417621178,0.0
1634,2.8802810600756477,0.0
1635,6.535144406863737,0.0
1636,-2.2793356884248936,0.0
1637,0.4898827388563516,0.0
1638,-0.12533641190431002,0.0
1639,-0.0376742202119026,0.0
1640,-0.07102427457078439,0.0
1641,-0.03854716158761646,0.0
1642,-0.1456621197273399,0.0
1643,-0.03577365352189367,0.0
1644,-0.1613802454224286,0.0
1645,-0.025327575397539367,0.0
1646,-0.08405238330131765,0.0
1647,-0.16051144318426142,0.0
1648,-0.07789980598052824,0.0
1649,-0.20380109574462302,0.0
1650,0.3623018171055088,0.0
1651,4.903085766517454,0.0
1652,4.297308511806942,0.0
1653,-3.0524452341844626,0.0
1654,1.4911338816318536,0.0
1655,-0.8452152558952728,0.0
1656,0.23107981865842206,0.0
1657,-0.15942462286121728,0.0
1658,0.0846813939303584,0.0
1659,-0.04968106213274283,0.0
1660,-0.07177845602562363,0.0
1661,-0.11206372368085543,0.0
1662,-0.02647263638290569,0.0
1663,-0.0007267797274201696,0.0
1664,-0.10594708651532717,0.0
1665,-0.042634156616690025,0.0
1666,-0.07288014640925218,0.0
1667,1.1928796063573102,0.0
1668,6.5881302964543496,0.0
1669,0.6859781672591767,0.0
1670,-1.5505868165301377,0.0
1671,0.9788163830799254,0.0
1672,-0.5438356739941368,0.0
1673,0.18689514729798032,0.0
1674,-0.048447491046626226,0.0
1675,-0.0634015303333338,0.0
1676,-0.043002554009379634,0.0
1677,-0.0682659869954447,0.0
1678,-0.15919887658808263,0.0
1679,-0.062249934364080495,0.0
1680,-0.06032319775544832,0.0
1681,0.01330241857207528,0.0
1682,-0.058933238970340106,0.0
1683,-0.1250752656142115,0.0
1684,2.9127518211875123,0.0
1685,6.615880066856189,0.0
1686,-2.382577141905587,0.0
1687,0.6013891726818058,0.0
1688,-0.1946027387776938,0.0
1689,-0.0535573270360148,0.0
1690,-0.057059008097316705,0.0
1691,-0.019465594105361562,0.0
1692,-0.07572537016813428,0.0
1693,-0.13475631103461783,0.0
1694,-0.05278368928395821,0.0
1695,-0.01920755592242672,0.0
1696,-0.02911900145088806,0.0
1697,-0.09510558011954555,0.0
1698,-0.03337356903942816,0.0
1699,-0.18829687573679707,0.0
1700,0.23319414716856593,0.0
1701,4.973267679359991,0.0
1702,4.206076073115624,0.0
1703,-2.99392632068165,0.0
1704,1.4998904392844399,0.0
1705,-0.8919555698506427,0.0
1706,0.3368261694881493,0.0
1707,-0.12802803475565241,0.0
1708,-0.06726041360323833,0.0
1709,0.00473643058936056,0.0
1710,0.012322672554071799,0.0
1711,-0.04175222578711812,0.0
1712,0.0705011921727926,0.0
1713,0.09919940852454742,0.0
1714,-0.015675984871122175,0.0
1715,-0.04175198398060102,0.0
1716,0.0016434021567624732,0.0
1717,1.1846361907687664,0.0
1718,6.727920955952514,0.0
1719,0.7327668167661554,0.0
1720,-1.3904306016279997,0.0
1721,0.998162622686625,0.0
1722,-0.5580434463005793,0.0
1723,0.11622771561906418,0.0
1724,-0.04323233872544381,0.0
1725,0.00805548300071062,0.0
1726,-0.03507007769693709,0.0
1727,0.011271788180852404,0.0
1728,-0.04374379576469406,0.0
1729,-0.05894796662802682,0.0
1730,0.047027583017063244,0.0
1731,-0.1206246574184433,0.0
1732,-0.059424162769021446,0.0
1733,-0.05681881983411014,0.0
1734,2.8812702526807796,0.0
1735,6.6556114339086,0.0
1736,-2.437567317942215,0.0
1737,0.6080104567230783,0.0
1738,-0.12635571738388543,0.0
1739,-0.12645361928263193,0.0
1740,-0.0998837453981473,0.0
1741,0.06301334787891404,0.0
1742,0.011368442626579524,0.0
1743,-0.13446103715060173,0.0
1744,0.019516780338817756,0.0
1745,-0.055158835106314155,0.0
1746,-0.0731091940830256,0.0
1747,-0.09441557093267502,0.0
1748,-0.04101067444722897,0.0
1749,-0.06186043245320376,0.0
1750,0.3829126913834831,0.0
1751,5.006057226322874,0.0
1752,4.261588702696727,0.0
1753,-2.9240734182963393,0.0
1754,1.4718023092018215,0.0
1755,-0.8304318555641771,0.0
1756,0.35094633285467786,0.0
1757,-0.10932735777212804,0.0
1758,-7.040543242003289e-05,0.0
1759,-0.012818521050933286,0.0
1760,-0.07629497900196194,0.0
1761,0.007253848579571134,0.0
1762,-0.0469813979790545,0.0
1763,0.021249233913786216,0.0
1764,-0.02880326614305148,0.0
1765,0.04413268528138395,0.0
1766,-0.015342370948934913,0.0
1767,1.26915122179945,0.0
1768,6.790341069496844,0.0
1769,0.6957449847909546,0.0
1770,-1.5473304236301084,0.0
1771,1.0345437131233253,0.0
1772,-0.5450262887903217,0.0
1773,0.11213144403443209,0.0
1774,-0.1024477862852173,0.0
1775,0.0036442042866751713,0.0
1776,-0.09376647943318075,0.0
1777,-0.01584863316067502,0.0
1778,0.004033523314513707,0.0
1779,-0.08132856037252276,0.0
1780,-0.02368671847677546,0.0
1781,0.02276347476767513,0.0
1782,-0.032712938401391785,0.0
1783,0.015558620589066763,0.0
1784,3.0065158112247614,0.0
1785,6.59086930310592,0.0
1786,-2.3427152964756446,0.0
1787,0.7128847452619298,0.0
1788,-0.10568210901692507,0.0
1789,0.026368750869863202,0.0
1790,0.0014012253103425736,0.0
1791,0.026702756951053168,0.0
1792,0.03579761974636296,0.0
1793,-0.044726992180218555,0.0
1794,-0.09762658601697002,0.0
1795,-0.08016388866749241,0.0
1796,-0.14526809364558285,0.0
1797,-0.08244563611023374,0.0
1798,-0.17306259611590663,0.0
1799,-0.17024291083080986,0.0
1800,0.24517679078150528,0.0
1801,4.974934409521987,0.0
1802,4.095660812200039,0.0
1803,-3.0597065968101838,0.0
1804,1.4568515551482237,0.0
1805,-0.7979302814128165,0.0
1806,0.2529368169460707,0.0
1807,-0.13183190139180864,0.0
1808,-0.04481211481093688,0.0
1809,0.03696395670621316,0.0
1810,0.014086717976805507,0.0
1811,0.05194594737323646,0.0
1812,-0.004737313573958624,0.0
1813,0.015063729246997164,0.0
1814,0.08670185437112313,0.0
1815,0.07286686166833857,0.0
1816,0.07956041100183056,0.0
1817,1.3062628872188728,0.0
1818,6.639446943546915,0.0
1819,0.7180173669562896,0.0
1820,-1.4692303020814674,0.0
1821,1.0549163102183265,0.0
1822,-0.45017833018439224,0.0
1823,0.227788822381846,0.0
1824,0.03896665520424836,0.0
1825,-0.008291621072769536,0.0
1826,-0.043319143509675785,0.0
1827,-0.013887057315109062,0.0
1828,-0.07184912856560359,0.0
1829,0.012552335484994608,0.0
1830,-0.05952278350698159,0.0
1831,0.046367509837378834,0.0
1832,0.058265896741619756,0.0
1833,-0.013907245139883548,0.0
1834,2.873879454019193,0.0
1835,6.567571090289146,0.0
1836,-2.3482543112819276,0.0
1837,0.6730154959381804,0.0
1838,-0.07838280618651629,0.0
1839,-0.025529212733851767,0.0
1840,0.012904446365461822,0.0
1841,0.050105055630471663,0.0
1842,0.05112114942788548,0.0
1843,0.03080198880329864,0.0
1844,0.04030383686532839,0.0
1845,0.02190320440137441,0.0
1846,0.0402368083873997,0.0
1847,0.04080247091349458,0.0
1848,0.024748664124392975,0.0
1849,-0.0033357642497516622,0.0
1850,0.3489561294597292,0.0
1851,5.231619965260851,0.0
1852,4.283054328547589,0.0
1853,-2.8770719152321447,0.0
1854,1.5579215416804495,0.0
1855,-0.7724423894289961,0.0
1856,0.30287711289763947,0.0
1857,-0.06023476541260814,0.0
1858,0.10779358569850753,0.0
1859,0.11464906789488147,0.0
1860,0.016170321448478613,0.0
1861,0.04271576223292354,0.0
1862,0.03367943906615581,0.0
1863,0.043306720779548495,0.0
1864,0.10398855772843571,0.0
1865,0.06052505685844556,0.0
1866,0.12158217544681893,0.0
1867,1.2623206096932238,0.0
1868,6.760022487221126,0.0
1869,0.6394924074736187,0.0
1870,-1.411768579104952,0.0
1871,1.0829109862171389,0.0
1872,-0.5294986412307364,0.0
1873,0.20733385857477846,0.0
1874,-0.03231402142621298,0.0
1875,-0.02049634754465024,0.0
1876,0.06703013924230758,0.0
1877,0.0016035895288748665,0.0
1878,0.04279083021701578,0.0
1879,0.0399952777014488,0.0
1880,-0.008062392582108086,0.0
1881,-0.02701855041943111,0.0
1882,-0.016835329922964156,0.0
1883,0.0682566176748629,0.0
1884,2.9961203741124702,0.0
1885,6.648862231850566,0.0
1886,-2.303263240094092,0.0
1887,0.7539046759016741,0.0
1888,-0.09294188316200071,0.0
1889,0.028447483030874018,0.0
1890,0.03464826707535059,0.0
1891,-0.03437060616266775,0.0
1892,0.03781795109422491,0.0
1893,-0.061719582875319944,0.0
1894,-0.09937720700105987,0.0
1895,0.02158237579197496,0.0
1896,0.038321830884460416,0.0
1897,-0.06132090385957813,0.0
1898,0.030831594247673788,0.0
1899,-0.05917441786213116,0.0
1900,0.31198452777452657,0.0
1901,5.026426348439943,0.0
1902,4.3010782588902075,0.0
1903,-2.925037469794655,0.0
1904,1.4471105989784123,0.0
1905,-0.8254819113238099,0.0
1906,0.31591637641432324,0.0
1907,-0.09749803852178057,0.0
1908,0.13919887555939653,0.0
1909,0.07859937180943688,0.0
1910,0.03907569578404139,0.0
1911,0.1002506883452563,0.0
1912,0.06684886306737722,0.0
1913,-0.03989637737862217,0.0
1914,0.04170157077147451,0.0
1915,0.09596310069860625,0.0
1916,0.13023698918764384,0.0
1917,1.3565735809289294,0.0
1918,6.775612259113865,0.0
1919,0.6209099716774509,0.0
1920,-1.3624314836437537,0.0
1921,1.1124420872461935,0.0
1922,-0.5030173635115908,0.0
1923,0.3148540570534545,0.0
1924,-0.05929997556037167,0.0
1925,0.008307327970903236,0.0
1926,0.03143005146314305,0.0
1927,0.055071971052371826,0.0
1928,0.040607909840399685,0.0
1929,0.09405640165692009,0.0
1930,0.007356868387880437,0.0
1931,0.08708261871574367,0.0
1932,-0.02723403723790277,0.0
1933,0.12323923433975004,0.0
1934,3.03973484491048,0.0
1935,6.600592024740816,0.0
1936,-2.362501603584293,0.0
1937,0.6507767075639843,0.0
1938,-0.1594490475656261,0.0
1939,0.015917087752844943,0.0
1940,0.012548177455612985,0.0
1941,-0.06351403217221767,0.0
1942,-0.05955556414246353,0.0
1943,0.07222710190088477,0.0
1944,0.038754910993036774,0.0
1945,-0.03098824450190641,0.0
1946,0.03636802917590746,0.0
1947,-0.013258739790789037,0.0
1948,0.04522500022631198,0.0
1949,-0.008520883929460134,0.0
1950,0.41723541307971385,0.0
1951,5.129301229568569,0.0
1952,4.200439850110633,0.0
1953,-2.9031555430544507,0.0
1954,1.647030259287376,0.0
1955,-0.6882769326179491,0.0
1956,0.3045734048631255,0.0
1957,-0.05821202527482627,0.0
1958,0.08291158082804556,0.0
1959,0.06804748605005334,0.0
1960,0.07619847208292188,0.0
1961,-0.013909961695785789,0.0
1962,0.026680751364181864,0.0
1963,0.03707643010784323,0.0
1964,0.06187741770199842,0.0
1965,0.15530826956338578,0.0
1966,0.05549075640884909,0.0
1967,1.3446422808491394,0.0
1968,6.79045774464316,0.0
1969,0.5853677752677696,0.0
1970,-1.436730117988441,0.0
1971,1.1273531042430045,0.0
1972,-0.4357254464638826,0.0
1973,0.3043984523618593,0.0
1974,0.05990412258418565,0.0
1975,0.02355486949074384,0.0
1976,0.08939503523597947,0.0
1977,0.024604844661397656,0.0
1978,-0.04079516813635811,0.0
1979,0.01503269715036584,0.0
1980,-0.013126082509330103,0.0
1981,0.06949672615109356,0.0
1982,0.035016086266516255,0.0
1983,0.07964273482447323,0.0
1984,3.0285087781497864,0.0
1985,6.61954087278778,0.0
1986,-2.36527344819251,0.0
1987,0.7291628555491382,0.0
1988,-0.11467790922011108,0.0
1989,0.06414166636312196,0.0
1990,0.014261522482055353,0.0
1991,0.08996396786574284,0.0
1992,0.026676463587685925,0.0
1993,-0.09989753428564495,0.0
1994,0.09445701463190227,0.0
1995,0.042427430313817585,0.0
1996,-0.04184708615436841,0.0
1997,-0.06834144127546952,0.0
1998,-0.005896596753559208,0.0
1999,-0.06246800109013385,0.0
2000,0.4264551074920929,0.0
2001,5.171620967463839,0.0
2002,4.125026690020912,0.0
2003,-2.96758613748946,0.0
2004,1.6658645423861587,0.0
2005,-0.7970881225073866,0.0
2006,0.42437785098257946,0.0
2007,-0.10915856562894684,0.0
2008,0.07828933912097245,0.0
2009,0.006215722230699307,0.0
2010,0.057867138118274195,0.0
2011,0.059984676276198995,0.0
2012,0.0012241944218563637,0.0
2013,0.03836712372511998,0.0
2014,0.10136506810177415,0.0
2015,0.13545809240432793,0.0
2016,-0.021045380100479506,0.0
2017,1.3085089298342927,0.0
2018,6.721714081522308,0.0
2019,0.6300956168043004,0.0
2020,-1.3681443746241453,0.0
2021,0.9816989045683637,0.0
2022,-0.4557449156317131,0.0
2023,0.16544872570033206,0.0
2024,-0.13092428955470042,0.0
2025,0.026629617437073455,0.0
2026,-0.0007882644803325241,0.0
2027,0.04093455195396321,0.0
2028,0.028466190490385436,0.0
2029,0.02211291913336409,0.0
2030,0.059938406678925124,0.0
2031,0.0745397889863057,0.0
2032,0.013585097480778798,0.0
2033,0.03205666195459381,0.0
2034,2.991339933272302,0.0
2035,6.610053927264786,0.0
2036,-2.3958180138435785,0.0
2037,0.7756834106592299,0.0
2038,-0.16816329915320563,0.0
2039,-0.019580167795151607,0.0
2040,0.05786630275434909,0.0
2041,0.017720303594455356,0.0
2042,-0.010511065839708733,0.0
2043,0.025374352394937308,0.0
2044,-0.0874099036511494,0.0
2045,-0.015653123757664512,0.0
2046,0.04355543841367163,0.0
2047,0.08938080878063527,0.0
2048,0.09225026360142556,0.0
2049,0.03748392271153849,0.0
2050,0.420597447389484,0.0
2051,5.130853695184904,0.0
2052,4.1754806557505075,0.0
2053,-2.9032765321528418,0.0
2054,1.657995119218979,0.0
2055,-0.6948933145805288,0.0
2056,0.2638186479532614,0.0
2057,-0.02877757721294013,0.0
2058,0.07260980269175182,0.0
2059,0.06842933522592709,0.0
2060,0.07238210846178755,0.0
2061,0.11030160314899623,0.0
2062,0.04559441004267757,0.0
2063,0.07197231914805631,0.0
2064,-0.004698512138194846,0.0
2065,0.08275779277898082,0.0
2066,0.012028606876564978,0.0
2067,1.3058710721048779,0.0
2068,6.709411884659785,0.0
2069,0.4782499634288521,0.0
2070,-1.4125419250217168,0.0
2071,0.8677355694725869,0.0
2072,-0.4918288594814904,0.0
2073,0.16420115807334093,0.0
2074,-0.15250357606302892,0.0
2075,0.06190812645690228,0.0
2076,0.041810361335106884,0.0
2077,-0.02214260691436555,0.0
2078,0.04615864452668157,0.0
2079,0.0760459564757098,0.0
2080,0.1305153662902211,0.0
2081,0.01005027624897599,0.0
2082,0.06339916151616763,0.0
2083,0.04433360566511835,0.0
2084,3.1050764264291146,0.0
2085,6.718963206912401,0.0
2086,-2.333969011128043,0.0
2087,0.7131862453275273,0.0
2088,-0.10095236075163302,0.0
2089,0.0558441210634614,0.0
2090,-0.10922636956729262,0.0
2091,0.005610133138304579,0.0
2092,0.034856525054497996,0.0
2093,0.015423004117107671,0.0
2094,0.07514023388852056,0.0
2095,0.006244554968935008,0.0
2096,0.07029932631053604,0.0
2097,0.03137324525785587,0.0
2098,0.02145113996288953,0.0
2099,-0.012965323124493167,0.0
2100,0.4735354339180543,0.0
2101,5.195166530691355,0.0
2102,4.197858566622768,0.0
2103,-2.9014082536121246,0.0
2104,1.6793789130685859,0.0
2105,-0.7731999987520053,0.0
2106,0.3564796666346354,0.0
2107,-0.14604814591140736,0.0
2108,0.007156343520338053,0.0
2109,-0.12453424782951437,0.0
2110,-0.09691357746601008,0.0
2111,-0.035851639357710824,0.0
2112,0.027722129643276913,0.0
2113,-0.03839477325359868,0.0
2114,-0.011138267920793556,0.0
2115,-0.069595194451369,0.0
2116,-0.08026492648346004,0.0
2117,1.3794083931625687,0.0
2118,6.7758295179253105,0.0
2119,0.5467516750429262,0.0
2120,-1.3753713681148458,0.0
2121,1.0353037383684178,0.0
2122,-0.510247962675342,0.0
2123,0.1907516843070139,0.0
2124,-0.06047760343366134,0.0
2125,0.03718397499827913,0.0
2126,0.05205330553476395,0.0
2127,0.03836425371718666,0.0
2128,0.026484365363650397,0.0
2129,0.07880886400343148,0.0
2130,0.06513217818192622,0.0
2131,0.009998451704101298,0.0
2132,0.08137137502594308,0.0
2133,0.08048968365718392,0.0
2134,3.115503246700259,0.0
2135,6.629019315799776,0.0
2136,-2.2942545445694003,0.0
2137,0.7656034304792245,0.0
2138,-0.18180656414947982,0.0
2139,0.1332769853914838,0.0
2140,0.05115592116909701,0.0
2141,0.14249286800264518,0.0
2142,0.10056014341419323,0.0
2143,0.08019419651508009,0.0
2144,0.03050711238299817,0.0
2145,0.08201515077137486,0.0
2146,0.05652399077193038,0.0
2147,-0.014336152809249873,0.0
2148,0.07008289219013764,0.0
2149,-0.02444284839735241,0.0
2150,0.4047327966486515,0.0
2151,5.078600814534463,0.0
2152,4.160852140076176,0.0
2153,-2.8547179398191735,0.0
2154,1.643521021776289,0.0
2155,-0.7450710193404451,0.0
2156,0.261418687550223,0.0
2157,-0.19545344934286865,0.0
2158,0.007955728322658027,0.0
2159,-0.10909753336124195,0.0
2160,0.10817163450350922,0.0
2161,0.10565704214551758,0.0
2162,0.01336482840953244,0.0
2163,0.010867418184770885,0.0
2164,-0.025032705050035402,0.0
2165,0.024853722413503136,0.0
2166,0.03691890715880569,0.0
2167,1.3381420003553008,0.0
2168,6.766216310495118,0.0
2169,0.4685370152170703,0.0
2170,-1.4016896015379623,0.0
2171,0.9543303216398246,0.0
2172,-0.5479487493962621,0.0
2173,0.2426415781172689,0.0
2174,-0.1328276723118048,0.0
2175,-0.03072726010303629,0.0
2176,0.030876032883642393,0.0
2177,-0.013628965407896605,0.0
2178,-0.0221653568311379,0.0
2179,-0.06473024737167482,0.0
2180,0.02200414173050524,0.0
2181,0.054729804489974936,0.0
2182,0.07620027376199277,0.0
2183,0.11742919269555803,0.0
2184,3.12142615207166,0.0
2185,6.607420196479095,0.0
2186,-2.2839810094319635,0.0
2187,0.8073774733323646,0.0
2188,-0.18599075008271157,0.0
2189,0.06090895969384435,0.0
2190,-0.004001492158019628,0.0
2191,0.021315949684621634,0.0
2192,0.011547436885993615,0.0
2193,-0.0681637533866924,0.0
2194,0.013937224567091141,0.0
2195,-0.01799189324158299,0.0
2196,-0.028252502395582742,0.0
2197,0.05976373787415143,0.0
2198,0.03171227307536557,0.0
2199,-0.05089339979050536,0.0
2200,0.4503193213676025,0.0
2201,5.1642014417380935,0.0
2202,4.150176009716648,0.0
2203,-2.934297411867183,0.0
2204,1.5832547597594546,0.0
2205,-0.8655592967258808,0.0
2206,0.34758692251852175,0.0
2207,-0.22397007751069864,0.0
2208,-0.06360331525360939,0.0
2209,-0.11510855914081505,0.0
2210,0.07014700252735032,0.0
2211,-0.007833585965802171,0.0
2212,-0.02360201902060354,0.0
2213,-0.007870770430162759,0.0
2214,-0.08963452970961823,0.0
2215,-0.05935605601396286,0.0
2216,-0.10247866985947893,0.0
2217,1.3160849969972888,0.0
2218,6.781009058268193,0.0
2219,0.45779946080004624,0.0
2220,-1.3816723236019957,0.0
2221,0.8860021362767182,0.0
2222,-0.6377366793341924,0.0
2223,0.06645830056807164,0.0
2224,-0.16059586747516041,0.0
2225,0.02284260353883171,0.0
2226,-0.08130807914098079,0.0
2227,0.023823218115804318,0.0
2228,-0.03199352462217952,0.0
2229,-0.0146831612847645,0.0
2230,-0.05695273363103796,0.0
2231,-0.11713400405919505,0.0
2232,-0.05521509894191945,0.0
2233,0.020070960113997945,0.0
2234,3.012282392946427,0.0
2235,6.482306046813118,0.0
2236,-2.5003112934505403,0.0
2237,0.6434577921205524,0.0
2238,-0.22437608045793306,0.0
2239,-0.050245147350813715,0.0
2240,0.03371481551233152,0.0
2241,0.053717492653079665,0.0
2242,-0.03414971716412707,0.0
2243,-0.10714944858990513,0.0
2244,-0.10930710937117062,0.0
2245,0.02060421229268109,0.0
2246,-0.04293199796994145,0.0
2247,0.0400582977091053,0.0
2248,-0.012780732212816705,0.0
2249,-0.08664385442809759,0.0
2250,0.3783446747239861,0.0
2251,5.228923306640018,0.0
2252,4.114911256886157,0.0
2253,-2.979166992980569,0.0
2254,1.5822187227587785,0.0
2255,-0.8450818692279258,0.0
2256,0.2678076485557651,0.0
2257,-0.19617283683141556,0.0
2258,-0.037611215385474,0.0
2259,-0.09642689956337065,0.0
2260,-0.06372559963301791,0.0
2261,-0.07469320512679013,0.0
2262,-0.08933141616729917,0.0
2263,-0.014844262154632838,0.0
2264,-0.023891233079711666,0.0
2265,-0.06624066764450687,0.0
2266,-0.043859411296707916,0.0
2267,1.2880289365202306,0.0
2268,6.78735796201329,0.0
2269,0.37713419036784424,0.0
2270,-1.3599600820645643,0.0
2271,0.9065372610535134,0.0
2272,-0.4287878943048848,0.0
2273,0.21547177154672853,0.0
2274,-0.11486592969126858,0.0
2275,-0.03684586096846809,0.0
2276,-0.022191786968119374,0.0
2277,-0.051951284242846625,0.0
2278,0.01232841133929554,0.0
2279,0.11467063635343695,0.0
2280,0.062046688010091965,0.0
2281,-0.12464840857928149,0.0
2282,-0.0818680890103465,0.0
2283,0.06072388324553072,0.0
2284,3.054006025810713,0.0
2285,6.416818844274031,0.0
2286,-2.4573798049480775,0.0
2287,0.6650622647554383,0.0
2288,-0.15597426262714426,0.0
2289,-0.08329100120679826,0.0
2290,-0.1465703876952058,0.0
2291,-0.016954571105279745,0.0
2292,-0.05353713034237308,0.0
2293,-0.12761221377573628,0.0
2294,-0.10348694385610038,0.0
2295,-0.04425708961174103,0.0
2296,-0.04188572295561719,0.0
2297,-0.036895305383943054,0.0
2298,-0.08670296895395416,0.0
2299,-0.08209409268102824,0.0
2300,0.41110563373484477,0.0
2301,5.12625413615701,0.0
2302,3.9306869711555126,0.0
2303,-2.960231038650765,0.0
2304,1.521458312638649,0.0
2305,-0.8610722881950922,0.0
2306,0.3620019633709116,0.0
2307,-0.23058481150535842,0.0
2308,-0.06208325480956474,0.0
2309,-0.07582290001346625,0.0
2310,-0.07949357102971744,0.0
2311,-0.005902488127468256,0.0
2312,-0.08448432742341347,0.0
2313,-0.11790899512604813,0.0
2314,-0.0888282214362478,0.0
2315,-0.04634903976746926,0.0
2316,-0.1253448132039207,0.0
2317,1.2845866441594522,0.0
2318,6.74926638245458,0.0
2319,0.3962410525224051,0.0
2320,-1.4363966139738114,0.0
2321,0.9779044685176141,0.0
2322,-0.6091577100326037,0.0
2323,0.19104709884177917,0.0
2324,-0.1572362889365914,0.0
2325,0.004044579749164889,0.0
2326,0.08159580157334959,0.0
2327,0.02764914403384729,0.0
2328,-0.06970807215180756,0.0
2329,0.021693633319537695,0.0
2330,-0.026592200756272548,0.0
2331,0.0007497454212110032,0.0
2332,0.04624478452535161,0.0
2333,0.021236419892185398,0.0
2334,3.1137015585179912,0.0
2335,6.453254408542617,0.0
2336,-2.556268451246595,0.0
2337,0.7238662660459727,0.0
2338,-0.27482015492424966,0.0
2339,-0.053912857652889376,0.0
2340,-0.10923939421599836,0.0
2341,0.02068596001734592,0.0
2342,-0.0005054871847943593,0.0
2343,0.025925120147411218,0.0
2344,-0.011674606624715075,0.0
2345,-0.007504393337109561,0.0
2346,0.021201903120331947,0.0
2347,-0.02261129232860179,0.0
2348,-0.08441459181163838,0.0
2349,-0.04742744582257702,0.0
2350,0.44725417146950625,0.0
2351,5.203601302192518,0.0
2352,4.054496615284153,0.0
2353,-2.913387744871185,0.0
2354,1.6028262868905065,0.0
2355,-0.7481085272100025,0.0
2356,0.39591279182418604,0.0
2357,-0.14459353658100552,0.0
2358,-0.04320310723665174,0.0
2359,-0.14457700738245088,0.0
2360,-0.09990203002342574,0.0
2361,0.004548053169456778,0.0
2362,0.0006623092422368554,0.0
2363,-0.00802542807175273,0.0
2364,-0.07849239001355225,0.0
2365,-0.16428090934976083,0.0
2366,-0.06904949958650901,0.0
2367,1.365859834964134,0.0
2368,6.7544113808891995,0.0
2369,0.30076220328437425,0.0
2370,-1.3860319046527576,0.0
2371,0.9910855522108977,0.0
2372,-0.5261081730720891,0.0
2373,0.17914397955664788,0.0
2374,-0.08416625978113465,0.0
2375,0.06606462962682802,0.0
2376,0.10150466587431743,0.0
2377,0.047980537231157805,0.0
2378,-0.03533429016017396,0.0
2379,-0.040904334118343336,0.0
2380,0.0009929692549460883,0.0
2381,0.014257323106535668,0.0
2382,0.06257741191178322,0.0
2383,0.107969839466137,0.0
2384,3.1962667409162253,0.0
2385,6.511472929154164,0.0
2386,-2.3654489352782235,0.0
2387,0.7970707727296339,0.0
2388,-0.1621500195704848,0.0
2389,0.17435125743505803,0.0
2390,-0.015966492048542957,0.0
2391,0.029319886290420462,0.0
2392,0.04698578589046176,0.0
2393,0.07179648393832894,0.0
2394,0.021181294830933225,0.0
2395,0.12984701103890936,0.0
2396,0.029392349713489373,0.0
2397,-0.011578997965867234,0.0
2398,-0.010329917233038895,0.0
2399,0.10679337257177668,0.0
2400,0.4900122185575977,0.0
2401,5.289800521275677,0.0
2402,4.038111102492669,0.0
2403,-2.84815370230995,0.0
2404,1.6773262488004859,0.0
2405,-0.7107096804976907,0.0
2406,0.4068173083248382,0.0
2407,-0.12394196841217063,0.0
2408,0.08437473080315583,0.0
2409,-0.03187395863346391,0.0
2410,0.05973346316842927,0.0
2411,0.047403319268853536,0.0
2412,-0.0490204774114079,0.0
2413,0.034086925428208154,0.0
2414,0.09010569780974997,0.0
2415,0.005796504328853546,0.0
2416,-0.05927095974241861,0.0
2417,1.4187772443025797,0.0
2418,6.758079772824972,0.0
2419,0.4017116587722618,0.0
2420,-1.2437601519165082,0.0
2421,1.047913397024353,0.0
2422,-0.46680989501664294,0.0
2423,0.26927717598401635,0.0
2424,-0.039804262883944404,0.0
2425,0.10476567760084149,0.0
2426,0.006168371272495671,0.0
2427,0.048854697432874364,0.0
2428,0.16684987606608082,0.0
2429,0.06616380563568133,0.0
2430,0.07466803849299138,0.0
2431,0.14577592923020155,0.0
2432,-0.02936737705273426,0.0
2433,0.21918244122779565,0.0
2434,3.058305429176981,0.0
2435,6.607990594599979,0.0
2436,-2.407369108071216,0.0
2437,0.8398284445345086,0.0
2438,-0.1345701560806736,0.0
2439,0.07484473294837801,0.0
2440,0.10625829682005088,0.0
2441,-0.034339168980421685,0.0
2442,0.03643818838331367,0.0
2443,-0.05943676837880274,0.0
2444,0.05997037356286865,0.0
2445,0.03927314661327075,0.0
2446,-0.030856905367210127,0.0
2447,0.011629816435575292,0.0
2448,-0.0014421281060507524,0.0
2449,0.11392000902051373,0.0
2450,0.47913774685584404,0.0
2451,5.278365356455444,0.0
2452,3.9747500684588255,0.0
2453,-2.874753576655938,0.0
2454,1.680879194523602,0.0
2455,-0.7420994258413562,0.0
2456,0.3986147599726222,0.0
2457,-0.015691635050531866,0.0
2458,0.15778817391190153,0.0
2459,0.05949367297668432,0.0
2460,0.03134073692319257,0.0
2461,-0.04311176304915678,0.0
2462,0.04629582557770989,0.0
2463,0.02587418099895129,0.0
2464,0.11829204043196892,0.0
2465,-0.05719048502135775,0.0
2466,-0.032027961418698125,0.0
2467,1.2935193619105099,0.0
2468,6.7771889683401145,0.0
2469,0.34029840178380966,0.0
2470,-1.3854263837645189,0.0
2471,0.9638614859492576,0.0
2472,-0.3447466827410015,0.0
2473,0.15436193336850865,0.0
2474,-0.09321705755454522,0.0
2475,-0.06939750769165728,0.0
2476,-0.08331585015232586,0.0
2477,-0.07578036203836233,0.0
2478,0.04068480942438746,0.0
2479,-0.00532881726611857,0.0
2480,-0.044911593619350904,0.0
2481,-0.024748154688735778,0.0
2482,0.012856432585532127,0.0
2483,0.09659220052354672,0.0
2484,3.2177000605182013,0.0
2485,6.570108733188588,0.0
2486,-2.5001352507548096,0.0
2487,0.8056576148956377,0.0
2488,-0.2237111561496121,0.0
2489,0.09349857598435121,0.0
2490,-0.04806936187101803,0.0
2491,-0.06757770021010893,0.0
2492,-0.07147338940279879,0.0
2493,-0.02218137138731338,0.0
2494,-0.12680428299436383,0.0
2495,-0.08744083566745009,0.0
2496,-0.005366654268138739,0.0
2497,-0.0008417189423340563,0.0
2498,-0.10636463351056921,0.0
2499,-0.04026026869182555,0.0
2500,0.4359368348368609,0.0
2501,5.24761858378337,0.0
2502,3.8365501826970716,0.0
2503,-2.8847818787702173,0.0
2504,1.5898138671817412,0.0
2505,-0.8708201600482293,0.0
2506,0.31460908638088636,0.0
2507,-0.07790835446100017,0.0
2508,0.03909074515111952,0.0
2509,-0.09805842532936693,0.0
2510,-0.09514207091573842,0.0
2511,-0.12403676122718163,0.0
2512,-0.10741474011579748,0.0
2513,-0.02608106326639465,0.0
2514,-0.06569646144973712,0.0
2515,0.005205843266395518,0.0
2516,-0.08237697286869936,0.0
2517,1.279279452969717,0.0
2518,6.824994925805691,0.0
2519,0.33136405054227264,0.0
2520,-1.2487975982303228,0.0
2521,0.9879552437226456,0.0
2522,-0.40466053339566854,0.0
2523,0.1254523190458646,0.0
2524,-0.18547355340537966,0.0
2525,-0.04229993514020317,0.0
2526,-0.04754967309018915,0.0
2527,-0.12514727410486035,0.0
2528,-0.08720323777739847,0.0
2529,-0.11804755628142694,0.0
2530,-0.10494462009012773,0.0
2531,0.014417725057386019,0.0
2532,-0.18769638789616078,0.0
2533,-0.050771360563450676,0.0
2534,3.0497698474883244,0.0
2535,6.394790246487071,0.0
2536,-2.575829151712084,0.0
2537,0.8081093673744711,0.0
2538,-0.3240994456730136,0.0
2539,0.019699819611474295,0.0
2540,3.6534307765734297e-06,0.0
2541,-0.0028869244485449086,0.0
2542,-0.09603107087479883,0.0
2543,-0.0716743331562975,0.0
2544,-0.036799367901211896,0.0
2545,-0.08274559793385344,0.0
2546,-0.025719969846971676,0.0
2547,0.006385045478224563,0.0
2548,-0.019144397087132017,0.0
2549,-0.11557338810978882,0.0
2550,0.3542248837800034,0.0
2551,5.173819461200835,0.0
2552,3.8464307769551946,0.0
2553,-2.987733718585078,0.0
2554,1.5805555192444392,0.0
2555,-0.7960760448412724,0.0
2556,0.22576572632938055,0.0
2557,-0.10276755980995661,0.0
2558,0.004871765074280977,0.0
2559,-0.02686339269311739,0.0
2560,0.010078281828908978,0.0
2561,-0.08212817099142306,0.0
2562,0.03105099945419501,0.0
2563,-0.06941463951068572,0.0
2564,-0.04796294703953685,0.0
2565,-0.10073009081080961,0.0
2566,-0.12369322204801927,0.0
2567,1.2898588522364285,0.0
2568,6.713097320066319,0.0
2569,0.23433095751434124,0.0
2570,-1.430799764210097,0.0
2571,0.8313877525751863,0.0
2572,-0.6036165388152912,0.0
2573,0.057333097480873306,0.0
2574,-0.2524756652836558,0.0
2575,-0.17380622311032262,0.0
2576,-0.08881410940054364,0.0
2577,-0.12240330332794265,0.0
2578,-0.11946768599659834,0.0
2579,-0.17188024779466538,0.0
2580,-0.08257279819747984,0.0
2581,-0.0762629848972091,0.0
2582,-0.11416841789200394,0.0
2583,-0.06126823824463685,0.0
2584,3.125162041203622,0.0
2585,6.356137983843981,0.0
2586,-2.51871579908577,0.0
2587,0.7193062593921423,0.0
2588,-0.2578078306415477,0.0
2589,-0.07324572516526917,0.0
2590,-0.16226635724903904,0.0
2591,-0.06314182809287153,0.0
2592,-0.07305882302295263,0.0
2593,-0.1333354495114982,0.0
2594,-0.12502637835625893,0.0
2595,-0.15197458545326165,0.0
2596,-0.18924660168464394,0.0
2597,-0.15303744765073382,0.0
2598,-0.18116459828862136,0.0
2599,-0.09973256888440012,0.0
2600,0.27899491722054104,0.0
2601,5.235097176168845,0.0
2602,3.8127502197228025,0.0
2603,-2.952831093757782,0.0
2604,1.5390393555703639,0.0
2605,-0.8320229362314826,0.0
2606,0.3245529314308957,0.0
2607,-0.14615294304358586,0.0
2608,-0.11016857826955226,0.0
2609,-0.03030364355218758,0.0
2610,-0.04993952554951342,0.0
2611,-0.1438221507359309,0.0
2612,-0.014588808588875048,0.0
2613,-0.030269536635902358,0.0
2614,0.06570690333309767,0.0
2615,-0.05133105940876131,0.0
2616,-0.12891730905134646,0.0
2617,1.4079776878161723,0.0
2618,6.792392334243803,0.0
2619,0.22369099844850565,0.0
2620,-1.3459173698853677,0.0
2621,0.7970047940344074,0.0
2622,-0.5797241710842671,0.0
2623,0.19307977566255913,0.0
2624,-0.14062016655626353,0.0
2625,-0.0010111235211018726,0.0
2626,-0.053767158060731395,0.0
2627,0.05685969341812957,0.0
2628,-0.038726603688551305,0.0
2629,-0.052906835253176625,0.0
2630,-0.061476640354870445,0.0
2631,-0.11856698362339868,0.0
2632,-0.16169351642620958,0.0
2633,-0.0016804557034619805,0.0
2634,3.1197233718299024,0.0
2635,6.376012722095699,0.0
2636,-2.5969353441234255,0.0
2637,0.7191972715678465,0.0
2638,-0.40864525136545204,0.0
2639,-0.051902198769225714,0.0
2640,-0.12569615440211485,0.0
2641,-0.04960607596214751,0.0
2642,-0.02405697927392715,0.0
2643,-0.010815287007246648,0.0
2644,-0.016376339862640928,0.0
2645,-0.02612535411084926,0.0
2646,-0.10546593849339955,0.0
2647,0.041427615124125385,0.0
2648,-0.05120823625497923,0.0
2649,-0.14002031443421475,0.0
2650,0.549793892035424,0.0
2651,5.283137901411202,0.0
2652,3.7906298972479964,0.0
2653,-2.8687017353276,0.0
2654,1.5706826743815265,0.0
2655,-0.8041662403861138,0.0
2656,0.3210344728464044,0.0
2657,-0.10479893903457708,0.0
2658,0.04168357211265572,0.0
2659,-0.11287497323282925,0.0
2660,0.1165130225866967,0.0
2661,-0.0006377537020288548,0.0
2662,0.03502612037475679,0.0
2663,-0.016175880385281057,0.0
2664,-0.005484010748316268,0.0
2665,0.04755411693368976,0.0
2666,0.03858570739233394,0.0
2667,1.4072376592106972,0.0
2668,6.807403574896334,0.0
2669,0.2701289875465764,0.0
2670,-1.214566649728062,0.0
2671,0.8899887615377975,0.0
2672,-0.5572987500470918,0.0
2673,0.2313375512194514,0.0
2674,-0.07984989969125068,0.0
2675,-0.027676000432428044,0.0
2676,0.037785704229005734,0.0
2677,-0.1428428570987349,0.0
2678,0.05505707801364863,0.0
2679,-0.05028084559496636,0.0
2680,-0.10479040286643895,0.0
2681,0.004791052459901836,0.0
2682,-0.020602534454922116,0.0
2683,-0.048153378026792676,0.0
2684,3.2129808053107904,0.0
2685,6.559530523548729,0.0
2686,-2.529370790329638,0.0
2687,0.8616541659389105,0.0
2688,-0.2775644898351008,0.0
2689,0.14105154099900394,0.0
2690,0.019710931568132355,0.0
2691,0.038812114088627295,0.0
2692,-0.04197551874583714,0.0
2693,0.015188538923682653,0.0
2694,0.05297741097524061,0.0
2695,0.03567051857051612,0.0
2696,0.024707812257401665,0.0
2697,0.036711709974172266,0.0
2698,-0.05217964649230927,0.0
2699,0.052225818810458235,0.0
2700,0.46466076792544975,0.0
2701,5.336352527565357,0.0
2702,3.842829918475758,0.0
2703,-2.9281268643331284,0.0
2704,1.5179898228864355,0.0
2705,-0.8264806181065723,0.0
2706,0.3399434493692092,0.0
2707,-0.16237506893169135,0.0
2708,-0.020414373048912547,0.0
2709,-0.05462396239072276,0.0
2710,-0.00590810862774422,0.0
2711,-0.008655018375779871,0.0
2712,0.05749681828635533,0.0
2713,0.007662169715847683,0.0
2714,0.08183756337315787,0.0
2715,0.007193647582426525,0.0
2716,-0.0204973961038556,0.0
2717,1.5028703271123987,0.0
2718,6.897328339470312,0.0
2719,0.2892123029244514,0.0
2720,-1.1328952131708265,0.0
2721,0.9603618370177105,0.0
2722,-0.4335574306733704,0.0
2723,0.1557797763917187,0.0
2724,-0.001763849781594648,0.0
2725,0.07199600386002439,0.0
2726,0.03985618155009938,0.0
2727,-0.007087717830990364,0.0
2728,0.02717727340471534,0.0
2729,-0.020978769956571965,0.0
2730,-0.0016478204004570125,0.0
2731,0.11825073336952127,0.0
2732,-0.016014429685801235,0.0
2733,0.10505974320275653,0.0
2734,3.265907147625338,0.0
2735,6.463532490328957,0.0
2736,-2.518857391951757,0.0
2737,0.7932992243835988,0.0
2738,-0.20504975178543142,0.0
2739,0.09494994370280292,0.0
2740,-0.002383737124308284,0.0
2741,-0.024414764393581243,0.0
2742,0.03528622883037149,0.0
2743,0.07017919720374788,0.0
2744,0.06292832974041068,0.0
2745,-0.07783362976481119,0.0
2746,0.04200292374700992,0.0
2747,0.05415448520344474,0.0
2748,0.08526013050626291,0.0
2749,0.01916660068104145,0.0
2750,0.45171914193897966,0.0
2751,5.322898132925463,0.0
2752,3.9620706694079777,0.0
2753,-2.800895172705807,0.0
2754,1.4337130545922134,0.0
2755,-0.8503542038555412,0.0
2756,0.3726530650403085,0.0
2757,-0.06197481399487488,0.0
2758,0.009410756191450615,0.0
2759,-0.007905067794049987,0.0
2760,-0.08131299306095581,0.0
2761,0.035913540181673496,0.0
2762,-0.019885562175637528,0.0
2763,0.06281821296927166,0.0
2764,0.048504262263265124,0.0
2765,-0.07928115611497893,0.0
2766,0.028483339248806465,0.0
2767,1.3784764472806494,0.0
2768,6.777734532074825,0.0
2769,0.2602868443945537,0.0
2770,-1.2041265024249006,0.0
2771,0.9600481511971,0.0
2772,-0.5433954515126167,0.0
2773,0.13030174461422458,0.0
2774,-0.011678281661278635,0.0
2775,0.05461019108043699,0.0
2776,0.06238255805624236,0.0
2777,-0.03590912789574687,0.0
2778,-0.004443876304200936,0.0
2779,-0.06881158280910055,0.0
2780,-0.049320881519673475,0.0
2781,-0.034956784838526496,0.0
2782,-0.08045426990581057,0.0
2783,0.12322174055883607,0.0
2784,3.2067734120647216,0.0
2785,6.495279986912938,0.0
2786,-2.503509611036236,0.0
2787,0.9148848758441622,0.0
2788,-0.236640170440263,0.0
2789,0.17549437672896034,0.0
2790,0.025636474336427757,0.0
2791,0.07055347325294226,0.0
2792,0.10253505326164378,0.0
2793,0.011471056328146042,0.0
2794,0.10162398335895857,0.0
2795,0.06139131819583127,0.0
2796,-0.027415461356984857,0.0
2797,0.04580247635292345,0.0
2798,0.07856369447108541,0.0
2799,0.1230089996343854,0.0
2800,0.49600866842376423,0.0
2801,5.390921327433006,0.0
2802,3.9271828669927547,0.0
2803,-2.862731699752069,0.0
2804,1.5626448873554801,0.0
2805,-0.8164771526999723,0.0
2806,0.3342107523565177,0.0
2807,-0.15811970887670834,0.0
2808,0.11314014970351816,0.0
2809,-0.023856109661600428,0.0
2810,0.04454282255568065,0.0
2811,0.02796006452338599,0.0
2812,0.04260414302104601,0.0
2813,0.061303187240741956,0.0
2814,0.07901842427096067,0.0
2815,0.04782246057058469,0.0
2816,-0.02310684368495618,0.0
2817,1.4880958056649143,0.0
2818,6.739361938934807,0.0
2819,0.2271334778161896,0.0
2820,-1.2036971187232441,0.0
2821,0.8604063187435548,0.0
2822,-0.4803397488049433,0.0
2823,0.13972755524560465,0.0
2824,-0.0765713864098305,0.0
2825,-0.06066468395393604,0.0
2826,0.00692761031046327,0.0
2827,0.05499211956448638,0.0
2828,-0.016387523211967115,0.0
2829,0.032498210736477434,0.0
2830,0.13434368023968069,0.0
2831,0.06150802934141668,0.0
2832,0.031355306989568,0.0
2833,0.017545517836667496,0.0
2834,3.136282500861826,0.0
2835,6.453898481403923,0.0
2836,-2.580862756023303,0.0
2837,0.8848160619927607,0.0
2838,-0.238012164561638,0.0
2839,-0.03402813649921347,0.0
2840,-0.03987948942299494,0.0
2841,-0.10074343605288069,0.0
2842,-0.047485020642351904,0.0
2843,0.019546187428092013,0.0
2844,-0.07421430793380734,0.0
2845,-0.006684120447571575,0.0
2846,-0.048457372002341806,0.0
2847,0.0033721252791806128,0.0
2848,-0.00815616213384654,0.0
2849,0.06747400745670042,0.0
2850,0.48834731387709257,0.0
2851,5.24622421662944,0.0
2852,3.8014455778433596,0.0
2853,-2.859266110020039,0.0
2854,1.5925374543816382,0.0
2855,-0.6850233633120274,0.0
2856,0.3908774860239177,0.0
2857,-0.15782526444003397,0.0
2858,-0.06123893144725068,0.0
2859,-0.004741035461688747,0.0
2860,-0.033751645184416895,0.0
2861,-0.06608361629372898,0.0
2862,-0.09248886240362522,0.0
2863,-0.015364551100351072,0.0
2864,-0.10369805440377243,0.0
2865,-0.04871771438933615,0.0
2866,-0.09694369887085721,0.0
2867,1.3176689555345282,0.0
2868,6.729106364926499,0.0
2869,0.1697731184110938,0.0
2870,-1.1480808527712156,0.0
2871,0.8909044349204347,0.0
2872,-0.4797061586680135,0.0
2873,0.24914171629817258,0.0
2874,-0.050551005115858166,0.0
2875,-0.024695789122767396,0.0
2876,-0.08694862640192495,0.0
2877,0.04709374418402173,0.0
2878,-0.020623669175020294,0.0
2879,0.003636779680110891,0.0
2880,-0.015048586571554695,0.0
2881,-0.1418922625271275,0.0
2882,-0.060252020951585356,0.0
2883,0.036047559468598445,0.0
2884,3.3182726340954525,0.0
2885,6.421645437308298,0.0
2886,-2.596945828562351,0.0
2887,0.8647077091450669,0.0
2888,-0.27658216734161595,0.0
2889,-0.01612920435066935,0.0
2890,-0.0774188556778828,0.0
2891,-0.029089896377325043,0.0
2892,-0.0014989372543969207,0.0
2893,-0.012903816653319383,0.0
2894,0.039880338990596294,0.0
2895,0.0007537835926488008,0.0
2896,0.008249964554465507,0.0
2897,0.0758666269986554,0.0
2898,0.012751880568306673,0.0
2899,0.007318066228822501,0.0
2900,0.4304417886472338,0.0
2901,5.412343542934721,0.0
2902,3.844626564161594,0.0
2903,-2.8000575462268045,0.0
2904,1.722422263823016,0.0
2905,-0.7208645383176866,0.0
2906,0.33052197390505217,0.0
2907,-0.06726472423219641,0.0
2908,0.060804518994761164,0.0
2909,0.07347976522253713,0.0
2910,0.0050092820312335265,0.0
2911,0.06562350922221535,0.0
2912,0.031121831365187026,0.0
2913,0.07203814307352044,0.0
2914,0.02736496084235802,0.0
2915,0.07945607104150493,0.0
2916,-0.06184917812401787,0.0
2917,1.4460561985058225,0.0
2918,6.844160899445572,0.0
2919,0.10116137481115564,0.0
2920,-1.2230226742090582,0.0
2921,0.8841150881410044,0.0
2922,-0.4525213936604337,0.0
2923,0.12785860575843505,0.0
2924,-0.11296341468107085,0.0
2925,0.020359263726635497,0.0
2926,-0.061688254038809294,0.0
2927,-0.04065694954458141,0.0
2928,-0.01682816505624255,0.0
2929,-0.0003151724564296639,0.0
2930,0.045689072701892514,0.0
2931,-0.026661907052078267,0.0
2932,-0.01545275675540286,0.0
2933,0.16561145224017612,0.0
2934,3.2567990607978476,0.0
2935,6.423853632165632,0.0
2936,-2.590078789659177,0.0
2937,0.8207424202972272,0.0
2938,-0.23893912736317083,0.0
2939,0.11044964638728919,0.0
2940,-0.04897007526879504,0.0
2941,0.0007826139375035936,0.0
2942,-0.01021415222993825,0.0
2943,0.0209165961404845,0.0
2944,0.05033841832670005,0.0
2945,0.008596151088608785,0.0
2946,-0.005796304514812678,0.0
2947,0.0031559518215896233,0.0
2948,-0.0001070488959299086,0.0
2949,-0.07165983474781285,0.0
2950,0.4030938733876364,0.0
2951,5.302421803568511,0.0
2952,3.780802067537592,0.0
2953,-2.7976020097535055,0.0
2954,1.5224831983559608,0.0
2955,-0.8854001746432695,0.0
2956,0.3055822170074112,0.0
2957,-0.1259428937050959,0.0
2958,-0.0833668400362108,0.0
2959,-0.037864639473571785,0.0
2960,-0.005266088128898496,0.0
2961,-0.06644073401513131,0.0
2962,-0.011380840226808915,0.0
2963,-0.07100592067814615,0.0
2964,0.020123592490351363,0.0
2965,0.04056095964339096,0.0
2966,-0.07204594117202703,0.0
2967,1.516661999063838,0.0
2968,6.9301570492964455,0.0
2969,0.1067470057691487,0.0
2970,-1.1561281642996868,0.0
2971,0.7738995472630406,0.0
2972,-0.3087439778146388,0.0
2973,0.12658017421664708,0.0
2974,-0.11888352156726056,0.0
2975,-0.0259474529873478,0.0
2976,-0.11982363958507039,0.0
2977,0.028111909540328474,0.0
2978,-0.03144127750366482,0.0
2979,-0.12267883511840398,0.0
2980,-0.09918018763086522,0.0
2981,-0.044617031290697315,0.0
2982,-0.07278483984211942,0.0
2983,0.1629415637032311,0.0
2984,3.216944960603262,0.0
2985,6.426498125669463,0.0
2986,-2.665565070891604,0.0
2987,0.8483587597960836,0.0
2988,-0.25510954522121243,0.0
2989,0.06976917997781953,0.0
2990,-0.14262882518681838,0.0
2991,-0.06243751892817756,0.0
2992,-0.05288092277906917,0.0
2993,-0.0012999488417600874,0.0
2994,-0.09180654452347853,0.0
2995,-0.036060116655455554,0.0
2996,-0.0023279514125634226,0.0
2997,-0.13566574781279112,0.0
2998,-0.10170119616655043,0.0
2999,-0.07907194546902595,0.0
3000,0.4120851777213341,0.0
3001,5.293782369501872,0.0
3002,3.7150829103694423,0.0
3003,-2.9532029083920093,0.0
3004,1.4623142527413933,0.0
3005,-0.893021243694291,0.0
3006,0.23563000241058155,0.0
3007,-0.2311867450314443,0.0
3008,0.0018835687440313387,0.0
3009,-0.03121614054225849,0.0
3010,-0.0007791578858165268,0.0
3011,-0.013999787393918987,0.0
3012,-0.047717491527238406,0.0
3013,-0.018471531072027425,0.0
3014,-0.04506672047590304,0.0
3015,0.01268525316826536,0.0
3016,-0.058218928323747504,0.0
3017,1.4399018263699612,0.0
3018,6.7161765763527965,0.0
3019,0.02506505406614288,0.0
3020,-1.1688348362654555,0.0
3021,0.7842016642100765,0.0
3022,-0.46410430281532106,0.0
3023,0.10377246102665344,0.0
3024,-0.00248300658486314,0.0
3025,-0.029277403667942542,0.0
3026,-0.06925737987261642,0.0
3027,-0.03793789624091147,0.0
3028,-0.08484707614584035,0.0
3029,-0.1341685253757771,0.0
3030,-0.13923388346935406,0.0
3031,0.014348968469332514,0.0
3032,-0.09833191060705579,0.0
3033,0.07556382491814811,0.0
3034,3.2727015252142047,0.0
3035,6.42635164077334,0.0
3036,-2.5960272088679996,0.0
3037,0.8060791453456644,0.0
3038,-0.27941723716631,0.0
3039,0.08058861201102621,0.0
3040,-0.0186125653612626,0.0
3041,-0.0978981576393019,0.0
3042,-0.04182612404940523,0.0
3043,-0.10136390847677848,0.0
3044,-0.008626854122204507,0.0
3045,-0.06421304025953159,0.0
3046,-0.02702163237037347,0.0
3047,-0.026979084819937733,0.0
3048,-0.022725997561923273,0.0
3049,-0.004709164491093133,0.0
3050,0.41568621008626183,0.0
3051,5.381566138108787,0.0
3052,3.758250569884626,0.0
3053,-2.8013053358286713,0.0
3054,1.5437913009848092,0.0
3055,-0.8029771745596449,0.0
3056,0.3494909299782234,0.0
3057,-0.1420551210595527,0.0
3058,-0.0579647084280559,0.0
3059,-0.07621599273795107,0.0
3060,-0.02326279676771558,0.0
3061,-0.0541257585096371,0.0
3062,-0.017658955325936143,0.0
3063,-0.07210726064092879,0.0
3064,-0.13513998066050428,0.0
3065,-0.09312245743766032,0.0
3066,-0.17935346454486772,0.0
3067,1.4258991156749188,0.0
3068,6.680688151473877,0.0
3069,-0.026896526146314423,0.0
3070,-1.1691724251316322,0.0
3071,0.7953685274133759,0.0
3072,-0.4953760879757997,0.0
3073,0.03892082782055123,0.0
3074,-0.12478905871570192,0.0
3075,-0.040296955442343345,0.0
3076,-0.07427634386649697,0.0
3077,-0.08687282824181403,0.0
3078,-0.10310863816325264,0.0
3079,-0.07564084458305599,0.0
3080,-0.019895593627762824,0.0
3081,-0.07954949109116431,0.0
3082,-0.08974158521712267,0.0
3083,0.07480983151494278,0.0
3084,3.1801178367104344,0.0
3085,6.298099311896148,0.0
3086,-2.7827152321117414,0.0
3087,0.8398088349636185,0.0
3088,-0.33421703422603316,0.0
3089,-0.02239748021862692,0.0
3090,-0.07891456152365021,0.0
3091,-0.17823059904560462,0.0
3092,-0.17882317568020722,0.0
3093,-0.07387071454838148,0.0
3094,-0.05638805664308168,0.0
3095,-0.06370276292708675,0.0
3096,-0.07619721612747765,0.0
3097,-0.06883618772166225,0.0
3098,-0.03557111723238232,0.0
3099,-0.05540246722634023,0.0
3100,0.39487354662982344,0.0
3101,5.301775537718431,0.0
3102,3.642275616256678,0.0
3103,-2.799410336827949,0.0
3104,1.5736258149091484,0.0
3105,-0.8028321625840169,0.0
3106,0.3081051889664854,0.0
3107,-0.10716586661126015,0.0
3108,0.005463719298098718,0.0
3109,-0.08781389324741014,0.0
3110,-0.019863453098285938,0.0
3111,-0.14316862356758872,0.0
3112,-0.07696808155167642,0.0
3113,-0.021567292318185313,0.0
3114,-0.028190952880500608,0.0
3115,-0.02756305671274821,0.0
3116,-0.15082383084319503,0.0
3117,1.4402760212297325,0.0
3118,6.772297842635056,0.0
3119,-0.12087955447044171,0.0
3120,-1.1224187736458096,0.0
3121,0.7535512461289172,0.0
3122,-0.5266718162696352,0.0
3123,0.08530948188444881,0.0
3124,-0.17277516940415089,0.0
3125,-0.03371478518244685,0.0
3126,0.012867909812939046,0.0
3127,-0.014221572547775101,0.0
3128,-0.044457802856554096,0.0
3129,-0.08210438602322262,0.0
3130,-0.045902752258810256,0.0
3131,-0.006664167755303136,0.0
3132,-0.05209001269851319,0.0
3133,0.034617333362615764,0.0
3134,3.322904056052756,0.0
3135,6.315220723141172,0.0
3136,-2.592396888088357,0.0
3137,0.9463612957052262,0.0
3138,-0.2700695070875869,0.0
3139,0.140614208881975,0.0
3140,-0.05533234113080645,0.0
3141,0.03408063327652193,0.0
3142,0.01126443136778367,0.0
3143,-0.0031818680334546835,0.0
3144,0.06529805036273043,0.0
3145,-0.05847548373810739,0.0
3146,0.005240032875652974,0.0
3147,0.056692964625377124,0.0
3148,-0.0025863039390341368,0.0
3149,-0.10129808402648435,0.0
3150,0.5781055920852556,0.0
3151,5.422900525604489,0.0
3152,3.7730445637053287,0.0
3153,-2.8319821673194334,0.0
3154,1.6204971044727243,0.0
3155,-0.8118831281703347,0.0
3156,0.32605919131429634,0.0
3157,-0.13619756978570755,0.0
3158,0.013167255945052702,0.0
3159,0.02896509926524103,0.0
3160,0.030924292583080413,0.0
3161,0.03553004659424645,0.0
3162,-0.0026654608571779915,0.0
3163,-0.028960832391367326,0.0
3164,0.026115049731265747,0.0
3165,0.015438859923825151,0.0
3166,-0.039509977683982046,0.0
3167,1.5105834595737848,0.0
3168,6.803602286861502,0.0
3169,-0.10527380655190981,0.0
3170,-1.1790674347459187,0.0
3171,0.7721067520528494,0.0
3172,-0.4690360338475096,0.0
3173,0.10334957855676005,0.0
3174,-0.1974948390446897,0.0
3175,0.03938894458640709,0.0
3176,-0.10516288351646462,0.0
3177,-0.11196704042142518,0.0
3178,0.008405493619837764,0.0
3179,-0.04499614325302048,0.0
3180,-0.09840137572670456,0.0
3181,-0.0866924695004953,0.0
3182,-0.01936188956212774,0.0
3183,0.13595940384971156,0.0
3184,3.3292715845861203,0.0
3185,6.331484349494968,0.0
3186,-2.7418213260769906,0.0
3187,0.9959302955427682,0.0
3188,-0.26697337852756253,0.0
3189,-0.028563527623922724,0.0
3190,-0.007734182001656299,0.0
3191,0.05550797368830085,0.0
3192,0.05373455166994746,0.0
3193,-0.02014654041074144,0.0
3194,-0.07440384177094699,0.0
3195,-0.01293380398650383,0.0
3196,0.05637187433758144,0.0
3197,-0.01738927955234073,0.0
3198,-0.029079923265340278,0.0
3199,-0.023058841783290443,0.0
3200,0.47107298095719063,0.0
3201,5.444728482501667,0.0
3202,3.60203077142905,0.0
3203,-2.749552174718033,0.0
3204,1.5309864229121903,0.0
3205,-0.7636495361074209,0.0
3206,0.34439517556770005,0.0
3207,-0.12145006967241252,0.0
3208,0.0601827333046699,0.0
3209,0.02407990196274772,0.0
3210,-0.0048522095066588205,0.0
3211,0.006028790485311375,0.0
3212,-0.0801238507236418,0.0
3213,0.04230620455816038,0.0
3214,0.001636819877200069,0.0
3215,-0.1066389197634778,0.0
3216,0.03721317593864426,0.0
3217,1.5490356222650332,0.0
3218,6.881203461814289,0.0
3219,0.033031323368492044,0.0
3220,-1.163386207440499,0.0
3221,0.8460319791837264,0.0
3222,-0.4595559607774577,0.0
3223,0.19067656890171497,0.0
3224,-0.07929352989807195,0.0
3225,-0.06360251225195368,0.0
3226,-0.07281242042989189,0.0
3227,-0.016141351150936848,0.0
3228,0.01557735107325691,0.0
3229,-0.03630485840159399,0.0
3230,0.007900818986021556,0.0
3231,0.08096725844404887,0.0
3232,0.014645780262024472,0.0
3233,0.002311139477274113,0.0
3234,3.365587070362503,0.0
3235,6.306825646987776,0.0
3236,-2.6658640345047755,0.0
3237,1.0112967701863886,0.0
3238,-0.25325627432912656,0.0
3239,0.09712320499245132,0.0
3240,0.028649410913361678,0.0
3241,-0.04657868598487126,0.0
3242,-0.031704318966086914,0.0
3243,-0.0475809402716134,0.0
3244,0.03467092258253675,0.0
3245,-0.029037300602652263,0.0
3246,-0.02664307646112675,0.0
3247,-0.01571512921649836,0.0
3248,-0.07273998859992983,0.0
3249,0.002163297456265742,0.0
3250,0.46528632433262174,0.0
3251,5.358843070805149,0.0
3252,3.478272850185241,0.0
3253,-2.8338969087830685,0.0
3254,1.4632797506962278,0.0
3255,-0.8348952061235397,0.0
3256,0.3321091583037942,0.0
3257,-0.05086981349923261,0.0
3258,0.05725822664058234,0.0
3259,-0.04003870133385891,0.0
3260,-0.062169169401159644,0.0
3261,-0.0026827927333984945,0.0
3262,-0.06391616681985215,0.0
3263,-0.033082456640669666,0.0
3264,-0.01266607342460968,0.0
3265,0.023447479603364713,0.0
3266,-0.09368897630735946,0.0
3267,1.5075498462648176,0.0
3268,6.790044126143852,0.0
3269,0.05556494549476823,0.0
3270,-1.1335357581615118,0.0
3271,0.7412156564947469,0.0
3272,-0.4477850275878415,0.0
3273,0.028066115467005756,0.0
3274,-0.15702889304296527,0.0
3275,-0.09077000267940527,0.0
3276,-0.1185615361279765,0.0
3277,-0.006201978282917714,0.0
3278,-0.09046851367715972,0.0
3279,-0.02450235730395507,0.0
3280,0.004841501188197775,0.0
3281,-0.12329916094478693,0.0
3282,-0.10420369191418923,0.0
3283,0.08558834740046414,0.0
3284,3.382283406368855,0.0
3285,6.430776504093149,0.0
3286,-2.698677403601494,0.0
3287,0.9928785952951983,0.0
3288,-0.4247812644400676,0.0
3289,0.04957293017561132,0.0
3290,-0.042260878948213704,0.0
3291,-0.03547360685116428,0.0
3292,-0.12554902601787332,0.0
3293,-0.0708167589638218,0.0
3294,-0.1638198902958929,0.0
3295,-0.08085966561162478,0.0
3296,0.009498468751880103,0.0
3297,-0.164473684315128,0.0
3298,-0.12024426578863065,0.0
3299,-0.051343961392844736,0.0
3300,0.39481561490320505,0.0
3301,5.433343321379251,0.0
3302,3.543384995560094,0.0
3303,-2.791918848944082,0.0
3304,1.62233376482354,0.0
3305,-0.8079589011963185,0.0
3306,0.2538934649614526,0.0
3307,-0.1839411522867718,0.0
3308,0.07392248959863745,0.0
3309,-0.11028496352979317,0.0
3310,0.001430462250515116,0.0
3311,-0.007845540781943904,0.0
3312,-0.020751763184175764,0.0
3313,-0.07135836605000286,0.0
3314,-0.1303394874197029,0.0
3315,-0.09837908942262841,0.0
3316,-0.05827432065649661,0.0
3317,1.4272757511296825,0.0
3318,6.8610192416858276,0.0
3319,-0.09386735933456018,0.0
3320,-0.9978159593435627,0.0
3321,0.7643579088746704,0.0
3322,-0.5252672048727385,0.0
3323,0.08159039792540393,0.0
3324,-0.11452352477247324,0.0
3325,-0.044630349670117045,0.0
3326,-0.058046689297117836,0.0
3327,-0.046607830515489286,0.0
3328,0.0845207219013335,0.0
3329,-0.002328975885631468,0.0
3330,0.08736355146311087,0.0
3331,-0.03421493901254738,0.0
3332,-0.02136470694456801,0.0
3333,0.11627005860890423,0.0
3334,3.254534304880788,0.0
3335,6.216505304854853,0.0
3336,-2.721516215302081,0.0
3337,0.9182262748995779,0.0
3338,-0.4068212792893203,0.0
3339,-0.03996346519570527,0.0
3340,-0.11178104216971214,0.0
3341,-0.0263236070418931,0.0
3342,-0.0965422547935253,0.0
3343,0.0209686240152389,0.0
3344,-0.018476485085181932,0.0
3345,0.017433732375103705,0.0
3346,-0.0718660987950069,0.0
3347,-0.10248904303813514,0.0
3348,-0.040471135740459414,0.0
3349,-0.11847565775010244,0.0
3350,0.5226597074938358,0.0
3351,5.522420952435213,0.0
3352,3.4963418496604786,0.0
3353,-2.8140868685656693,0.0
3354,1.5400553567830964,0.0
3355,-0.8442382381164646,0.0
3356,0.32336313676382344,0.0
3357,-0.1137581069762455,0.0
3358,-0.007171239850929261,0.0
3359,-0.08779778029418778,0.0
3360,-0.04044517797771608,0.0
3361,-0.024453648413437955,0.0
3362,-0.0961061507363501,0.0
3363,0.02848755546182216,0.0
3364,-0.08003829371433013,0.0
3365,-0.10440017209854893,0.0
3366,-0.049012030372034915,0.0
3367,1.488371195082858,0.0
3368,6.799701869052909,0.0
3369,-0.11934700587824126,0.0
3370,-1.0565150454951244,0.0
3371,0.7583041918780171,0.0
3372,-0.4487470637899641,0.0
3373,0.1913565167400568,0.0
3374,-0.15003427358267904,0.0
3375,-0.07956737946505273,0.0
3376,0.013439682545679489,0.0
3377,-0.07777470472344157,0.0
3378,-0.0129329708547253,0.0
3379,0.017616710710551688,0.0
3380,-0.08960423205555865,0.0
3381,-0.07491439091654883,0.0
3382,0.051962992706189585,0.0
3383,0.08462592756650783,0.0
3384,3.3900465820806156,0.0
3385,6.261191837383362,0.0
3386,-2.7683390458842094,0.0
3387,0.9356841630948514,0.0
3388,-0.3060425964656988,0.0
3389,-0.0014241812612294513,0.0
3390,-0.10889589444340753,0.0
3391,0.032821107857606335,0.0
3392,-0.07706085011160521,0.0
3393,0.04740244835990666,0.0
3394,-0.02723996108429697,0.0
3395,-0.03387672272023582,0.0
3396,-0.049209108770006525,0.0
3397,-0.1003967190940055,0.0
3398,0.10518227862034185,0.0
3399,-0.05732701595851474,0.0
3400,0.4240774828807249,0.0
3401,5.474568354174715,0.0
3402,3.5488077264012317,0.0
3403,-2.907444883905478,0.0
3404,1.5280765744012201,0.0
3405,-0.8667341505491799,0.0
3406,0.24587752505906924,0.0
3407,-0.08468367187680614,0.0
3408,-0.04170450748429606,0.0
3409,-0.07348559259836657,0.0
3410,0.062562230786646,0.0
3411,0.00689551686109266,0.0
3412,-0.03620102537754563,0.0
3413,0.01684397744241546,0.0
3414,0.0011279841725722259,0.0
3415,0.014844049638681852,0.0
3416,-0.058998589182018675,0.0
3417,1.5209344126225408,0.0
3418,6.890282309437582,0.0
3419,-0.14660628080282717,0.0
3420,-1.0853783898649572,0.0
3421,0.7048479698547571,0.0
3422,-0.4035148554144249,0.0
3423,0.1252575897358499,0.0
3424,-0.06090520025676887,0.0
3425,0.004946726136796271,0.0
3426,0.04660184924725638,0.0
3427,-0.012840514506751357,0.0
3428,-0.020238209148187098,0.0
3429,0.012836917766519036,0.0
3430,0.013229343588023648,0.0
3431,0.06327422037314209,0.0
3432,0.06454448443676562,0.0
3433,0.03298689502381799,0.0
3434,3.4627669879077385,0.0
3435,6.26427965250419,0.0
3436,-2.741294439367905,0.0
3437,0.9988718639559083,0.0
3438,-0.2984447725283569,0.0
3439,0.05520324823064242,0.0
3440,-0.09764610670441513,0.0
3441,-0.07755383237517217,0.0
3442,-0.10199321336212414,0.0
3443,-0.06657561637777483,0.0
3444,-0.11922759379070984,0.0
3445,-0.1162047934218283,0.0
3446,-0.03761556028552433,0.0
3447,-0.04598131871883749,0.0
3448,0.005567507294840776,0.0
3449,0.03257087797164913,0.0
3450,0.5003595794602467,0.0
3451,5.455718871977455,0.0
3452,3.526352110506294,0.0
3453,-2.771492074760342,0.0
3454,1.5681725211038482,0.0
3455,-0.773725627337885,0.0
3456,0.4244552375494995,0.0
3457,-0.09368971321728872,0.0
3458,-0.025390081727541897,0.0
3459,-0.05538876535751007,0.0
3460,-0.024034760122796234,0.0
3461,0.07557682175405223,0.0
3462,0.10307556916874795,0.0
3463,-0.06582714664136069,0.0
3464,0.01964806119554899,0.0
3465,0.008454434625868115,0.0
3466,-0.07773541243899829,0.0
3467,1.631751634322688,0.0
3468,6.898962072404097,0.0
3469,-0.024882313408129186,0.0
3470,-1.0119469922382538,0.0
3471,0.7871617307168346,0.0
3472,-0.515625499906061,0.0
3473,0.11575070308762503,0.0
3474,-0.06536741855799837,0.0
3475,0.08341472710249218,0.0
3476,-0.041063773816506215,0.0
3477,0.017998805005665235,0.0
3478,0.007734125160523377,0.0
3479,-0.017294452057380776,0.0
3480,-0.029567222482789392,0.0
3481,-0.0052206252659685905,0.0
3482,-0.027331362279522726,0.0
3483,-0.0036461422655487963,0.0
3484,3.2933436735775516,0.0
3485,6.212668203615498,0.0
3486,-2.8322546936173323,0.0
3487,0.9818978495350877,0.0
3488,-0.376794908092535,0.0
3489,0.11676417696594066,0.0
3490,-0.106173771925968,0.0
3491,-0.023902085768914266,0.0
3492,-0.05849000561470349,0.0
3493,0.043055952591596086,0.0
3494,-0.061155947202408335,0.0
3495,0.004759889323881061,0.0
3496,0.08932181369732634,0.0
3497,0.00800199306175692,0.0
3498,-0.016555949758315175,0.0
3499,0.04695006759751601,0.0
3500,0.6066910606540687,0.0
3501,5.517205221205101,0.0
3502,3.5387157499012787,0.0
3503,-2.773096278200461,0.0
3504,1.5819691462663883,0.0
3505,-0.7330480521226429,0.0
3506,0.29512650841488947,0.0
3507,-0.06527061129317654,0.0
3508,8.668348633494166e-05,0.0
3509,-0.016570493176519912,0.0
3510,-0.030695987041826044,0.0
3511,0.013424134443666948,0.0
3512,-0.005581737933861297,0.0
3513,-0.06826979064731306,0.0
3514,-0.09260857777525196,0.0
3515,0.005660861338451242,0.0
3516,-0.16856938511092653,0.0
3517,1.5792664681375008,0.0
3518,6.8354768607675656,0.0
3519,-0.2670222130787555,0.0
3520,-1.0094820735369305,0.0
3521,0.7160511865862862,0.0
3522,-0.48451380744338457,0.0
3523,0.0718878718946076,0.0
3524,-0.13281107085858673,0.0
3525,-0.09770993127026997,0.0
3526,-0.17164455059077557,0.0
3527,-0.12060500163620808,0.0
3528,-0.06878390191980767,0.0
3529,-0.026072241266858386,0.0
3530,-0.027390574348181672,0.0
3531,-0.04694758768988408,0.0
3532,-0.07065603913210557,0.0
3533,0.06692655005218595,0.0
3534,3.467255197537457,0.0
3535,6.133230009038017,0.0
3536,-2.7430977696775822,0.0
3537,0.9635544098977966,0.0
3538,-0.38077383788763797,0.0
3539,0.07222442837771237,0.0
3540,-0.14733212893383973,0.0
3541,-0.03740457382752598,0.0
3542,-0.01848398419177221,0.0
3543,-0.09893763088059443,0.0
3544,-0.02745432293511122,0.0
3545,-0.04442536326755377,0.0
3546,-0.0634426950986858,0.0
3547,-0.049200899200713535,0.0
3548,-0.08281960394324364,0.0
3549,-0.05402233804057589,0.0
3550,0.4238101200623783,0.0
3551,5.497130756208494,0.0
3552,3.4905980431062464,0.0
3553,-2.7769718539452155,0.0
3554,1.4734530769375522,0.0
3555,-0.8750588097572898,0.0
3556,0.3474205253906401,0.0
3557,-0.2710634431268603,0.0
3558,-0.05297624204275573,0.0
3559,-0.03190157138640254,0.0
3560,-0.051624420423650244,0.0
3561,0.007718690461218758,0.0
3562,-0.10517877446336973,0.0
3563,-0.0854342162847074,0.0
3564,-0.0370282122003805,0.0
3565,-0.043347144121800116,0.0
3566,-0.08848556578990499,0.0
3567,1.5142079289973405,0.0
3568,6.896758736460121,0.0
3569,-0.21820342697586484,0.0
3570,-0.983420496021938,0.0
3571,0.7362655767051236,0.0
3572,-0.43398100233960346,0.0
3573,0.10286057124258026,0.0
3574,-0.10750195294395837,0.0
3575,0.07347320295178889,0.0
3576,-0.015621546572223222,0.0
3577,-0.00880764050824895,0.0
3578,-0.004382398035377797,0.0
3579,0.008858127032591135,0.0
3580,-0.0663161181950816,0.0
3581,0.016853187255290652,0.0
3582,-0.05544377207711626,0.0
3583,0.04129885489015561,0.0
3584,3.439757024156041,0.0
3585,6.151823708834369,0.0
3586,-2.761872400354333,0.0
3587,0.9171319949107393,0.0
3588,-0.4564406555612386,0.0
3589,0.000537904081751063,0.0
3590,-0.10446862409414463,0.0
3591,-0.014874326086618109,0.0
3592,-0.03487806669631641,0.0
3593,-0.09541627404630597,0.0
3594,0.008036065281292554,0.0
3595,-0.08004067332782222,0.0
3596,-0.03552349156370607,0.0
3597,-0.08206314377928892,0.0
3598,0.03075408283824284,0.0
3599,0.0033677425939561065,0.0
3600,0.5264933919778747,0.0
3601,5.510233110912933,0.0
3602,3.4035115718535103,0.0
3603,-2.719405005486438,0.0
3604,1.5662652117930613,0.0
3605,-0.8103223199489455,0.0
3606,0.35304020929956714,0.0
3607,-0.14655120011398132,0.0
3608,-0.012761441049438802,0.0
3609,-0.10087828633239593,0.0
3610,-0.04984800869108989,0.0
3611,0.03928482702368896,0.0
3612,-0.08233840166726757,0.0
3613,0.04769167910233857,0.0
3614,0.035664421605103885,0.0
3615,-0.04232991899038737,0.0
3616,0.029572370604227426,0.0
3617,1.548084394630448,0.0
3618,7.01747923882833,0.0
3619,-0.1480137891251384,0.0
3620,-0.9613099002568736,0.0
3621,0.7878956156553053,0.0
3622,-0.3288586813721343,0.0
3623,0.05746132043207938,0.0
3624,-0.1372293689045135,0.0
3625,0.026098669403580584,0.0
3626,0.023380149343179297,0.0
3627,0.03353674831012807,0.0
3628,0.07056379621939779,0.0
3629,0.08781973301133944,0.0
3630,0.05055688069374227,0.0
3631,0.091476087596135,0.0
3632,-0.006412371682075344,0.0
3633,0.0882575538277277,0.0
3634,3.418907145636291,0.0
3635,6.194931696896026,0.0
3636,-2.7441974029409013,0.0
3637,0.9376114041525171,0.0
3638,-0.4483383034327391,0.0
3639,0.044924144720925194,0.0
3640,-0.14854071323515294,0.0
3641,0.04282741186919329,0.0
3642,0.06638381260949236,0.0
3643,-0.02721929032634392,0.0
3644,-0.10096536051161382,0.0
3645,0.00019441939945244457,0.0
3646,0.0038776556509286953,0.0
3647,0.028759269308236874,0.0
3648,-0.08343062206358254,0.0
3649,0.07278454032367151,0.0
3650,0.5598427574882444,0.0
3651,5.635757012377681,0.0
3652,3.477080960213893,0.0
3653,-2.7097666329819146,0.0
3654,1.531225047037026,0.0
3655,-0.7877355045782727,0.0
3656,0.37284233908074516,0.0
3657,-0.12240280035672003,0.0
3658,0.0537235342385234,0.0
3659,0.05181792685931012,0.0
3660,0.0016412512450699086,0.0
3661,0.0005304207670778667,0.0
3662,0.017155560305514163,0.0
3663,0.016604155137278274,0.0
3664,-0.0031673096338067537,0.0
3665,0.007771538569298055,0.0
3666,0.07275995389689102,0.0
3667,1.6473270974827068,0.0
3668,6.942313250541866,0.0
3669,-0.13441956634606117,0.0
3670,-0.9885383852220987,0.0
3671,0.8278279365043406,0.0
3672,-0.3377423869554267,0.0
3673,0.10954496309148595,0.0
3674,-0.040974768216271655,0.0
3675,0.030395256355115113,0.0
3676,-0.011477241208752487,0.0
3677,-0.007914913094193645,0.0
3678,0.14618110382488694,0.0
3679,-0.013731731293176543,0.0
3680,0.02374874919268541,0.0
3681,0.01737945912848205,0.0
3682,0.01738010563756985,0.0
3683,0.10122890398009671,0.0
3684,3.5243849209957285,0.0
3685,6.220342585874576,0.0
3686,-2.7445334199750624,0.0
3687,1.1503403945987956,0.0
3688,-0.37158708830425247,0.0
3689,0.22443060798772863,0.0
3690,-0.13666280905572667,0.0
3691,0.13452204783420377,0.0
3692,0.04350683309042035,0.0
3693,0.08800060370104315,0.0
3694,0.032775577463588376,0.0
3695,-0.058816647651331586,0.0
3696,-0.008398406946730844,0.0
3697,0.0978142011734024,0.0
3698,0.1616143942982558,0.0
3699,0.053566259597137095,0.0
3700,0.6718464695751658,0.0
3701,5.707056890528346,0.0
3702,3.4666248534257442,0.0
3703,-2.6097599324475107,0.0
3704,1.634944207855256,0.0
3705,-0.7753986271501428,0.0
3706,0.34937953740846256,0.0
3707,-0.14108900748222697,0.0
3708,0.14364980579314995,0.0
3709,-0.030974551376040944,0.0
3710,0.0568835562922616,0.0
3711,-0.06185072758628712,0.0
3712,0.06922954356057734,0.0
3713,0.04461661063925206,0.0
3714,0.006388685599002984,0.0
3715,-0.07182842998720018,0.0
3716,0.039915846869276995,0.0
3717,1.6837082359148856,0.0
3718,6.994496851866485,0.0
3719,-0.13696330259213263,0.0
3720,-0.9207277792872443,0.0
3721,0.8547806124869759,0.0
3722,-0.3636484813990481,0.0
3723,0.25783316104511345,0.0
3724,0.10551013347168768,0.0
3725,0.05215319397050738,0.0
3726,0.06949879221305116,0.0
3727,0.024783069779496472,0.0
3728,0.08407118221179516,0.0
3729,0.006696251431568143,0.0
3730,0.07275957385326645,0.0
3731,0.14298155953926162,0.0
3732,0.0619463736105899,0.0
3733,0.1108221810863545,0.0
3734,3.5227076897375573,0.0
3735,6.235872635358503,0.0
3736,-2.781852981184419,0.0
3737,1.0521928051278235,0.0
3738,-0.31975295761033057,0.0
3739,0.11626953616413627,0.0
3740,-0.026231073962915824,0.0
3741,0.06871071230162056,0.0
3742,-0.059240785312760766,0.0
3743,0.0729844242652186,0.0
3744,0.008773927862401526,0.0
3745,0.02257116167218566,0.0
3746,0.1432596024340161,0.0
3747,-0.0812705129530871,0.0
3748,0.01763536470919595,0.0
3749,0.08733685688013595,0.0
3750,0.5272973940001129,0.0
3751,5.806595264718005,0.0
3752,3.476489179462211,0.0
3753,-2.642467722564435,0.0
3754,1.5873130955789616,0.0
3755,-0.7251526978586321,0.0
3756,0.2806969469962417,0.0
3757,-0.0024039628076802794,0.0
3758,0.08232343141667856,0.0
3759,-0.02724773370258253,0.0
3760,0.027990058405664216,0.0
3761,0.03182472126594415,0.0
3762,-0.013545899190176834,0.0
3763,0.0006276934456902663,0.0
3764,0.03681870033792582,0.0
3765,0.02693837683654391,0.0
3766,-0.011432097139723558,0.0
3767,1.6323094950989516,0.0
3768,6.863555325004169,0.0
3769,-0.2231036564026214,0.0
3770,-0.8948971102551355,0.0
3771,0.8462154950790312,0.0
3772,-0.3828768969775502,0.0
3773,0.18018148998114136,0.0
3774,-0.005536077954601516,0.0
3775,0.10404148086108661,0.0
3776,0.08309659434013855,0.0
3777,0.1083424827951469,0.0
3778,0.03232776442439831,0.0
3779,-0.020426744549392868,0.0
3780,-0.04638536029173222,0.0
3781,-0.06910378133596184,0.0
3782,0.04617567116514058,0.0
3783,0.12779531551395518,0.0
3784,3.458434397466463,0.0
3785,6.264539875420614,0.0
3786,-2.776494303219016,0.0
3787,1.1226409920051599,0.0
3788,-0.36379519245017145,0.0
3789,0.07463828858567331,0.0
3790,-0.0007707039524701385,0.0
3791,0.017665733515332356,0.0
3792,0.05098430741852474,0.0
3793,0.06184706621409497,0.0
3794,0.07226495188237635,0.0
3795,0.10062963368813777,0.0
3796,0.06090432374367442,0.0
3797,0.06308630449723394,0.0
3798,0.07175274427397622,0.0
3799,0.07234277163682931,0.0
3800,0.620844794563112,0.0
3801,5.770148027695144,0.0
3802,3.5296221957966734,0.0
3803,-2.5457404930614604,0.0
3804,1.741210671467197,0.0
3805,-0.6100107084118278,0.0
3806,0.4771302725686289,0.0
3807,-0.03492906321371629,0.0
3808,0.1910773340763492,0.0
3809,0.12166204221638999,0.0
3810,0.10228711503855839,0.0
3811,0.0772436853113296,0.0
3812,-0.030838414887313786,0.0
3813,-0.046021012669917295,0.0
3814,0.030436490277678713,0.0
3815,0.01969978921647189,0.0
3816,-0.02564014446940372,0.0
3817,1.7449579686883443,0.0
3818,6.958731605503773,0.0
3819,-0.31663670955166034,0.0
3820,-0.8834862106316695,0.0
3821,0.7660668129154374,0.0
3822,-0.3311772333041272,0.0
3823,0.20883663473392386,0.0
3824,0.022233081025467567,0.0
3825,0.07478993851259585,0.0
3826,0.09738924324374787,0.0
3827,-0.02169686904059627,0.0
3828,0.04227952083545996,0.0
3829,-0.04971709340990423,0.0
3830,0.043045976715906875,0.0
3831,-0.03769181005014189,0.0
3832,0.015326673796689567,0.0
3833,0.23450737672415403,0.0
3834,3.5991243991172923,0.0
3835,6.330942328614335,0.0
3836,-2.631398805582968,0.0
3837,1.0338757060356838,0.0
3838,-0.3134826367865232,0.0
3839,0.2091941619873482,0.0
3840,-0.0025500283667190676,0.0
3841,0.07479049619179884,0.0
3842,0.18386812459173613,0.0
3843,0.05336160617514072,0.0
3844,0.08938706250360573,0.0
3845,0.07500332831885498,0.0
3846,0.12485579909619098,0.0
3847,0.06135797415182664,0.0
3848,0.15998153667001175,0.0
3849,0.10718038949064176,0.0
3850,0.6719886080795868,0.0
3851,5.758637935030898,0.0
3852,3.4265397559514112,0.0
3853,-2.597163099748884,0.0
3854,1.635478536916016,0.0
3855,-0.6983707624424249,0.0
3856,0.4171778408036157,0.0
3857,-0.10651785196252113,0.0
3858,0.1075301876559793,0.0
3859,0.05264734972770141,0.0
3860,0.10907550851545683,0.0
3861,0.026774622944483017,0.0
3862,0.07341165839534011,0.0
3863,0.10413413413530746,0.0
3864,0.026229122102042923,0.0
3865,0.0810712578598896,0.0
3866,0.029221321146569695,0.0
3867,1.724284803529841,0.0
3868,7.0116600977318075,0.0
3869,-0.23891308499561692,0.0
3870,-0.776662644076225,0.0
3871,0.795689207061178,0.0
3872,-0.280157336374262,0.0
3873,0.07860551955913778,0.0
3874,0.07103293929516365,0.0
3875,0.04912572773237105,0.0
3876,0.08775439742173738,0.0
3877,0.08359758354146614,0.0
3878,0.0422711346817087,0.0
3879,-0.006583792631070021,0.0
3880,0.029193897214625692,0.0
3881,-0.0005817288167853721,0.0
3882,0.052102527377115106,0.0
3883,0.174633390414027,0.0
3884,3.6035284761398274,0.0
3885,6.153693709404542,0.0
3886,-2.7702368202049144,0.0
3887,1.0931866062865525,0.0
3888,-0.374543493053754,0.0
3889,0.1776449822187459,0.0
3890,0.07052349115618162,0.0
3891,0.06925242986699792,0.0
3892,0.00554781584396187,0.0
3893,0.073912928950422,0.0
3894,0.10643904708817678,0.0
3895,0.07649078431028344,0.0
3896,0.15510974494146051,0.0
3897,0.16760586247057307,0.0
3898,0.05592762947027342,0.0
3899,0.030174972881782683,0.0
3900,0.5839653151489173,0.0
3901,5.691571745085398,0.0
3902,3.4603534739023174,0.0
3903,-2.6175619404649755,0.0
3904,1.6344088037987106,0.0
3905,-0.6907243125871169,0.0
3906,0.3906223621791006,0.0
3907,-0.023415618846260297,0.0
3908,0.07307405334865544,0.0
3909,0.11676595861451335,0.0
3910,0.050645312111928985,0.0
3911,0.07172907422879232,0.0
3912,-0.013865498521230007,0.0
3913,0.07810452921836257,0.0
3914,0.021879192791425986,0.0
3915,0.06769392536646594,0.0
3916,0.09260239920115035,0.0
3917,1.7704517741052843,0.0
3918,6.974721991852644,0.0
3919,-0.22953592277159468,0.0
3920,-0.7395168052113607,0.0
3921,0.8157675598285159,0.0
3922,-0.2901723637176297,0.0
3923,0.20704155319986314,0.0
3924,0.03510560212401939,0.0
3925,0.11272206689192796,0.0
3926,-0.005524067820447454,0.0
3927,0.0684265918152943,0.0
3928,0.14670153573145417,0.0
3929,0.0641571256118045,0.0
3930,0.04137032427363607,0.0
3931,0.1422802128295033,0.0
3932,0.06968646504432119,0.0
3933,0.18286039393688736,0.0
3934,3.6254406038803917,0.0
3935,6.134234870317637,0.0
3936,-2.6527306587948094,0.0
3937,1.1323591438177643,0.0
3938,-0.35551541676393145,0.0
3939,0.1175173373450655,0.0
3940,0.10110082478062263,0.0
3941,0.022980676460966173,0.0
3942,0.021594250380160836,0.0
3943,0.02859307441758108,0.0
3944,-0.003218986184185653,0.0
3945,0.018783754520079007,0.0
3946,0.04385325587914951,0.0
3947,0.05390894035801518,0.0
3948,0.1008916248523023,0.0
3949,-0.003985823778789959,0.0
3950,0.6524454246885723,0.0
3951,5.628609959595793,0.0
3952,3.3623205463619237,0.0
3953,-2.6824438005199336,0.0
3954,1.6369553220487147,0.0
3955,-0.717686068887295,0.0
3956,0.343211029864213,0.0
3957,0.019745129374865306,0.0
3958,0.07952832230875634,0.0
3959,0.12594076675771015,0.0
3960,0.089609824772486,0.0
3961,0.07948738792382284,0.0
3962,0.013969405000613833,0.0
3963,0.030884228114426735,0.0
3964,0.08092293528858653,0.0
3965,0.04813281427057129,0.0
3966,0.10973490423859797,0.0
3967,1.667687599377836,0.0
3968,7.009620902709494,0.0
3969,-0.34526107859212096,0.0
3970,-0.8087537525463524,0.0
3971,0.7493723386494855,0.0
3972,-0.3219918185919702,0.0
3973,0.25832129668341697,0.0
3974,-0.028264568384798655,0.0
3975,0.06728712175071541,0.0
3976,-0.050045720430870744,0.0
3977,-0.05050863536565475,0.0
3978,0.03575684807857671,0.0
3979,0.0075562857928986316,0.0
3980,0.1465865139608498,0.0
3981,-0.005683574105081635,0.0
3982,0.017576010948263356,0.0
3983,0.15398587585985388,0.0
3984,3.515827387046156,0.0
3985,6.220301357045768,0.0
3986,-2.8666227423396378,0.0
3987,1.0780251720865848,0.0
3988,-0.41378233113693474,0.0
3989,0.18710097035941173,0.0
3990,-0.010639942527059184,0.0
3991,0.0701244803606533,0.0
3992,0.012935702887963575,0.0
3993,0.01359096199282342,0.0
3994,0.016507140647230387,0.0
3995,-0.012189246249683688,0.0
3996,-0.012368307345841809,0.0
3997,0.0196934030500884,0.0
3998,-0.02664647446364312,0.0
3999,0.08151406628769557,0.0
4000,0.6891134117044271,0.0
4001,5.773285056266551,0.0
4002,3.282311749199626,0.0
4003,-2.632091155200988,0.0
4004,1.524520652158979,0.0
4005,-0.7712515284655859,0.0
4006,0.3256901826743194,0.0
4007,-0.057033875913045554,0.0
4008,0.1581017339402347,0.0
4009,-0.026575678338362944,0.0
4010,0.029104696954046272,0.0
4011,-0.032482920897209305,0.0
4012,-0.013235810343525597,0.0
4013,-0.015313973582611887,0.0
4014,-0.02049107609857477,0.0
4015,-0.0576592002130483,0.0
4016,-0.0365252452359802,0.0
4017,1.6612528256801349,0.0
4018,6.851848765926052,0.0
4019,-0.3611096737561912,0.0
4020,-0.9545586374780817,0.0
4021,0.6832647929771433,0.0
4022,-0.3643245215430332,0.0
4023,0.17458656749950013,0.0
4024,-0.02032754668745205,0.0
4025,-0.01944660183973978,0.0
4026,-0.06365743680067859,0.0
4027,-0.025427581471314742,0.0
4028,-0.02666600434955204,0.0
4029,-0.014255605782623266,0.0
4030,-0.057662325555443775,0.0
4031,0.02158968533120731,0.0
4032,0.004060310988778471,0.0
4033,0.16855856311893988,0.0
4034,3.5616700176524088,0.0
4035,6.124740186275704,0.0
4036,-2.8525684163670144,0.0
4037,1.1242558073650362,0.0
4038,-0.4143196559883723,0.0
4039,0.12039579668785425,0.0
4040,-0.1317745878401568,0.0
4041,-0.006407040352125221,0.0
4042,-0.04877498527468595,0.0
4043,-0.20662270146843795,0.0
4044,-0.062252670938174666,0.0
4045,-0.0327903854713506,0.0
4046,-0.049695847030169465,0.0
4047,-0.06264567488635259,0.0
4048,-0.04497596142713053,0.0
4049,-0.07873082485612022,0.0
4050,0.4411275968359118,0.0
4051,5.561945836988319,0.0
4052,3.2036713733795708,0.0
4053,-2.7413874653947987,0.0
4054,1.4534503585604264,0.0
4055,-0.7608732885891658,0.0
4056,0.33506366830235634,0.0
4057,-0.1409940532436799,0.0
4058,0.008722573177339094,0.0
4059,-0.1485892343269986,0.0
4060,-0.05415038008267278,0.0
4061,-0.033549012920720586,0.0
4062,0.01574182655854134,0.0
4063,0.0542387376337241,0.0
4064,-0.05731509483047838,0.0
4065,0.02061317034862854,0.0
4066,-0.05725542179268779,0.0
4067,1.7060703631253324,0.0
4068,6.951968560268313,0.0
4069,-0.3793861527089738,0.0
4070,-0.8318055182844507,0.0
4071,0.7069671931461267,0.0
4072,-0.36053629565421785,0.0
4073,0.16787037935055046,0.0
4074,0.007266555090556792,0.0
4075,-0.06708830094931909,0.0
4076,0.010130089855675158,0.0
4077,0.02791907733967786,0.0
4078,-0.03994692336974778,0.0
4079,0.006499346048330927,0.0
4080,0.031316049539184605,0.0
4081,0.04765929240062553,0.0
4082,-0.08878718996800625,0.0
4083,0.09890412725247978,0.0
4084,3.6507711900573665,0.0
4085,6.159266206891197,0.0
4086,-2.8962129404792027,0.0
4087,1.1024971280032878,0.0
4088,-0.5053220896124309,0.0
4089,0.09051151135995167,0.0
4090,0.007487901170848979,0.0
4091,0.019673182629776294,0.0
4092,-0.007292597924329603,0.0
4093,0.0926738791065,0.0
4094,0.05692164676353001,0.0
4095,0.07485424794784781,0.0
4096,0.0162823143351915,0.0
4097,0.0325995013008972,0.0
4098,-0.019942089841973216,0.0
4099,0.10776437233198181,0.0
4100,0.5816983012094687,0.0
4101,5.727226016925959,0.0
4102,3.222766612603992,0.0
4103,-2.5948082270989157,0.0
4104,1.4691654646470953,0.0
4105,-0.8477334165143104,0.0
4106,0.32589729607740864,0.0
4107,-0.041387446610017004,0.0
4108,0.038766845913560256,0.0
4109,-0.13606624492640515,0.0
4110,0.0469490264690553,0.0
4111,0.051428499362447366,0.0
4112,0.11307939322347102,0.0
4113,0.020723008005744288,0.0
4114,-0.008392333292420487,0.0
4115,0.04242762818853281,0.0
4116,0.12116641506197999,0.0
4117,1.7914280557868212,0.0
4118,6.974632750995564,0.0
4119,-0.368913560733531,0.0
4120,-0.9088189720508059,0.0
4121,0.6869524386266306,0.0
4122,-0.33657299891604153,0.0
4123,0.18514079477212905,0.0
4124,-0.11139538456503327,0.0
4125,0.04736707179849203,0.0
4126,-0.08882251359594508,0.0
4127,0.041197641571358315,0.0
4128,-0.029192741884461658,0.0
4129,0.01675451359781318,0.0
4130,-0.07642413448006857,0.0
4131,-0.0053667596664529905,0.0
4132,-0.04371045586171615,0.0
4133,0.15401830965351299,0.0
4134,3.6228120693924937,0.0
4135,6.173272304766235,0.0
4136,-2.8659195996152027,0.0
4137,1.1394427780147554,0.0
4138,-0.4474053636088903,0.0
4139,0.22550458943450208,0.0
4140,0.003105529677773042,0.0
4141,0.010493878716201981,0.0
4142,0.027176029799096814,0.0
4143,0.005479563259955502,0.0
4144,-0.015690172152230175,0.0
4145,-0.05966912951443377,0.0
4146,-0.0167776940926356,0.0
4147,0.01357556520960956,0.0
