timestamp,value-0,is_anomaly
0,0.22196349572814206,0
1,4.644114282299974,0
2,4.957463653148932,0
3,-2.995078644663651,0
4,1.5594314598966814,0
5,-0.7533664244642079,0
6,0.2973791986975543,0
7,-0.05358919470333963,0
8,0.04949754017784379,0
9,-0.004366592227948141,0
10,0.024411304526625714,0
11,-0.021254426416113834,0
12,0.0611623566623994,0
13,-0.004393359507893781,0
14,0.04216754783582907,0
15,0.015325541340004497,0
16,0.025248240276397146,0
17,0.9789307275080446,0
18,6.409695541059389,0
19,1.5911335507524462,0
20,-1.9100031627530938,0
21,1.2099890694342341,0
22,-0.6278019487335473,0
23,0.3569930670744,0
24,-0.06859205706554602,0
25,0.008018404330739668,0
26,0.009509701169263775,0
27,-0.06516439118195386,0
28,-0.01875074758830482,0
29,-0.04625183817611535,0
30,-0.030997272082865703,0
31,-0.028107433981372207,0
32,0.028562957392067358,0
33,0.009247449320620979,0
34,2.4954406697461056,0
35,6.854336188573396,0
36,-1.7381932291024635,0
37,0.21586109479281923,0
38,0.1531315406959259,0
39,-0.19699127115536558,0
40,0.005451274473868038,0
41,-0.0009853062039757911,0
42,0.00973394102607825,0
43,-0.024211075589290747,0
44,-0.0765370686740663,0
45,-0.06458872601504434,0
46,-0.022516259778561476,0
47,0.02042509616294509,0
48,-0.07168591581150043,0
49,-0.11957035039085902,0
50,0.1808580666301955,0
51,4.5397411930557645,0
52,4.967636621186139,0
53,-3.0272814124239478,0
54,1.5632078386718513,0
55,-0.7117916532898575,0
56,0.31317031522946054,0
57,-0.09219491753407678,0
58,0.04467295817281598,0
59,0.04427031253204935,0
60,0.06113713536155597,0
61,0.01946670302996129,0
62,0.08912602303652967,0
63,-0.028735128285264547,0
64,0.02185240350664131,0
65,0.028990659119356287,0
66,0.07697940267865332,0
67,1.0648968073641547,0
68,6.505253649310852,0
69,1.5480459535226738,0
70,-1.9700682060753008,0
71,1.2702729281295584,0
72,-0.6643677910091011,0
73,0.197464350485964,0
74,-0.057729731573998924,0
75,-0.017539610448138884,0
76,-0.01731767897680354,0
77,-0.06265138968076214,0
78,-0.012432442208389887,0
79,-0.03733488970992633,0
80,-0.18251173727782952,0
81,-0.027943727303807675,0
82,0.011926739144937519,0
83,0.061928059214617165,0
84,2.441109816238745,0
85,6.830513842322716,0
86,-1.8506285464380388,0
87,0.07067871712815843,0
88,0.10778323344154794,0
89,-0.18586383483110264,0
90,-0.023136637016695483,0
91,0.03364192731550656,0
92,-0.06245241281856603,0
93,0.01760379639791419,0
94,-0.04325895457961958,0
95,-0.040026427651933025,0
96,-0.07598576921263694,0
97,0.018666191056316554,0
98,-0.02064012460570054,0
99,-0.05261937405955926,0
100,0.26083018427471677,0
101,4.507548625256848,0
102,5.00561867211701,0
103,-3.0680148150523,0
104,1.5870839703615593,0
105,-0.7144170953147393,0
106,0.2592240898215141,0
107,-0.16256585007462537,0
108,-0.030984076658081346,0
109,-0.08894737827084734,0
110,-0.011562308880975081,0
111,-0.032954394638644385,0
112,-0.10501894856881798,0
113,-0.08045131667429013,0
114,-0.08736211108450921,0
115,-0.06852802130617178,0
116,-0.15528828419279728,0
117,0.952194885283659,0
118,6.491312768047736,0
119,1.5146588879901444,0
120,-2.006045291455292,0
121,1.1552381559048066,0
122,-0.7612083218512605,0
123,0.20326323293294246,0
124,-0.2137772472993393,0
125,-0.09253232569024897,0
126,-0.09254351197609545,0
127,-0.0194795112581752,0
128,-0.12458330722152743,0
129,-0.16766220686163116,0
130,-0.07547785900571774,0
131,-0.10503907514161323,0
132,-0.020410874575574528,0
133,-0.05398471318667389,0
134,2.4375341147224727,0
135,6.807463593904022,0
136,-1.9138026000914778,0
137,0.09379335704712374,0
138,0.15278471267821248,0
139,-0.14571091483086487,0
140,0.047062955823571534,0
141,0.05658004528055589,0
142,-0.016925651604680146,0
143,-0.04884901504102177,0
144,-0.09579602055316996,0
145,0.0010040130735477215,0
146,-0.11137345023200357,0
147,-0.11384758142657075,0
148,-0.13038561451348554,0
149,-0.09436702026343104,0
150,0.22411801958256825,0
151,4.64519602006274,0
152,4.996972119042323,0
153,-3.054208045512829,0
154,1.527622370616576,0
155,-0.8387551328333783,0
156,0.20044715818705838,0
157,-0.17114606956157433,0
158,-0.01809108168218755,0
159,-0.12063416653583206,0
160,-0.07843902763658331,0
161,-0.041752928422729055,0
162,-0.023974420159705807,0
163,-0.0037002534583945243,0
164,-0.039356877239422466,0
165,-0.01773633552127317,0
166,-0.06094743941864068,0
167,0.9855561457352054,0
168,6.425716232954286,0
169,1.4988224983554002,0
170,-2.0620496656011573,0
171,1.1693822520123478,0
172,-0.658007823938002,0
173,0.2610954957124345,0
174,-0.14956451626198558,0
175,-0.09211263937586113,0
176,-0.06621921128900254,0
177,-0.16918214503892592,0
178,-0.16276420171656444,0
179,-0.03737517716809484,0
180,-0.09822487257681724,0
181,-0.07381142738383967,0
182,-0.15410461467953318,0
183,-0.03775329717745621,0
184,2.5100171197683814,0
185,6.792203839690902,0
186,-1.9114113142023237,0
187,0.13104379924999432,0
188,0.12078813849210024,0
189,-0.14429420676308619,0
190,-0.07062495420554307,0
191,0.016919549513693788,0
192,-0.07935939233427211,0
193,-0.04157389771803765,0
194,0.02380652424696143,0
195,-0.018745286211913226,0
196,-0.01496943522317124,0
197,-0.07396538157327544,0
198,-0.06858325215721481,0
199,-0.029832249463298013,0
200,0.24323112235109337,0
201,4.622833567267292,0
202,4.8723633496478165,0
203,-3.0580214509539427,0
204,1.4886630582978684,0
205,-0.6496069815828561,0
206,0.2812803828209235,0
207,-0.0471201525297263,0
208,-0.08373457247339222,0
209,-0.011359951360842432,0
210,-0.09787717164974533,0
211,0.11107990065472234,0
212,-0.12363457053977364,0
213,0.02534432478391072,0
214,-0.04139970602945399,0
215,0.10360962591906109,0
216,0.10382601691869642,0
217,1.0033031484741877,0
218,6.543649330843522,0
219,1.4956660032213727,0
220,-1.8809501742848922,0
221,1.2392997778569395,0
222,-0.5935553621122259,0
223,0.2985364868321949,0
224,-0.056979940581002,0
225,0.10266298019354177,0
226,0.009562013618475484,0
227,0.01528494522175218,0
228,-0.02803598802150237,0
229,0.023153713299616727,0
230,0.019910085745592374,0
231,-0.0632186386416987,0
232,-0.029571959542034995,0
233,-0.024717421800147837,0
234,2.479931242351982,0
235,6.802135242804711,0
236,-1.925644592859964,0
237,0.27773760157349997,0
238,0.06982224597261263,0
239,-0.11984244131613132,0
240,0.10501580454971834,0
241,-0.034866455443902086,0
242,-0.10359902222520251,0
243,0.032094667459623846,0
244,0.03285244711965353,0
245,0.11449611355644926,0
246,0.04334289019469886,0
247,0.06606277028556606,0
248,-0.027744049961582452,0
249,0.01790546597805094,0
250,0.2748743698659276,0
251,4.645107865130985,0
252,4.842920673143651,0
253,-3.066662766923843,0
254,1.622785093752426,0
255,-0.8161936150025824,0
256,0.41400008579427755,0
257,-0.0327227529113339,0
258,0.11075373603335303,0
259,0.04686982988122049,0
260,0.06371865931910023,0
261,0.004339979668841823,0
262,-0.002341506477745569,0
263,0.015321775720644287,0
264,0.10688660162128062,0
265,0.04854193702902047,0
266,0.024358959517953943,0
267,0.9655848654789484,0
268,6.457542168599206,0
269,1.4691423414335694,0
270,-1.8636165382009733,0
271,1.1567933109691948,0
272,-0.6812242965861297,0
273,0.26017063668159396,0
274,-0.0904168996839014,0
275,0.004999250780376517,0
276,-0.07255826146842222,0
277,0.04651610748923032,0
278,-0.008402701763222404,0
279,0.07723852799033536,0
280,0.0582795209686036,0
281,-0.012829514675247095,0
282,0.00924064499509573,0
283,0.039469396994616476,0
284,2.549142995455758,0
285,6.847261980045648,0
286,-1.8862813845841164,0
287,0.23835492766872385,0
288,0.16462556097527414,0
289,-0.05169984217302889,0
290,0.02983908641844958,0
291,0.03794554241274273,0
292,0.04600494561896583,0
293,-0.04764195901247603,0
294,0.012131707650805049,0
295,0.025466879850076472,0
296,-0.041934844504123166,0
297,-0.0335831309684674,0
298,-0.02162684051378025,0
299,-0.05372852169924133,0
300,0.3212691493429996,0
301,4.592115932485799,0
302,4.889616331624695,0
303,-3.0263482044107266,0
304,1.6048513299263125,0
305,-0.7514337364896185,0
306,0.32761866332702255,0
307,-0.1392161216957104,0
308,0.06297949794004552,0
309,0.019690865151181763,0
310,0.03957974264577421,0
311,0.03362131807690047,0
312,0.050380958426947176,0
313,0.10306777812110852,0
314,0.005393461676690421,0
315,0.06754685476168214,0
316,-0.03659052347066411,0
317,1.1166875181420781,0
318,6.462153311825486,0
319,1.3909126532335814,0
320,-1.8336533698626394,0
321,1.2789057219801645,0
322,-0.6122130736641291,0
323,0.22607233731677018,0
324,-0.0990756078786517,0
325,0.026903494335981173,0
326,-0.06553432007428511,0
327,0.12595827356757366,0
328,0.0730043417878837,0
329,0.014966687879290074,0
330,0.03909330157424258,0
331,0.16333233339594477,0
332,-0.000137519646541219,0
333,0.04465154083156874,0
334,2.5758949245935607,0
335,6.862543976227326,0
336,-1.779935736281944,0
337,0.19649603290927256,0
338,0.13713720978654154,0
339,-0.0710690614654036,0
340,0.06089535586352403,0
341,0.04785824481625925,0
342,-0.048549051203176534,0
343,0.07586054621489774,0
344,0.06225855094151868,0
345,-0.004813069560220096,0
346,0.013329127427400861,0
347,0.05968964079820224,0
348,0.05366867916609676,0
349,0.05619633909838061,0
350,0.3095027563232847,0
351,4.765351531306072,0
352,4.960633659163665,0
353,-2.973474855146541,0
354,1.627441102329821,0
355,-0.7188638752931181,0
356,0.36410339793651536,0
357,0.05860992819224749,0
358,0.056163909335624616,0
359,0.13292566648372944,0
360,0.09839945805619235,0
361,0.08851302320796875,0
362,0.09619509668070869,0
363,0.03278944479544879,0
364,0.1496876400872398,0
365,0.03801938197311463,0
366,0.013956776560155155,0
367,1.0382965311318983,0
368,6.559012262285715,0
369,1.4509265288112323,0
370,-1.8081553979229554,0
371,1.1985189139166312,0
372,-0.6216426184330478,0
373,0.26489911143781186,0
374,0.010302122525499266,0
375,0.018487696187923314,0
376,0.07902453828601572,0
377,0.10838735079379885,0
378,0.02609189034397125,0
379,0.05260752520865325,0
380,0.08983158779408318,0
381,-0.031366205905466384,0
382,0.0393308425251754,0
383,-0.012901937235865815,0
384,2.6231015484954767,0
385,6.853249153083178,0
386,-1.8874865630414341,0
387,0.23778085411542033,0
388,0.1538968183029173,0
389,-0.14177228546856677,0
390,0.057538869453405486,0
391,0.07900534426085384,0
392,0.06782268085492489,0
393,-0.01353366158241048,0
394,0.0010566775232407457,0
395,0.10120999497969309,0
396,0.028931225484710513,0
397,-0.02198170698462027,0
398,0.04934007233457517,0
399,0.0046594953334875115,0
400,0.27558307807521876,0
401,4.738514421863542,0
402,4.959808852269113,0
403,-2.9014070566418053,0
404,1.5898012071643859,0
405,-0.6797629171465146,0
406,0.2841769911378195,0
407,-0.05888498186142903,0
408,0.10478235685962131,0
409,0.12194478587238891,0
410,0.03081253713328674,0
411,-0.009391451040207291,0
412,0.09466638365194574,0
413,0.040516155755806214,0
414,-0.01566935834386394,0
415,-0.017802135939222245,0
416,0.06899263394323318,0
417,0.9883824825567312,0
418,6.505391140770468,0
419,1.3728995932730004,0
420,-1.9249802500718187,0
421,1.231732160016797,0
422,-0.5933192265894623,0
423,0.3248325914429089,0
424,-0.14792104384049437,0
425,0.008952511725728751,0
426,-0.023914226442834707,0
427,-0.014131462452178143,0
428,0.0032887315023732,0
429,0.06162254256345718,0
430,-0.1003606792661593,0
431,0.0891778552966884,0
432,-0.007949719450778367,0
433,0.0012952633553388743,0
434,2.576732489167873,0
435,6.8846505199800045,0
436,-1.9301235921651356,0
437,0.3000652059387375,0
438,0.09277244110840363,0
439,-0.08310480401223516,0
440,0.08790552672015736,0
441,0.06975313702376919,0
442,-0.044361076885159195,0
443,-0.09559102865932902,0
444,-0.009208822402032215,0
445,-0.035273934875625704,0
446,0.02141852121884282,0
447,0.00396149986356829,0
448,-0.08113495993900739,0
449,-0.03367007754805364,0
450,0.2760397120448143,0
451,4.706410387288821,0
452,4.783397993597485,0
453,-3.007822012012778,0
454,1.5548941956246445,0
455,-0.7740250540897959,0
456,0.33459766162993543,0
457,-0.09571181457896143,0
458,0.07808865291639674,0
459,0.1267387815387946,0
460,0.03817121728333399,0
461,-0.04072287540789003,0
462,0.0627546383645347,0
463,-0.045168377743178056,0
464,0.0661452761492582,0
465,-0.0465572527557082,0
466,0.03327526938007319,0
467,1.0404915720451082,0
468,6.613643000649705,0
469,1.3663313333993077,0
470,-1.831434068832979,0
471,1.1806582402844463,0
472,-0.5775978270800912,0
473,0.29993660986515475,0
474,-0.1886283631219025,0
475,-0.013914906156150975,0
476,-0.04883676807083479,0
477,-0.03209745618764424,0
478,-0.030268235162859054,0
479,-0.01284303681575967,0
480,-0.06123196857068876,0
481,-0.0826904424733606,0
482,-0.0285682391956291,0
483,-0.018944008479341953,0
484,2.6144573547431134,0
485,6.878920156233409,0
486,-1.9819759219942408,0
487,0.36094409559561214,0
488,0.01564464669456106,0
489,-0.09754474123558161,0
490,0.058772003287106134,0
491,0.04138932764399213,0
492,0.1622260943587759,0
493,-0.03888392601167878,0
494,-0.024867779777850544,0
495,0.0020710861488022004,0
496,-0.019202149982470267,0
497,0.05131500600563056,0
498,0.017798015495890458,0
499,0.027711894063930397,0
500,0.27042364974808775,0
501,4.624112160113704,0
502,4.746677303844684,0
503,-3.119402645283404,0
504,1.529529421803155,0
505,-0.7496444837684929,0
506,0.2640257507452131,0
507,-0.16391721616408955,0
508,-0.01651896342206695,0
509,-0.01867182516707121,0
510,0.05305047874379688,0
511,-0.10042621534611572,0
512,0.001461016026356894,0
513,0.045508296817922726,0
514,-0.03719682676628585,0
515,0.012560973275836367,0
516,-0.01934782781139842,0
517,0.968550021033337,0
518,6.453381168196451,0
519,1.3111775801678718,0
520,-1.9206002478536373,0
521,1.1024677892308836,0
522,-0.6240690051307651,0
523,0.2990914102112,0
524,-0.13102173737203227,0
525,-0.0746368832596738,0
526,-0.02901340858621662,0
527,0.08407201861196975,0
528,-0.057251771389753583,0
529,0.012967102783048984,0
530,0.023166689399377688,0
531,-0.0021964449161767964,0
532,-0.03564652387944219,0
533,-0.0025783959864405306,0
534,2.70991225905206,0
535,6.924266774032075,0
536,-2.0143083474246275,0
537,0.35186649085544786,0
538,-0.012097544727766543,0
539,-0.0949500216480522,0
540,0.013826509110968981,0
541,-0.04727976187575441,0
542,-0.007250522828116963,0
543,-0.007343996478246996,0
544,-0.015999090417252386,0
545,-0.006200492453060459,0
546,-0.015066338012314204,0
547,-0.04994352520350237,0
548,0.04832054066360257,0
549,-0.0972790272273735,0
550,0.2664706579603599,0
551,4.786792557120836,0
552,4.845115398232554,0
553,-3.040504873849325,0
554,1.4226149773543446,0
555,-0.7248354104233065,0
556,0.24809450608231615,0
557,-0.09787125756984497,0
558,0.05161112890297012,0
559,-0.03838946704514351,0
560,-0.04664420571609548,0
561,0.048640083338011536,0
562,-0.0304614553207206,0
563,-0.07285492658250374,0
564,0.0918756449930295,0
565,-0.09024784474777821,0
566,-0.014530979714135028,0
567,1.0190899420607176,0
568,6.490666578994863,0
569,1.167435621616787,0
570,-1.846855075541464,0
571,1.0492552126437298,0
572,-0.5651783833496641,0
573,0.1955184896162484,0
574,-0.1000258189438281,0
575,-0.10046579286026976,0
576,-0.053028789840849175,0
577,-0.06077768871158615,0
578,-0.174318111474854,0
579,-0.08891259094473121,0
580,-0.06163189224774605,0
581,-0.06103082583461539,0
582,-0.10624795291544911,0
583,-0.01649857581972957,0
584,2.5528790971744515,0
585,6.779304609110123,0
586,-2.006073775091136,0
587,0.2608945585328484,0
588,0.10205044706484681,0
589,-0.041413018905060425,0
590,-0.06590509521315563,0
591,0.0014724678090135418,0
592,0.018145790829273305,0
593,-0.056606735323079985,0
594,0.028633533834997754,0
595,-0.06699894017838104,0
596,-0.06816362283714499,0
597,-0.00799411598614818,0
598,-0.12154387405640901,0
599,-0.007514176688392223,0
600,0.28665316146347086,0
601,4.644023290108618,0
602,4.756679160398261,0
603,-2.9687161956983883,0
604,1.4958094931284085,0
605,-0.7926655036198658,0
606,0.3001855654031805,0
607,-0.26453106909894936,0
608,-0.09409126869463239,0
609,-0.08875615842406065,0
610,0.03948096577786282,0
611,-0.10642628934429897,0
612,-0.03960155956005996,0
613,0.006985477203186666,0
614,-0.0845929649495181,0
615,-0.04854272993452906,0
616,-0.19793792516972564,0
617,0.9107025852379982,0
618,6.393242130560597,0
619,1.1085332037368478,0
620,-1.9527086584898057,0
621,1.0852257778280812,0
622,-0.7499742143065455,0
623,0.09753812997645113,0
624,-0.25738048287315907,0
625,-0.016308498879858364,0
626,-0.0897251368130657,0
627,-0.09627219518096355,0
628,-0.04921545411060886,0
629,-0.13053526841497742,0
630,-0.07733135361690797,0
631,-0.15972833493794347,0
632,-0.025533483604562604,0
633,0.02102861704751842,0
634,2.629124704036965,0
635,6.667126761718168,0
636,-1.943220371277027,0
637,0.31875618657749344,0
638,0.05553476340973568,0
639,-0.0724652483607539,0
640,-0.01726580173744413,0
641,-0.06382138808136141,0
642,-0.05157468569926456,0
643,0.0018994015341167458,0
644,-0.010794095894063091,0
645,-0.09440695090550894,0
646,-0.07570983260431953,0
647,-0.044292667453142254,0
648,-0.02885933329887072,0
649,0.020719473770636487,0
650,0.2328354367345683,0
651,4.656257453519223,0
652,4.704771443122312,0
653,-3.029819727175478,0
654,1.467918959668383,0
655,-0.862679228421368,0
656,0.19572578909725716,0
657,-0.11238330952097936,0
658,0.020977343677150255,0
659,-0.045574233443659615,0
660,-0.04849395860059083,1
661,0.052200725870632715,1
662,2.514880778394548,1
663,0.11543925344369038,1
664,0.0057113556066605824,1
665,-0.015271618230020007,1
666,-2.95858124706719,1
667,-0.16046653564590205,1
668,-0.09544589139789272,1
669,0.11711003094894262,1
670,-0.3737759579850622,1
671,0.0032771664336274497,1
672,-0.14378603103496393,1
673,0.24149259729865852,1
674,1.4366789915110632,1
675,-0.07275089466282161,1
676,-0.05251310671020479,1
677,1.92990230308437,1
678,-0.5541232717407363,1
679,0.00446861894216128,1
680,0.01937934424066786,1
681,6.06118060935384,1
682,-0.3025129655594276,1
683,-0.11512107705258126,1
684,-0.16160921674323891,1
685,5.633403637473542,1
686,0.4178025784150051,1
687,0.0236025284587558,1
688,-0.14572904415353713,1
689,-1.1832041935087279,1
690,-0.08488364069817142,1
691,-0.11029050644998342,1
692,0.0721758885887495,1
693,-2.3777839196673063,1
694,0.04389443676644339,1
695,-0.06450650281588119,1
696,0.013192665332946156,1
697,1.402225750293326,1
698,-0.006119989139137779,1
699,-0.1004810040297803,1
700,0.7503644385644698,1
701,0.3856014576890283,1
702,0.034402147418273896,1
703,-0.07209888438808085,1
704,4.091714701900737,1
705,-0.658198711880063,1
706,-0.04446503126655944,1
707,-0.005172348547554648,1
708,7.036249075706767,1
709,0.16957089015776947,1
710,-0.04315324569108128,1
711,-0.14633966719806038,1
712,2.232218555667334,1
713,0.0021982325119556945,1
714,-0.10962584962647559,1
715,-0.03735350628455697,1
716,-3.039005657007509,1
717,-0.24377830350056584,1
718,-0.012431286517267336,1
719,-0.07692844906474904,1
720,-0.19809705359771132,1
721,0.0245145407721053,1
722,-0.06563392400064182,1
723,0.12226258068493878,1
724,1.4056474168082826,1
725,0.00338905980588591,1
726,-0.04602923494972216,1
727,2.0762669553592117,1
728,-0.6102096946728685,1
729,0.023395926585802043,1
730,-0.01002857408104816,1
731,6.1334526084184775,1
732,-0.1878829294464716,1
733,0.00039319809018115506,1
734,-0.10150423756307661,1
735,5.431872070990194,1
736,0.18827880687116427,1
737,-0.008065632808297293,1
738,-0.01805238985770964,1
739,-1.3827246338837234,1
740,-0.18283619840084153,1
741,-0.07270914275077042,1
742,-0.01837625983066442,1
743,-2.271076871256726,1
744,-0.12634634784552717,1
745,-0.011725721016547983,1
746,-0.08244613148437285,1
747,1.3465393139383333,1
748,-0.02335467734564016,1
749,-0.002178088753639812,1
750,0.7832360980022869,1
751,0.1950131559656635,1
752,-0.002991514307831712,1
753,-0.005062821186305869,1
754,4.129005624913933,1
755,-0.7800651072596784,1
756,-0.09604623463871198,1
757,-0.07725246518097797,1
758,7.0314629667874184,1
759,0.17382161418437156,1
760,-0.06809715461869961,0
761,-0.0003013244211678874,0
762,0.00697429955499454,0
763,-0.034158690568314,0
764,-0.05533336248035839,0
765,0.013937358627868712,0
766,-0.02871437641262336,0
767,1.059501721629438,0
768,6.520654929418789,0
769,1.1509674116523831,0
770,-1.8311312293403883,0
771,1.1764009953292691,0
772,-0.6394256976386236,0
773,0.18640704045026724,0
774,-0.11511597849905285,0
775,-0.06177982386824005,0
776,0.031865974344255685,0
777,-0.0028306549680176393,0
778,0.0013470500802527288,0
779,0.06321313044896759,0
780,-0.06010647165029612,0
781,0.002938092675035229,0
782,0.006162810773307107,0
783,0.13483706497485723,0
784,2.7573854164225695,0
785,6.880747678878066,0
786,-2.0345317547726487,0
787,0.47242410329717327,0
788,0.056014024626645176,0
789,-0.013998280896111468,0
790,0.06588842209026756,0
791,0.00015888356071075936,0
792,-0.03295218111090228,0
793,-0.050329611633458046,0
794,-0.03778333839599379,0
795,0.0441708263269854,0
796,0.06695084214136844,0
797,0.004860486517192286,0
798,0.03591537786532128,0
799,0.04121870740287796,0
800,0.39573151082652114,0
801,4.771879827202666,0
802,4.745553724921891,0
803,-3.053786735558667,0
804,1.5158552871049675,0
805,-0.7485907133206502,0
806,0.2567193378979068,0
807,-0.11333670800707181,0
808,0.09285653463086513,0
809,-0.015714431742928935,0
810,-0.015835263840690793,0
811,0.035527300931594515,0
812,-0.0015616641908979202,0
813,0.07966322987474599,0
814,-0.014384066688637613,0
815,0.06543929897764383,0
816,-0.01973275489987671,0
817,1.0995231872388047,0
818,6.5883768724759255,0
819,1.2579255392482942,0
820,-1.6311742250135022,0
821,1.1733829711148822,0
822,-0.6570318519474758,0
823,0.24233390422578344,0
824,-0.10532822087431984,0
825,-0.04513739233550937,0
826,0.028432407010662963,0
827,-0.0497243403182005,0
828,-0.08862340323933458,0
829,-0.06240851850351837,0
830,-0.07751371496172382,0
831,-0.16283725804490878,0
832,-0.08417843459399016,0
833,-0.032375963799636504,0
834,2.605503373476089,0
835,6.6721129313382725,0
836,-2.05301813285101,0
837,0.34822532898050645,0
838,0.029855156555314035,0
839,-0.11921573787924004,0
840,0.00274937869854723,0
841,-0.01754969699400935,0
842,-0.0423118926903209,0
843,0.021190554068286144,0
844,-0.11395575419659162,0
845,-0.048198280341582904,0
846,-0.08529117138888816,0
847,-0.13053889869592705,0
848,-0.05276980892413463,0
849,-0.06503714176836084,0
850,0.2429449617183239,0
851,4.7022823140165,0
852,4.664639171631734,0
853,-3.0501470614407995,0
854,1.5778277379917085,0
855,-0.8586870176381718,0
856,0.22867277469450736,0
857,-0.1314070157946568,0
858,0.059044417726086824,0
859,-0.13172444397199,0
860,0.12860247984149983,0
861,0.006072686929223113,0
862,0.05336315046810324,0
863,0.04965312718253294,0
864,-0.027692368980784296,0
865,0.0296434370484332,0
866,0.06720560167927836,0
867,1.1009575563395624,0
868,6.632632813031012,0
869,1.1649640162920245,0
870,-1.797635316112805,0
871,1.1508489131758206,0
872,-0.6151970997274211,0
873,0.28514673846725636,0
874,-0.10397512333205403,0
875,0.00805835725856616,0
876,0.044577479963813484,0
877,-0.13956251962645336,0
878,0.0015488279733198683,0
879,0.029697551171227615,0
880,-0.09126582194958786,0
881,-0.04033205496040457,0
882,-0.08540759638872858,0
883,-0.050557077940837775,0
884,2.651986122152235,0
885,6.759256304424274,0
886,-2.040723581526457,0
887,0.3348184011581999,0
888,0.04937532723825511,0
889,-0.06683752254287294,0
890,0.0267318000134365,0
891,0.10680069623510731,0
892,-0.03852130824152088,0
893,-0.011023352737835515,0
894,-0.027752895151628654,0
895,0.03415651692675678,0
896,0.044920108786234106,0
897,0.11123809395159044,0
898,0.021452138331606224,0
899,0.05390777036456841,0
900,0.37556827516776636,0
901,4.917488041600912,0
902,4.730486926056373,0
903,-2.8829035943817902,0
904,1.665901064410524,0
905,-0.771810112389859,0
906,0.2706606834332962,0
907,-0.10524073243564358,0
908,0.0390388297225628,0
909,0.048970279125865546,0
910,0.026257202275247103,0
911,0.008991298742616248,0
912,0.014194374787549018,0
913,0.04872463650461647,0
914,0.05761340355028041,0
915,0.07742981052870973,0
916,0.05787635543999727,0
917,1.1059974824707743,0
918,6.554844238770428,0
919,1.114545568473516,0
920,-1.7491609323688055,0
921,1.1014214515069816,0
922,-0.5797253223017778,0
923,0.22502575073186973,0
924,-0.06831877691491996,0
925,0.05514538388008479,0
926,0.010099842010835608,0
927,0.019572194293815553,0
928,-0.02140786394030524,0
929,-0.014794032317421144,0
930,0.0655267910008401,0
931,-0.025097910865457058,0
932,0.074532468501975,0
933,0.06831246078006692,0
934,2.7108048110725727,0
935,6.831471433121114,0
936,-2.0308725406173846,0
937,0.4318200739396113,0
938,-0.056005051145370056,0
939,0.04293433550757736,0
940,-0.00247155396201143,0
941,-0.10685187698534665,0
942,-0.08589230185647921,0
943,-0.06979956445973012,0
944,0.0559567071282674,0
945,0.13430743536547093,0
946,-0.006071095038196646,0
947,0.06889193866074671,0
948,0.07324422766557312,0
949,0.15440562934031518,0
950,0.33041833476556665,0
951,4.948772610584057,0
952,4.746691084568434,0
953,-2.899964550989234,0
954,1.6812078818366198,0
955,-0.6837633491173213,0
956,0.3924148128574774,0
957,-0.15414996198611522,0
958,0.06474877389118974,0
959,0.06663930382406504,0
960,0.04341623014094131,0
961,-0.08926444788225171,0
962,0.0064762708137727325,0
963,0.034592761177791385,0
964,0.07489633387884033,0
965,0.0588255163202477,0
966,0.054365912481880774,0
967,1.2252401424767836,0
968,6.740288598188603,0
969,1.1402167638024887,0
970,-1.632774705084829,0
971,1.1142934991169162,0
972,-0.4867304336786876,0
973,0.3062631263717456,0
974,-0.011700674131832147,0
975,0.03268758173914724,0
976,-0.03990426964477011,0
977,-0.020861955935081035,0
978,-0.051292211332231094,0
979,0.02622966920620187,0
980,0.030909785194013977,0
981,0.048355128545294196,0
982,0.07554031200891848,0
983,0.0728359274297936,0
984,2.751637037825308,0
985,6.821050376157152,0
986,-2.036617634687528,0
987,0.4583622766990628,0
988,0.10449079086037943,0
989,-0.020943045361994664,0
990,0.15379796142582788,0
991,0.07016712166785569,0
992,0.09253898355092555,0
993,0.03528556988475174,0
994,-0.004949422448844762,0
995,0.06476870863163699,0
996,0.06368383842940015,0
997,-0.10751665761476167,0
998,0.07055039407491713,0
999,0.004666653786905672,0
1000,0.3300156289527575,0
1001,4.942291657012614,0
1002,4.625053139147652,0
1003,-2.9867807609755697,0
1004,1.5404579879833227,0
1005,-0.662328379300002,0
1006,0.32007494725110736,0
1007,-0.050024285023201054,0
1008,0.030001216953330332,0
1009,-0.08074654054824613,0
1010,-0.005646213778040411,0
1011,0.07201301669647181,0
1012,-0.027847610115274285,0
1013,0.0063653100345820255,0
1014,0.12007946347561821,0
1015,-0.05251434655539332,0
1016,0.019092618992554808,0
1017,1.2022229583442323,0
1018,6.694813247176448,0
1019,1.1438231805845052,0
1020,-1.5769345688059964,0
1021,1.257755315804195,0
1022,-0.5369132876010623,0
1023,0.3163747232474768,0
1024,-0.058986364381235966,0
1025,0.02750136730220036,0
1026,0.014884777278195652,0
1027,0.1090747967743919,0
1028,0.1772145149890843,0
1029,-0.027554182212173553,0
1030,0.09833478199067641,0
1031,0.11899152180405063,0
1032,0.028724908358148005,0
1033,0.09480735374294509,0
1034,2.7798563058769465,0
1035,6.745331970445247,0
1036,-2.168467298395637,0
1037,0.49864103576469165,0
1038,0.06713017727989934,0
1039,-0.024592019004861458,0
1040,0.0177201553334563,0
1041,0.03485273854197619,0
1042,-0.013278975342434746,0
1043,0.024009920287141,0
1044,0.05396731083699252,0
1045,0.05043099994615838,0
1046,-0.002870666613237448,0
1047,0.1457883422193588,0
1048,0.06240440285141006,0
1049,0.08872629499488655,0
1050,0.33908857389854596,0
1051,4.951361025308223,0
1052,4.690516909723714,0
1053,-2.8540537213299064,0
1054,1.6799157259958097,0
1055,-0.6516509311548074,0
1056,0.35652452331552276,0
1057,-0.0677432402490089,0
1058,0.17851436213582422,0
1059,0.11003797117848296,0
1060,-0.0034475526965309783,0
1061,0.05766151948374677,0
1062,0.06550389150888483,0
1063,0.06870390243985622,0
1064,-0.04106258730469225,0
1065,0.0753798144033949,0
1066,-0.014954271356506815,0
1067,1.2651869671447424,0
1068,6.6438805017026645,0
1069,1.1721230161590712,0
1070,-1.5737475541660755,0
1071,1.2262700418921106,0
1072,-0.5714082756343102,0
1073,0.3852166529180967,0
1074,-0.016833205402977162,0
1075,0.1417559703801156,0
1076,0.12642960480584337,0
1077,0.18195597686286916,0
1078,0.09454436921647633,0
1079,0.09369652647017968,0
1080,0.11184127958460886,0
1081,0.11681134921852396,0
1082,0.09529958363538421,0
1083,0.10097087104524277,0
1084,2.836869431799428,0
1085,6.785866243650113,0
1086,-2.0266155876022123,0
1087,0.48458750162386255,0
1088,0.030109156803151578,0
1089,0.03636344515091205,0
1090,0.014729546130240717,0
1091,0.1135607358764896,0
1092,0.10387196651888282,0
1093,0.1770626070876759,0
1094,0.06423495660395602,0
1095,0.0835929363471607,0
1096,0.12375679790104563,0
1097,0.116734305743353,0
1098,0.020467557273506895,0
1099,-0.01609885852435207,0
1100,0.41031182895331975,0
1101,4.971126080452407,0
1102,4.68788978701755,0
1103,-2.983333205888263,0
1104,1.786706630122143,0
1105,-0.723155220787836,0
1106,0.40038080471202375,0
1107,0.01878144219258193,0
1108,0.19983886059741704,0
1109,0.12007386929646167,0
1110,0.006288366493186454,0
1111,0.041547405187978975,0
1112,0.2278023981647853,0
1113,0.09254132402742384,0
1114,0.09246967730377727,0
1115,0.1723947832480609,0
1116,0.06029965125126848,0
1117,1.3159876409519626,0
1118,6.707864858655536,0
1119,1.1361131601282268,0
1120,-1.5716942734841965,0
1121,1.2725039617841412,0
1122,-0.4643837238011672,0
1123,0.3334547084707973,0
1124,0.06264301566683676,0
1125,0.11987634151366885,0
1126,0.16697760585526483,0
1127,0.16243492141616622,0
1128,0.22956928413070465,0
1129,0.13290404471266304,0
1130,0.3196151218127733,0
1131,0.2081686194270351,0
1132,0.14921080320223037,0
1133,0.22884062580311743,0
1134,2.9538984336164185,0
1135,6.927688442626472,0
1136,-2.01149133049857,0
1137,0.6598590821614911,0
1138,0.21631146905625454,0
1139,0.08991729524352532,0
1140,0.10150202226300853,0
1141,0.1022230173891541,0
1142,0.1225939386211632,0
1143,0.19164017759655766,0
1144,0.1268651187399021,0
1145,0.18879112312637225,0
1146,0.15545201970112843,0
1147,0.031031275592193985,0
1148,0.1404095390608023,0
1149,0.12223060104433205,0
1150,0.5123525461859425,0
1151,5.088919502233867,0
1152,4.70338219609258,0
1153,-2.8702481716445014,0
1154,1.738443818265552,0
1155,-0.6134125410340203,0
1156,0.49384125371971777,0
1157,0.07258289000837508,0
1158,0.15877022455923906,0
1159,0.1009187985760767,0
1160,0.13030320281764068,0
1161,0.2446942037203475,0
1162,0.20805392656030772,0
1163,0.2241984734907693,0
1164,0.20850000152374776,0
1165,0.16313668266046255,0
1166,0.21944977657693543,0
1167,1.335958026325027,0
1168,6.849182799536774,0
1169,1.1419242735566468,0
1170,-1.4938687886119224,0
1171,1.2842122572992278,0
1172,-0.39104330388672104,0
1173,0.4512597986201453,0
1174,0.09539596936570038,0
1175,0.2526905742442632,0
1176,0.16701157304676015,0
1177,0.1695149664837245,0
1178,0.20877005430063802,0
1179,0.25282282124706945,0
1180,0.2257153240804491,0
1181,0.26261297038070636,0
1182,0.28380566654319056,0
1183,0.2652502227532379,0
1184,2.925708605513239,0
1185,7.052310611986051,0
1186,-1.9789637620035663,0
1187,0.7518676044317076,0
1188,0.2783076698401526,0
1189,0.2305363282176405,0
1190,0.25500838490415517,0
1191,0.2528006808580724,0
1192,0.3308450176979708,0
1193,0.33178602837930743,0
1194,0.24486317157237247,0
1195,0.19094116301249403,0
1196,0.2910698398818147,0
1197,0.21916712178177034,0
1198,0.22330672887500647,0
1199,0.18902572213541838,0
1200,0.5040889900174651,0
1201,5.224430065489107,0
1202,4.749262053867711,0
1203,-2.7966320288337077,0
1204,1.8603754341475591,0
1205,-0.568727334212787,0
1206,0.5469670297646864,0
1207,0.12923943554233747,0
1208,0.27267526668426256,0
1209,0.23429461680350427,0
1210,0.23723856133798032,0
1211,0.20046243439691475,0
1212,0.2747576966256834,0
1213,0.21442358987004242,0
1214,0.26182225403646436,0
1215,0.25073457484602346,0
1216,0.24717359807393804,0
1217,1.4175114971561544,0
1218,6.886925766106398,0
1219,1.1415839188770327,0
1220,-1.3771445502608088,0
1221,1.3602631244762373,0
1222,-0.2605223355734173,0
1223,0.5082740569104841,0
1224,0.15237652630021775,0
1225,0.22843336868833655,0
1226,0.294949790230275,0
1227,0.2503414593438003,0
1228,0.24673603250937978,0
1229,0.21441507156908082,0
1230,0.23636610957007864,0
1231,0.24200318055837525,0
1232,0.25538846932358344,0
1233,0.2805010234960754,0
1234,3.1598462059122188,0
1235,7.012458116805892,0
1236,-1.9944345872792262,0
1237,0.7240420520423796,0
1238,0.15564715112367106,0
1239,0.18052138217560426,0
1240,0.2728171904840924,0
1241,0.25868756395846254,0
1242,0.19233982903854518,0
1243,0.22088292602475845,0
1244,0.1927040478055341,0
1245,0.23992578062663286,0
1246,0.2574673651214886,0
1247,0.21620992246080817,0
1248,0.23656859959213977,0
1249,0.31240821675005626,0
1250,0.4981486719239234,0
1251,5.155956513037658,0
1252,4.7140186585669035,0
1253,-2.6348070321526937,0
1254,1.924027386391351,0
1255,-0.5454684071248646,0
1256,0.5119213474607076,0
1257,0.12203554918434109,0
1258,0.24556487289540102,0
1259,0.2987026612195877,0
1260,0.17518620113295144,0
1261,0.22646538377465528,0
1262,0.21782558543117903,0
1263,0.2510362516709749,0
1264,0.21430379626988383,0
1265,0.27195768848860896,0
1266,0.15504202503445172,0
1267,1.4198746362316876,0
1268,6.816302751846667,0
1269,1.1826861479826358,0
1270,-1.372856064719622,0
1271,1.3026487053461266,0
1272,-0.27142907763413937,0
1273,0.46044955852083524,0
1274,0.068439669768531,0
1275,0.2988503796053429,0
1276,0.1690213125097685,0
1277,0.16757320214924187,0
1278,0.21713269552492825,0
1279,0.21950453701785835,0
1280,0.21042272771967624,0
1281,0.20767366082824265,0
1282,0.24369025613486567,0
1283,0.24569946810174148,0
1284,2.9178734794312,0
1285,6.884896805647815,0
1286,-2.0579112698441477,0
1287,0.6966401504027586,0
1288,0.14269192397230188,0
1289,0.18116496058880352,0
1290,0.2158655166273261,0
1291,0.18891988790222258,0
1292,0.17053913439692514,0
1293,0.17602905693491697,0
1294,0.08675940710351585,0
1295,0.03773117364501294,0
1296,0.14280395813419808,0
1297,0.2005994264591865,0
1298,0.225457825029685,0
1299,0.15116048572068197,0
1300,0.4718382754911134,0
1301,5.168579150100995,0
1302,4.641307884525828,0
1303,-2.7837667564964397,0
1304,1.7426276857516074,0
1305,-0.6533970117222059,0
1306,0.45221876822387913,0
1307,0.09490741852479312,0
1308,0.1462914935828214,0
1309,0.04356891148494332,0
1310,0.14121196869544766,0
1311,0.13906020148127657,0
1312,0.15523621303475352,0
1313,0.2101378409980455,0
1314,0.19829368939306155,0
1315,0.17289023298275424,0
1316,0.23745921802512507,0
1317,1.371564403368986,0
1318,6.84984498148895,0
1319,1.076324068894596,0
1320,-1.4044833246570947,0
1321,1.27537650014057,0
1322,-0.4292062171890807,0
1323,0.4405649181315341,0
1324,0.06270920574804446,0
1325,0.0999153878146059,0
1326,0.2847672320294616,0
1327,0.25206294541648344,0
1328,0.15114675709176864,0
1329,0.15575638865646868,0
1330,0.11458377569853948,0
1331,0.14499892362713027,0
1332,0.20515633052186044,0
1333,0.14743370788277654,0
1334,2.9620221612688247,0
1335,6.830942174593614,0
1336,-2.031690552350854,0
1337,0.6907234309557277,0
1338,0.06643759263992968,0
1339,0.14723192201422539,0
1340,0.19331771909803577,0
1341,0.05989190682017756,0
1342,0.10458626661721854,0
1343,0.12217774033235004,0
1344,0.11125782410704074,0
1345,0.1697066281227509,0
1346,0.06182435983048175,0
1347,0.1354162104745866,0
1348,0.11153653601960951,0
1349,0.12150559097326218,0
1350,0.5417719471007358,0
1351,5.0527925808590775,0
1352,4.633422173298029,0
1353,-2.823665838055218,0
1354,1.7277936175082784,0
1355,-0.6656774856146679,0
1356,0.39361530392157157,0
1357,0.008543461218478182,0
1358,0.17241299790246262,0
1359,0.09499750258839021,0
1360,0.06858528563762628,0
1361,0.2088789632012331,0
1362,0.10158440594655754,0
1363,0.15621061603385988,0
1364,0.13032004217010393,0
1365,0.04087578261728253,0
1366,0.09100641475962631,0
1367,1.4160332686743367,0
1368,6.874360894755931,0
1369,0.971467727537862,0
1370,-1.3703858456898341,0
1371,1.230294561934661,0
1372,-0.4630603069137727,0
1373,0.32373678165169917,0
1374,-0.031849357108539214,0
1375,0.04229790371739563,0
1376,0.14055998593670846,0
1377,0.19673800347661513,0
1378,0.16571698361508966,0
1379,0.08767933452657586,0
1380,0.1371829215146861,0
1381,0.11407260060116645,0
1382,0.16386634568103486,0
1383,0.3141713078858316,0
1384,2.9611403161861647,0
1385,6.86451125825654,0
1386,-2.017580601668185,0
1387,0.6124668369732117,0
1388,-0.005018926747233227,0
1389,0.11467880497526245,0
1390,0.20362984661276506,0
1391,0.11852569409148617,0
1392,0.15201600107274948,0
1393,0.199806801468784,0
1394,0.1255712108265505,0
1395,0.09895148408464265,0
1396,0.1951997137073087,0
1397,0.08619319006998849,0
1398,0.12274181966636198,0
1399,0.22110354931434778,0
1400,0.4193194842055561,0
1401,5.144835421597749,0
1402,4.578558840977109,0
1403,-2.817049944421437,0
1404,1.6959194131787547,0
1405,-0.6589721856077622,0
1406,0.5514410920950211,0
1407,-0.021211076501736745,0
1408,0.1475704188106621,0
1409,0.1262396904116155,0
1410,0.15450079825760266,0
1411,0.09046110684957165,0
1412,0.053089867849256296,0
1413,0.18061690444333303,0
1414,0.13982890990026453,0
1415,0.13706917371743962,0
1416,0.18601516882902008,0
1417,1.2920850763447305,0
1418,6.830679101390173,0
1419,1.0179636495369424,0
1420,-1.5180707558168682,0
1421,1.1501318104369602,0
1422,-0.3638117159199763,0
1423,0.30099168260975834,0
1424,0.009064614113596665,0
1425,0.16901682657295128,0
1426,0.06902977869501419,0
1427,0.18023206106920941,0
1428,0.10035668958568782,0
1429,0.155245514655591,0
1430,0.09824270534623025,0
1431,0.03610611671915105,0
1432,0.09543683908618518,0
1433,0.1945654506537783,0
1434,3.0889540869181342,0
1435,6.923875599064984,0
1436,-1.9936722244213652,0
1437,0.7193980429597896,0
1438,0.10759960675108815,0
1439,0.2582077149421102,0
1440,0.25251446489804985,0
1441,0.31608462388473957,0
1442,0.21148743569040285,0
1443,0.21839291029177518,0
1444,0.25478613462212973,0
1445,0.10785049497938537,0
1446,0.31953523512441395,0
1447,0.21404828882461865,0
1448,0.1651719806119532,0
1449,0.11887235811765909,0
1450,0.5240769511350236,0
1451,5.0222582205203,0
1452,4.528527790011822,0
1453,-2.809587400812116,0
1454,1.7051416212769144,0
1455,-0.6391708704436121,0
1456,0.4352296501483119,0
1457,0.017137507382818037,0
1458,0.20382689791456893,0
1459,0.04577347042250301,0
1460,0.04518858940725273,0
1461,0.11413998770484261,0
1462,0.039289632020667827,0
1463,0.15765327288672495,0
1464,0.11418723798533617,0
1465,0.1339178647977743,0
1466,0.002316476143505511,0
1467,1.327730126813814,0
1468,6.843702936884616,0
1469,0.9479071256156056,0
1470,-1.455532448952628,0
1471,1.203149789647561,0
1472,-0.4785743585348125,0
1473,0.32548095865472604,0
1474,-0.01202829809852322,0
1475,0.16284855557124694,0
1476,0.13154132906720134,0
1477,0.08253537254210566,0
1478,0.04577937141268957,0
1479,0.06295378468559681,0
1480,0.08821759599617442,0
1481,0.03859250148415793,0
1482,0.03638587959161654,0
1483,0.10545574121300365,0
1484,2.9180536951177247,0
1485,6.787364132172643,0
1486,-2.172385509760014,0
1487,0.6293414551084988,0
1488,-0.009126855535879733,0
1489,0.042643823018056484,0
1490,0.058496947406148254,0
1491,0.0482230637497045,0
1492,0.10149598192843848,0
1493,0.057167648391297274,0
1494,0.016197186827736867,0
1495,0.04788316025737521,0
1496,0.05079327566441162,0
1497,-0.036004593487128506,0
1498,0.040997705558891796,0
1499,0.01945150852640949,0
1500,0.42296059946234993,0
1501,4.9873338779864955,0
1502,4.4219328735965515,0
1503,-2.8820533808952917,0
1504,1.7004716545590919,0
1505,-0.8001441852862997,0
1506,0.4363135971219386,0
1507,-0.04112991908248223,0
1508,-0.0009368636270812858,0
1509,-0.013451901238719546,0
1510,0.020908850439341722,0
1511,-0.002244521771078079,0
1512,-0.012766793037109862,0
1513,0.07198728719519568,0
1514,0.027324691367490127,0
1515,-0.03650879152861917,0
1516,-0.058275662409986835,0
1517,1.2010491213601022,0
1518,6.624873610064223,0
1519,0.8104817047745314,0
1520,-1.6558690472033508,0
1521,0.9823920530327239,0
1522,-0.6105569428754791,0
1523,0.08987901511198508,0
1524,-0.1289773808348664,0
1525,-0.00634308735197019,0
1526,-0.051513987911364786,0
1527,0.006280608896573125,0
1528,0.06954361131664558,0
1529,0.037837582712041865,0
1530,0.01888644959489485,0
1531,0.04489496744756025,0
1532,0.048595578744470784,0
1533,0.12432875175386453,0
1534,2.8614229487236997,0
1535,6.631864500266903,0
1536,-2.299350049452848,0
1537,0.5307966162175825,0
1538,-0.010768786895864378,0
1539,0.021991424192861403,0
1540,-0.018725159955852572,0
1541,-0.07641686954411056,0
1542,0.014916837772515054,0
1543,0.017216677150085062,0
1544,0.017095909535216575,0
1545,-0.11796090963823168,0
1546,-0.004521357994836655,0
1547,0.018276225106594907,0
1548,-0.07445584100852783,0
1549,0.004773248666037255,0
1550,0.40405604177343224,0
1551,5.017184749608018,0
1552,4.335881101501325,0
1553,-3.003414045400865,0
1554,1.5913085914307488,0
1555,-0.6994135855402372,0
1556,0.38118264532606544,0
1557,0.02822041759239388,0
1558,0.16290753475016234,0
1559,0.06732836940311422,0
1560,-0.06132305718905426,0
1561,0.04459656338908449,0
1562,-0.01462659559462693,0
1563,0.0277392518703584,0
1564,-0.03799266311699845,0
1565,0.0957279374584817,0
1566,0.11613738592219737,0
1567,1.2768891491230758,0
1568,6.714174690174576,0
1569,0.8157695509762976,0
1570,-1.623527979024216,0
1571,1.0210671468700356,0
1572,-0.6603916395190471,0
1573,0.186885556750188,0
1574,-0.07377620428700592,0
1575,-0.06438940298853361,0
1576,0.023613615779230837,0
1577,-0.06458898247207664,0
1578,0.04765911758953224,0
1579,-0.014235872757977086,0
1580,-0.04893014378573656,0
1581,-0.0750140189258055,0
1582,0.0544142279023544,0
1583,0.1498074076659758,0
1584,2.9316887432218595,0
1585,6.708780719554584,0
1586,-2.276380966032594,0
1587,0.5801105338804566,0
1588,-0.09134413331645025,0
1589,-0.013473008690563512,0
1590,-0.07709452674985721,0
1591,-0.07952045285590606,0
1592,-0.042613958739601665,0
1593,0.11296349953133633,0
1594,0.019431994913024435,0
1595,0.008170873200731345,0
1596,-0.014734685812375472,0
1597,-0.017858653212569332,0
1598,0.06616013705309425,0
1599,-0.01603676438822252,0
1600,0.45724656922047163,0
1601,5.131659360408823,0
1602,4.348882197091017,0
1603,-2.8874600437468114,0
1604,1.6070640899522648,0
1605,-0.7427376740893165,0
1606,0.33445196922655257,0
1607,-0.08250179970445962,0
1608,0.10164390757299932,0
1609,0.041814409960923074,0
1610,-0.02101276528974618,0
1611,-0.04590829637719546,0
1612,0.05317632491475626,0
1613,-0.08654430690177449,0
1614,-0.0643712143050106,0
1615,-0.050441823840599906,0
1616,-0.0068690858010237495,0
1617,1.181644031579872,0
1618,6.733920628578671,0
1619,0.715057559346868,0
1620,-1.534700587572142,0
1621,1.0387213090927767,0
1622,-0.5050162514945841,0
1623,0.19277677649215594,0
1624,-0.050506677878135585,0
1625,0.03625787761781773,0
1626,0.04058626439630848,0
1627,-0.002432920465308049,0
1628,0.0007402563750724712,0
1629,-0.030736366619334286,0
1630,-0.09543501587943262,0
1631,0.031359828997087,0
1632,-0.024821137508420053,0
1633,0.1277040872965432,0
1634,2.934156683852662,0
1635,6.626079253668909,0
1636,-2.3352671028499543,0
1637,0.65725056080966,0
1638,-0.056933468297650655,0
1639,-0.045804215164207865,0
1640,-0.027965168536441286,0
1641,-0.013549971524192267,0
1642,-0.010154292868411512,0
1643,-0.02621123242463508,0
1644,0.03345636062456736,0
1645,0.0351251605700991,0
1646,0.052875712733427394,0
1647,-0.046073399096168116,0
1648,-0.053840437700633556,0
1649,-0.05002354206524762,0
1650,0.35816074914380364,0
1651,5.008826423439699,0
1652,4.259396089209009,0
1653,-2.951280486152808,0
1654,1.5411079300583777,0
1655,-0.7485428917113541,0
1656,0.33966375099098495,0
1657,-0.21347865827212342,0
1658,-0.03866601036517425,0
1659,-0.0319086672105256,0
1660,-0.04791804144878805,0
1661,-0.03468516364104571,0
1662,-0.055995395358065275,0
1663,0.010466080499662456,0
1664,-0.07594698540666425,0
1665,-0.03503537639668993,0
1666,-0.05593111244579854,0
1667,1.272351042399952,0
1668,6.640105870067886,0
1669,0.6910957203245804,0
1670,-1.4965116446021969,0
1671,1.0829902333143093,0
1672,-0.5525314890483232,0
1673,0.2080315890690907,0
1674,-0.16154665606438434,0
1675,-0.06988196568336419,0
1676,-0.04263738365509142,0
1677,0.08930143098608131,0
1678,-0.12832069363637488,0
1679,-0.09967289808947016,0
1680,-0.004906644280108341,0
1681,0.06501830345462035,0
1682,-0.07294485872835896,0
1683,-0.034039786461156255,0
1684,2.933691453906434,0
1685,6.579415600891195,0
1686,-2.339344300926712,0
1687,0.6273718206923584,0
1688,-0.10836840805907234,0
1689,0.08159104707738082,0
1690,-0.0420349901012318,0
1691,-0.030424749795732238,0
1692,-0.06014895515347222,0
1693,0.03781180547036502,0
1694,-0.08033793323542639,0
1695,0.0419905100673416,0
1696,-0.00040342386869054656,0
1697,0.04236444231941032,0
1698,-0.001034374665289689,0
1699,-0.03091726661697812,0
1700,0.508045531554846,0
1701,5.074613418790553,0
1702,4.278763939749926,0
1703,-2.8469793246292596,0
1704,1.7013063588274073,0
1705,-0.7041285553799544,0
1706,0.3447476445191613,0
1707,-0.0915587379830477,0
1708,0.05312534217525933,0
1709,-0.028315120300214332,0
1710,-0.007459026355656488,0
1711,-0.04357682113641695,0
1712,-0.03074463717930893,0
1713,-0.10250043206638197,0
1714,-0.09712430798903082,0
1715,-0.027752134927955304,0
1716,-0.012479521650497788,0
1717,1.196686731987295,0
1718,6.704839783187059,0
1719,0.7087910459663588,0
1720,-1.5242027831886402,0
1721,1.0321244944553705,0
1722,-0.4197923460844323,0
1723,0.22410512576528624,0
1724,-0.0436873578502228,0
1725,-0.03300284258830723,0
1726,0.13953410969716368,0
1727,0.02757123163381741,0
1728,0.01855677386525944,0
1729,0.02259834034703323,0
1730,0.01719281715559963,0
1731,0.19788479789594104,0
1732,0.11195589636050572,0
1733,0.21345014748137953,0
1734,3.039961694459847,0
1735,6.779318206119586,0
1736,-2.168906571268187,0
1737,0.6501884316935629,0
1738,-0.07461069900683168,0
1739,0.15690271658366178,0
1740,-0.07718831792873102,0
1741,0.027692375905272598,0
1742,0.029666191890767038,0
1743,-0.024146600102085844,0
1744,0.0206702809554693,0
1745,0.00021087124735433282,0
1746,0.02239310702594033,0
1747,-0.01747319818606189,0
1748,-0.009506904661222606,0
1749,-0.05158840736053943,0
1750,0.40512226565690534,0
1751,5.0723704477952865,0
1752,4.222798388969677,0
1753,-2.8622682688676746,0
1754,1.6092044741671936,0
1755,-0.763631734232832,0
1756,0.3976227912874613,0
1757,-0.1360314755456438,0
1758,-0.029160966463287967,0
1759,-0.04004349050967457,0
1760,0.007063261550050383,0
1761,0.034332621825958455,0
1762,-0.05326652200636958,0
1763,-0.030963327153841896,0
1764,0.025522520321288857,0
1765,-0.10613144669092903,0
1766,-0.08246436501994521,0
1767,1.1749373084685686,0
1768,6.77577623932328,0
1769,0.7242377240670907,0
1770,-1.534165250567735,0
1771,0.9782159331326437,0
1772,-0.51076311464075,0
1773,0.18150800939490735,0
1774,0.0062920281869474765,0
1775,0.06370386149940745,0
1776,0.1344740620261205,0
1777,0.05626643120152776,0
1778,0.1395210266012919,0
1779,0.1257563530513895,0
1780,0.05806445575432833,0
1781,0.11771298469780656,0
1782,0.048084870110868996,0
1783,0.06984311311080262,0
1784,2.973606719808793,0
1785,6.694342678377267,0
1786,-2.317221227979796,0
1787,0.5891455801422428,0
1788,-0.15027103622217755,0
1789,0.05299340120399333,0
1790,-0.10937567942946091,0
1791,-0.09341821771949751,0
1792,-0.010571909820678266,0
1793,-0.07560874619739547,0
1794,-0.05258977291063836,0
1795,0.011840931724585849,0
1796,0.03658744817028589,0
1797,-0.060942756979673746,0
1798,-0.0050318591354876,0
1799,-0.038726686438601665,0
1800,0.4041796898591525,0
1801,5.077790504953699,0
1802,4.270284346434936,0
1803,-2.908054954925984,0
1804,1.5573921010158531,0
1805,-0.8220159810770865,0
1806,0.39618964200101936,0
1807,-0.11431159375792044,0
1808,0.06973766199219154,0
1809,0.02614518831230197,0
1810,0.08688011402671096,0
1811,0.06561535952017988,0
1812,-0.019028994396422035,0
1813,0.05869846978549701,0
1814,0.1426875888145137,0
1815,-0.008409535241437054,0
1816,0.10527028097305682,0
1817,1.2788206327964353,0
1818,6.810291832994295,0
1819,0.7337759098375373,0
1820,-1.464058130369929,0
1821,1.020831351814049,0
1822,-0.5256494879323642,0
1823,0.2634097529831526,0
1824,0.03206497801714021,0
1825,0.01962909841508323,0
1826,0.03731728986515802,0
1827,0.06429611616736976,0
1828,0.11419272374942235,0
1829,-0.029987412218582813,0
1830,0.034922183997293126,0
1831,0.05040118110453642,0
1832,-0.015129293902818811,0
1833,0.027772184659505775,0
1834,3.046217204992388,0
1835,6.629126881222812,0
1836,-2.3284195583108747,0
1837,0.5665778422645578,0
1838,-0.04663780705557828,0
1839,0.016220086787086387,0
1840,-0.04490963120529805,0
1841,0.06369907691220367,0
1842,-0.005967773051253476,0
1843,-0.04830587808006391,0
1844,0.06033649979691234,0
1845,-0.01729806558258632,0
1846,-0.04239856740855402,0
1847,-0.07589490020382755,0
1848,-0.05883967856298239,0
1849,0.052521432149572486,0
1850,0.39358851485827645,0
1851,5.144219603940839,0
1852,4.232405487232656,0
1853,-2.918503470215992,0
1854,1.5713468476710282,0
1855,-0.6976554414438388,0
1856,0.2872629506240337,0
1857,-0.10746439949462727,0
1858,0.11658276530615345,0
1859,-0.023298725405275347,0
1860,0.031117638727998553,0
1861,-0.050674965144510864,0
1862,0.005420736414244568,0
1863,0.03935953407683006,0
1864,0.01843999392835418,0
1865,0.029857095669315006,0
1866,0.03394665383252586,0
1867,1.2345252958844573,0
1868,6.831092743924512,0
1869,0.7284353414247636,0
1870,-1.3792967114296315,0
1871,1.0959000962112861,0
1872,-0.4570071377234312,0
1873,0.30737576682275564,0
1874,-0.01895300337307067,0
1875,0.13215017010448168,0
1876,0.1734194703323442,0
1877,-0.008441919749714255,0
1878,0.10488520152848012,0
1879,0.12176006713511615,0
1880,0.09030717028183854,0
1881,0.05096437539671329,0
1882,-0.0521688636304589,0
1883,0.1537756511349278,0
1884,3.054721837685598,0
1885,6.668829658356237,0
1886,-2.315164051163533,0
1887,0.6681885714646515,0
1888,-0.10181337062721135,0
1889,0.11545215857079097,0
1890,0.00025948808368134874,0
1891,0.028530325049227825,0
1892,0.01750043268953156,0
1893,-0.0656298217029952,0
1894,0.11862976957011638,0
1895,0.007595427118288065,0
1896,-0.08607607727276113,0
1897,0.007790809738991131,0
1898,-0.023165651707509064,0
1899,-0.015470261687524037,0
1900,0.3635848449403854,0
1901,5.07639046819732,0
1902,4.195527022790278,0
1903,-2.9687275000085522,0
1904,1.59604565029379,0
1905,-0.8143300263009449,0
1906,0.3171801610537217,0
1907,-0.07649116781168312,0
1908,0.09414100886016036,0
1909,0.106370959991761,0
1910,0.11777159763095688,0
1911,0.05459241185978923,0
1912,0.017974403699806164,0
1913,0.07080426524020739,0
1914,-0.038635923999147004,0
1915,-0.00013477970196629913,0
1916,0.006069100962325751,0
1917,1.3402628262225291,0
1918,6.755009972264791,0
1919,0.5931055222074035,0
1920,-1.3196638855961214,0
1921,0.8986102760498322,0
1922,-0.5326209527608087,0
1923,0.2228278988121514,0
1924,-0.07303029658644007,0
1925,0.10469285366435513,0
1926,-0.09958196249458623,0
1927,-0.042196680885139726,0
1928,-0.012596054401160621,0
1929,0.026498160605112325,0
1930,0.09305815544278206,0
1931,-0.0077352660808004785,0
1932,0.03252361585937148,0
1933,0.17622028808034168,0
1934,3.013028109197469,0
1935,6.729794551839982,0
1936,-2.326858941451558,0
1937,0.6199984051151731,0
1938,-0.0823608176531594,0
1939,0.0357173319036518,0
1940,-0.01915580388585715,0
1941,0.034644355438360655,0
1942,0.025925724835070336,0
1943,0.05914718797879796,0
1944,0.01306485903540152,0
1945,0.04006516403150005,0
1946,0.0448820892451918,0
1947,0.02635537267962007,0
1948,0.04684741924517787,0
1949,0.01705993590836566,0
1950,0.42402017362499955,0
1951,5.098366808584117,0
1952,4.311256537791106,0
1953,-2.941361211540288,0
1954,1.685628021307741,0
1955,-0.7597264683865784,0
1956,0.38890294430495553,0
1957,-0.13681130498812544,0
1958,0.02794017920525702,0
1959,0.02389349412523324,0
1960,0.09094972398489229,0
1961,0.02099823889726781,0
1962,-0.016983197985942267,0
1963,-0.07875671541005672,0
1964,0.07214116046415299,0
1965,0.07797707285143415,0
1966,0.042836420844945704,0
1967,1.4049273709608767,0
1968,6.786875477274812,0
1969,0.6789763151482731,0
1970,-1.4236536737003496,0
1971,1.0144375777485966,0
1972,-0.4693665318212653,0
1973,0.2999319896562247,0
1974,-0.10041619038241244,0
1975,0.0007592023642312359,0
1976,-0.04541206006467003,0
1977,0.05090232588101686,0
1978,-0.020379984637583233,0
1979,-0.05284626082862266,0
1980,-0.08224659478700495,0
1981,-0.02733132069070346,0
1982,-0.10945144359562348,0
1983,-0.02514292417890685,0
1984,2.9476239692403543,0
1985,6.634485906368645,0
1986,-2.4185999046793074,0
1987,0.5928976002492119,0
1988,-0.15272161018112757,0
1989,0.08920890018129254,0
1990,-0.05996762249515926,0
1991,-0.05706531546472961,0
1992,-0.03856616964779222,0
1993,0.07909421195778205,0
1994,0.09252861129258905,0
1995,0.009926907123218608,0
1996,0.026897205250974283,0
1997,0.06594711900824086,0
1998,0.03105576015213512,0
1999,0.055884672792914855,0
2000,0.4078707822383217,0
2001,5.231173241543104,0
2002,4.237343575586012,0
2003,-2.7876496338841976,0
2004,1.6503959709535125,0
2005,-0.8025580126789285,0
2006,0.42002573394889353,0
2007,-0.12631878880964847,0
2008,0.0908181452704119,0
2009,0.042387770002412034,0
2010,-0.01701775927785617,0
2011,0.0472938957711735,0
2012,0.050055834701415246,0
2013,0.0022096427174996096,0
2014,-0.0475807009258086,0
2015,0.031199022281281148,0
2016,-0.0032916470446651227,0
2017,1.3626131236698418,0
2018,6.748240122250647,0
2019,0.5328599875993578,0
2020,-1.45429847723306,0
2021,0.9440372840303483,0
2022,-0.443858233004218,0
2023,0.2542769590454575,0
2024,-0.0923423174394288,0
2025,0.06837521049080056,0
2026,0.0007491687627568452,0
2027,0.07512350219412955,0
2028,0.1152542269649196,0
2029,0.033277364947997504,0
2030,0.07274160473857567,0
2031,0.054547620007795866,0
2032,0.0583432828960322,0
2033,0.19336527512584095,0
2034,3.0522457496817923,0
2035,6.600828859662897,0
2036,-2.384936614136498,0
2037,0.7145277089243162,0
2038,-0.12770366812488135,0
2039,-0.09665393930326605,0
2040,-0.019997623262490168,0
2041,-0.02313046839906435,0
2042,-0.06293421074310737,0
2043,0.01689242593847689,0
2044,-0.020800786421747645,0
2045,-0.06287134618267534,0
2046,-0.06128527045901365,0
2047,-0.06851042472517248,0
2048,0.09432731798995761,0
2049,0.019376542839252126,0
2050,0.3741979884204553,0
2051,5.134405080648599,0
2052,4.079139817350566,0
2053,-2.852987273143779,0
2054,1.5493122097338823,0
2055,-0.7697179825588301,0
2056,0.33624258774764465,0
2057,-0.15158078431887645,0
2058,0.07279391809469488,0
2059,0.007289604786014078,0
2060,-0.03332141370256394,0
2061,-0.13103939322186886,0
2062,-0.0757090630283895,0
2063,-0.10899184579113003,0
2064,0.004773122057568219,0
2065,-0.06735564309859388,0
2066,-0.03976323582008851,0
2067,1.215604432133477,0
2068,6.826717340099519,0
2069,0.5776692145316681,0
2070,-1.4058628500916686,0
2071,1.0008299337696478,0
2072,-0.4418573294798867,0
2073,0.2213836466256175,0
2074,-0.1236258635488551,0
2075,0.04453905544712038,0
2076,-0.002211198763757841,0
2077,-0.02418467608923676,0
2078,-0.06579179135895653,0
2079,-0.08793507733739475,0
2080,0.03457307546670457,0
2081,0.015711650626755204,0
2082,0.005220820235461882,0
2083,0.10703837985280844,0
2084,3.018385057268127,0
2085,6.659727895924236,0
2086,-2.4718056022438493,0
2087,0.7058009911229872,0
2088,-0.21113934042791108,0
2089,-0.05778981627116808,0
2090,-0.07350165550223299,0
2091,-0.007090890926707397,0
2092,0.029754232124446535,0
2093,0.04280212395736198,0
2094,-0.016682645693719984,0
2095,-0.021319299089047707,0
2096,0.00828645032064148,0
2097,-0.004554233081310713,0
2098,0.011704740402974603,0
2099,-0.0710883627687844,0
2100,0.3820813145641318,0
2101,5.0204620884290945,0
2102,4.005039503584335,0
2103,-3.0197771586200335,0
2104,1.4558877227274716,0
2105,-0.8296245204979122,0
2106,0.26348799720467175,0
2107,-0.12954827864346494,0
2108,0.018072313982969008,0
2109,-0.06186963569209245,0
2110,0.029757019570342685,0
2111,0.02733284758984828,0
2112,-0.008331844612041945,0
2113,0.10649419996610594,0
2114,-0.08091891720073209,0
2115,0.12592938400375006,0
2116,-0.016020560713576795,0
2117,1.3994244934423625,0
2118,6.7775768845414275,0
2119,0.6372075322643096,0
2120,-1.3902366016089327,0
2121,1.0003054121170527,0
2122,-0.43418849670924997,0
2123,0.30922479924244445,0
2124,-0.0065299933624034835,0
2125,0.03776586360797787,0
2126,-0.010907818205919649,0
2127,0.02585983163098189,0
2128,-0.08691483520974154,0
2129,0.03179012140961057,0
2130,-0.06568158434037036,0
2131,-0.002973671461711158,0
2132,0.05092553326462533,0
2133,0.007745061110556728,0
2134,3.0092619830230105,0
2135,6.61759352487452,0
2136,-2.4357550172990536,0
2137,0.7426606389492323,0
2138,-0.14300857172311843,0
2139,-0.04738467126399998,0
2140,0.025140619230752143,0
2141,-0.08976039852547144,0
2142,-0.09552963910664353,0
2143,0.09304710180500196,0
2144,-0.04826599936173119,0
2145,-0.004828705909858046,0
2146,-0.029298069976025718,0
2147,0.00898806929380402,0
2148,-0.04399720803198371,0
2149,0.01882786585973933,0
2150,0.3940796067678552,0
2151,5.2158888699626,0
2152,4.142243548371065,0
2153,-2.859044906019874,0
2154,1.5830575908160363,0
2155,-0.8018745983669548,0
2156,0.3805001255935838,0
2157,-0.0598357631506691,0
2158,0.09111481566490368,0
2159,0.059563766172475545,0
2160,0.08360994103706183,0
2161,0.0800847728050044,0
2162,0.03954522511634938,0
2163,0.04437934304893243,0
2164,0.053397709203275204,0
2165,0.041594753686136215,0
2166,0.01609470767804874,0
2167,1.4389310149531103,0
2168,6.7206229241004465,0
2169,0.5255924791113397,0
2170,-1.3203928368119662,0
2171,1.013419498808788,0
2172,-0.5250382122603791,0
2173,0.2535499331594561,0
2174,-0.014628366687543928,0
2175,0.10654577052626975,0
2176,-0.04996041746909807,0
2177,-0.03082678065312456,0
2178,0.06430153239224812,0
2179,0.05030989971059273,0
2180,0.060591441787544546,0
2181,-0.02995499247021382,0
2182,0.008081383814529323,0
2183,0.0884008647114808,0
2184,3.147504029488978,0
2185,6.57331202513997,0
2186,-2.4830174773806175,0
2187,0.7053042570813964,0
2188,-0.22525134813576084,0
2189,0.00794063236023788,0
2190,-0.08619310022973811,0
2191,0.018689723966263963,0
2192,0.03682874579858863,0
2193,-0.09367438346389811,0
2194,-0.053797853023105933,0
2195,0.014871022749494214,0
2196,-0.11697421808932257,0
2197,-0.11198849417813447,0
2198,-0.08581307037640806,0
2199,-0.006310196578904463,0
2200,0.34771675127283974,0
2201,5.227307721976164,0
2202,3.99490678042837,0
2203,-2.953592325429743,0
2204,1.5752846544723185,0
2205,-0.8717497303425759,0
2206,0.35917543316886946,0
2207,-0.14473461101705892,0
2208,0.03325438470959898,0
2209,-0.028948379113209344,0
2210,-0.07277689608656278,0
2211,0.040425036405079426,0
2212,-0.053041361186266206,0
2213,-0.02005064022125424,0
2214,-0.0614855203400452,0
2215,0.010775064458167418,0
2216,0.007928770547397615,0
2217,1.3369008357889907,0
2218,6.743667722561985,0
2219,0.4766517957947145,0
2220,-1.3375050060025366,0
2221,1.070466273960568,0
2222,-0.4715063295814812,0
2223,0.27483895318868523,0
2224,0.0032152431079346677,0
2225,0.06668764894975593,0
2226,0.02333108163679115,0
2227,0.027394712096890237,0
2228,-0.012032138624397976,0
2229,0.030248664629977284,0
2230,0.06640989981121784,0
2231,-0.013707011274167633,0
2232,0.02156632195264465,0
2233,0.04409531079254851,0
2234,3.162787958597526,0
2235,6.625466441063388,0
2236,-2.467411090992987,0
2237,0.7702301001017767,0
2238,-0.11001496717024949,0
2239,0.051876239404434976,0
2240,0.001698089113607028,0
2241,0.061745593723283164,0
2242,0.03424997474125299,0
2243,0.004450983154856428,0
2244,0.032642560317240554,0
2245,-0.06036514339173317,0
2246,0.0006145969476301499,0
2247,-0.01565363313387008,0
2248,-0.021201994135198344,0
2249,0.060710822719024005,0
2250,0.4060798748729871,0
2251,5.2726606524589705,0
2252,4.0626387116933484,0
2253,-2.773018071010658,0
2254,1.7127571034972455,0
2255,-0.7491777531820392,0
2256,0.25588349097474655,0
2257,-0.01731033164186116,0
2258,0.07984804092650015,0
2259,-0.06268471193333061,0
2260,-0.053328024504682006,0
2261,0.027401558154462196,0
2262,0.15549372014078358,0
2263,-0.02421872061761108,0
2264,-0.011123649422713665,0
2265,0.011176353663668967,0
2266,0.023463918721880105,0
2267,1.3937865778815717,0
2268,6.815024408532233,0
2269,0.5611438934589079,0
2270,-1.2133862709090175,0
2271,0.9442210009216184,0
2272,-0.4546098815589714,0
2273,0.21215354543035095,0
2274,0.05636517140425869,0
2275,0.03279385158283917,0
2276,-0.05969570371380956,0
2277,-0.01941333459477218,0
2278,0.053031665356129576,0
2279,0.09553824330156561,0
2280,-0.03104741673811267,0
2281,-0.03716172895818663,0
2282,0.01429858502632552,0
2283,0.07253547151945182,0
2284,3.0897633673095717,0
2285,6.599075734547423,0
2286,-2.5184724611386975,0
2287,0.7469564462495603,0
2288,-0.09489533807985238,0
2289,0.027105042673851255,0
2290,-0.05323027144763784,0
2291,0.04472725344544643,0
2292,0.039015615187504446,0
2293,0.11467024121115885,0
2294,0.029235945568863553,0
2295,0.07885955166144665,0
2296,0.04981902089084873,0
2297,0.10365734191363804,0
2298,0.014954376375155419,0
2299,-0.1565252685946489,0
2300,0.49775096901491245,0
2301,5.290366899271028,0
2302,4.101174762761907,0
2303,-2.8627704114536083,0
2304,1.5913796123150996,0
2305,-0.7735627877612532,0
2306,0.3605495324365995,0
2307,-0.1518252315353883,0
2308,-0.03766707141904094,0
2309,0.05438411655836853,0
2310,0.011087406226309746,0
2311,0.0903230834084944,0
2312,0.010102482532123279,0
2313,0.038022186479028185,0
2314,-0.0407704026332764,0
2315,-0.028045735111072202,0
2316,0.036964049882023564,0
2317,1.305763997567777,0
2318,6.725051787176489,0
2319,0.4479908041292774,0
2320,-1.2270840480189755,0
2321,1.0236268253004885,0
2322,-0.38855780312031185,0
2323,0.3103757765857438,0
2324,0.04747507169195465,0
2325,0.06905730396829811,0
2326,0.12923076280525594,0
2327,0.027341520873245793,0
2328,0.12087575824320204,0
2329,0.035127153359697766,0
2330,0.06139177095200973,0
2331,0.02357476967460474,0
2332,-0.03702233621788295,0
2333,0.1303937157345613,0
2334,3.1532429486655267,0
2335,6.493586041560795,0
2336,-2.4247448099689985,0
2337,0.7894681109783327,0
2338,-0.21428416029098155,0
2339,0.10740014397726128,0
2340,-0.0065670618958343,0
2341,-0.03858782374758544,0
2342,0.10987892533898433,0
2343,0.08660999286683035,0
2344,0.07254018023997987,0
2345,0.010289056208042976,0
2346,0.08766534880755397,0
2347,0.03508768673917932,0
2348,0.11619303022048552,0
2349,-0.046712519610628576,0
2350,0.4112299171014121,0
2351,5.246244636358001,0
2352,4.080076750278391,0
2353,-2.8049311429800743,0
2354,1.6658018472779528,0
2355,-0.7007181258057453,0
2356,0.4315713132395235,0
2357,-0.07864433726963897,0
2358,0.06802158758776017,0
2359,0.09925216470652971,0
2360,-0.010533509997090424,0
2361,-0.05428031187621438,0
2362,-0.00036051662749429433,0
2363,-0.03133337513608629,0
2364,0.00090804466397079,0
2365,0.021270745222868565,0
2366,-0.0827161809899283,0
2367,1.3643297064016453,0
2368,6.789349734993657,0
2369,0.3986932535683945,0
2370,-1.2140168629752155,0
2371,0.9658157683668691,0
2372,-0.49237611203717513,0
2373,0.1922600830752324,0
2374,-0.11118121872029232,0
2375,0.023034089392513304,0
2376,0.08147111447312173,0
2377,0.08935718509629029,0
2378,-0.06612775833919965,0
2379,-0.012537482394685218,0
2380,-0.03900528367748523,0
2381,-0.0007684163812719854,0
2382,0.039905316936081126,0
2383,0.041715434423599415,0
2384,3.1506777607627114,0
2385,6.512041618885706,0
2386,-2.4223706091948056,0
2387,0.795885546013467,0
2388,-0.1900840729497819,0
2389,-0.02557218108109348,0
2390,-0.0008763404597756097,0
2391,-0.01861461452278896,0
2392,0.03775256785945564,0
2393,-0.048341980962434465,0
2394,0.00962478987693228,0
2395,0.01055824165629479,0
2396,0.05067741088746513,0
2397,0.02176000757818189,0
2398,0.014200497732197299,0
2399,0.12559274780386864,0
2400,0.43882771098443646,0
2401,5.16609396560244,0
2402,3.9383969600496385,0
2403,-2.8684161007595304,0
2404,1.696574915535764,0
2405,-0.8124168064962705,0
2406,0.3707319695665964,0
2407,-0.08644962633405795,0
2408,0.10668806084817059,0
2409,-0.09711135980727778,0
2410,0.06812865763525372,0
2411,0.04077167490108058,0
2412,0.025627752660041983,0
2413,0.011965224390416924,0
2414,-0.08564578857755717,0
2415,-0.012838370019681713,0
2416,-0.09397197405464489,0
2417,1.3493813208122492,0
2418,6.752187801745242,0
2419,0.3657972858696588,0
2420,-1.3325123245043093,0
2421,0.9408106893459901,0
2422,-0.5269192414491627,0
2423,0.06833689064674113,0
2424,-0.07422399011610485,0
2425,-0.010668275570602178,0
2426,-0.08911389638105552,0
2427,-0.05778284958689242,0
2428,-0.08000841168373433,0
2429,-0.07393730461356898,0
2430,-0.06556876767724543,0
2431,-0.05641989653247406,0
2432,-0.03517089484584687,0
2433,0.05373983122795528,0
2434,3.001159279646049,0
2435,6.567361200878624,0
2436,-2.5107734320215354,0
2437,0.7963140401399511,0
2438,-0.25581147083057315,0
2439,0.008442513847508791,0
2440,-0.1435477675564695,0
2441,-0.06082943878222695,0
2442,-0.04756471644213523,0
2443,-0.09528875635113931,0
2444,-0.025122383222954747,0
2445,0.011154806388889039,0
2446,-0.054684836285282284,0
2447,-0.06409061194516626,0
2448,0.03721834414678271,0
2449,-0.06767566824182904,0
2450,0.38787779073579054,0
2451,5.124461438691503,0
2452,3.9333111692910725,0
2453,-2.833541576308005,0
2454,1.6935699627272958,0
2455,-0.7644267316039867,0
2456,0.3646781657557805,0
2457,-0.2342821307601336,0
2458,0.03701222179894288,0
2459,-0.05359721781297532,0
2460,-0.05304586284464801,0
2461,-0.023994555703559656,0
2462,0.04522167074146893,0
2463,-0.02730140450206473,0
2464,0.0207890918426214,0
2465,-0.0505245190894754,0
2466,0.05612752413150455,0
2467,1.298337955443023,0
2468,6.7945661891518085,0
2469,0.4110275613124622,0
2470,-1.3137695558243754,0
2471,0.9127444988445509,0
2472,-0.4776056433124051,0
2473,0.16042851420881524,0
2474,-0.08014989900005402,0
2475,0.03541987879889113,0
2476,-0.08447854966332516,0
2477,-0.0024570836993458613,0
2478,-0.11541123824931078,0
2479,-0.15772115268815842,0
2480,0.000868209195639142,0
2481,0.046459570364064603,0
2482,-0.06201339922674461,0
2483,0.044389437444777434,0
2484,3.160079304824747,0
2485,6.536925449692256,0
2486,-2.569661650190591,0
2487,0.783829108916516,0
2488,-0.2984458399624936,0
2489,0.09835235853123703,0
2490,0.007553253237591449,0
2491,-0.06862067652863701,0
2492,-0.0808541649320384,0
2493,-0.054891993177630424,0
2494,-0.08555345539776897,0
2495,-0.06437333244043583,0
2496,0.021302745452310458,0
2497,-0.05975560061638373,0
2498,0.0052985132189109045,0
2499,0.03711647966703971,0
2500,0.38443226394020114,0
2501,5.236055773874336,0
2502,4.007762494271671,0
2503,-3.0020153291049354,0
2504,1.5922403022595242,0
2505,-0.7893777097751132,0
2506,0.30266019216534207,0
2507,-0.15355343203609131,0
2508,-0.022915455891157677,0
2509,-0.012919550056715329,0
2510,-0.04838596951060466,0
2511,-0.032539849934561695,0
2512,0.004997189303826404,0
2513,0.08177818002571215,0
2514,-0.05911361876491096,0
2515,-0.0067015032251786875,0
2516,-0.009235654914449354,0
2517,1.397435575218153,0
2518,6.702254586455041,0
2519,0.28724015867033104,0
2520,-1.2456849446682128,0
2521,0.945526057979326,0
2522,-0.34167190180386225,0
2523,0.23091508533185245,0
2524,-0.0015228513430475543,0
2525,0.04686993628237369,0
2526,0.07127263693318381,0
2527,0.016729078072143907,0
2528,-0.06955011066915548,0
2529,-0.04969388465660818,0
2530,-0.04680961841552256,0
2531,-0.04253628886253335,0
2532,0.02900009651341124,0
2533,0.0842994624988081,0
2534,3.1966710774017377,0
2535,6.3822137670503345,0
2536,-2.496798651117433,0
2537,0.7561575224882843,0
2538,-0.19633321495351932,0
2539,0.042574881912343626,0
2540,-0.09688185397645024,0
2541,0.03246674426828492,0
2542,-0.08066185346251864,0
2543,-0.03946186464414956,0
2544,-0.04454932728328146,0
2545,-0.0997955419232978,0
2546,-0.09693245892250366,0
2547,0.011186838604129917,0
2548,-0.054176129703804254,0
2549,-0.029969872858685992,0
2550,0.43837646577808,0
2551,5.245863051498671,0
2552,3.805831174913508,0
2553,-2.8161602845271694,0
2554,1.5021927282222445,0
2555,-0.822280551709367,0
2556,0.22348974156606133,0
2557,-0.14040743740568715,0
2558,-0.015013760936162976,0
2559,-0.03488839535611623,0
2560,-0.0071145308150363,0
2561,-0.029277970886706108,0
2562,0.04342556181778741,0
2563,0.040615362104485464,0
2564,-0.004472568330611687,0
2565,-0.00834482866941239,0
2566,-0.028634216044239436,0
2567,1.3977888650345007,0
2568,6.799612591582468,0
2569,0.270241853390322,0
2570,-1.3436614288408206,0
2571,0.9220564598742517,0
2572,-0.5132030925236281,0
2573,0.22854284854708,0
2574,-0.08721114102885758,0
2575,0.033100521335789036,0
2576,0.052556156075379085,0
2577,-0.07621895128756838,0
2578,0.005586717434804033,0
2579,-0.07431055885284532,0
2580,-0.05689159668426686,0
2581,0.0012566475183662757,0
2582,-0.029606016779705497,0
2583,-0.005598021140881537,0
2584,3.211785927483838,0
2585,6.517368813227156,0
2586,-2.4965843994606733,0
2587,0.8752355198585775,0
2588,-0.23906210098309993,0
2589,-0.01852780854147682,0
2590,-0.041196147452091755,0
2591,0.014408317588023035,0
2592,0.04030661081245811,0
2593,0.0009189359505333561,0
2594,0.021843035635253416,0
2595,0.02583827313658485,0
2596,-0.05526457933744273,0
2597,-0.07149775657072759,0
2598,0.00015277890829739835,0
2599,-0.08945672960808668,0
2600,0.36765676560242494,0
2601,5.3196039930637955,0
2602,3.821453377662631,0
2603,-2.829104991995591,0
2604,1.5332157484394682,0
2605,-0.818110412494851,0
2606,0.3551454841165232,0
2607,-0.20919170934613757,0
2608,0.10534490282338357,0
2609,-0.11320491054835666,0
2610,-0.08216467075150735,0
2611,0.11209136356264007,0
2612,0.07903676831900723,0
2613,0.01836252089522606,0
2614,-0.04435024690355356,0
2615,0.039353617124025166,0
2616,0.0007295605847125568,0
2617,1.366774750634942,0
2618,6.752362173901492,0
2619,0.23834413105181573,0
2620,-1.2151262252386663,0
2621,0.8812751112031687,0
2622,-0.5326392094821234,0
2623,0.1428662083982293,0
2624,-0.0339845182567957,0
2625,-0.1360239194072851,0
2626,-0.08314897494909496,0
2627,-0.0038599817750769594,0
2628,0.033386890552303594,0
2629,-0.1454634553472665,0
2630,-0.06692024179839628,0
2631,0.0830869018764395,0
2632,-0.06384749851410502,0
2633,0.0033944411416998305,0
2634,3.24989905842991,0
2635,6.448710028854577,0
2636,-2.612856493994912,0
2637,0.7426454115394514,0
2638,-0.2911676626404825,0
2639,-0.038476051354822766,0
2640,-0.1070186023819473,0
2641,-0.015271296116899072,0
2642,-0.04573514837521285,0
2643,-0.04797230673019996,0
2644,0.12327207158679805,0
2645,-0.0576682505628638,0
2646,0.09008218505810336,0
2647,-0.06618614891369073,0
2648,0.05357506744001569,0
2649,-0.07031698859472674,0
2650,0.47465202482621077,0
2651,5.312695157683216,0
2652,3.9522070393097164,0
2653,-2.8333800876173902,0
2654,1.556392173424022,0
2655,-0.7692851950984047,0
2656,0.3532397548562955,0
2657,-0.14955161710560072,0
2658,0.02499166434848688,0
2659,-0.019612813336709153,0
2660,0.043900498350342,0
2661,-0.008826817917782483,0
2662,-0.09975127122236013,0
2663,-0.00423941208282429,0
2664,-0.01975183701480038,0
2665,-0.004926821272464005,0
2666,-0.06733274639779467,0
2667,1.4175105943417425,0
2668,6.868188469703851,0
2669,0.32507665602858293,0
2670,-1.2208658360887412,0
2671,1.0434942121059645,0
2672,-0.4679244446050298,0
2673,0.24073853844612453,0
2674,-0.05162419850394386,0
2675,0.048486313332979675,0
2676,0.07345345103912747,0
2677,0.025851016400939814,0
2678,0.03985848796565884,0
2679,0.07730106040060158,0
2680,0.08700223187975963,0
2681,0.13370218149614305,0
2682,0.035713872177491564,0
2683,0.18792135218956174,0
2684,3.1747176792744884,0
2685,6.501196745482756,0
2686,-2.4932841848037857,0
2687,0.8655274507595435,0
2688,-0.2982198010521918,0
2689,0.10092479223337492,0
2690,-0.04056214362941169,0
2691,0.05217215488257128,0
2692,0.004871474647067463,0
2693,-0.04813761222331134,0
2694,-0.07738787370759168,0
2695,-0.040530085982544165,0
2696,-0.07145744379107961,0
2697,0.03150698554022949,0
2698,-0.0547553602490612,0
2699,-0.07161622778142265,0
2700,0.5428645432471972,0
2701,5.359049368218647,0
2702,3.8329768391891768,0
2703,-2.925085761208903,0
2704,1.5213368405100685,0
2705,-0.7957781770813196,0
2706,0.24405600622070234,0
2707,-0.17229439681359843,0
2708,0.03604242038655176,0
2709,-0.05834761324524376,0
2710,0.03878631351565097,0
2711,0.01643448875131706,0
2712,-0.06326535360685914,0
2713,-0.01902311425428634,0
2714,-0.04455377534272572,0
2715,0.0586624198061035,0
2716,0.0832943896839782,0
2717,1.458343036213705,0
2718,6.900802275516323,0
2719,0.33176556790073336,0
2720,-1.201842847961678,0
2721,0.9266365661335713,0
2722,-0.5097175537577623,0
2723,0.1854967579572257,0
2724,-0.09207434139069809,0
2725,-0.0285458541131791,0
2726,0.02823934204881796,0
2727,0.06315654777150279,0
2728,0.03287753766901452,0
2729,-0.06585776020679453,0
2730,-0.027147653822752745,0
2731,0.03474602780886913,0
2732,-0.028972552294141068,0
2733,0.06466714221559436,0
2734,3.1255209488768085,0
2735,6.438112653144673,0
2736,-2.5666362316567173,0
2737,1.0014256701779212,0
2738,-0.1100780348998692,0
2739,0.16315711882839093,0
2740,0.03491119680618613,0
2741,0.03246025427313165,0
2742,0.05030234630035941,0
2743,0.008508791121117645,0
2744,0.1756168367796111,0
2745,-0.00590263911587971,0
2746,0.12981328652645174,0
2747,0.10619882957183938,0
2748,0.02441715975192537,0
2749,-0.01573637237001957,0
2750,0.39179128502758714,0
2751,5.359900776363774,0
2752,3.837676971509736,0
2753,-2.853747284787194,0
2754,1.577558572419565,0
2755,-0.9194813470636707,0
2756,0.3250386954981906,0
2757,-0.09202122233944576,0
2758,0.014009215898063294,0
2759,0.0018625248935520249,0
2760,0.017971938741159637,0
2761,0.07677756143949623,0
2762,0.059580645358960516,0
2763,-0.08105791683284368,0
2764,0.05819754681472332,0
2765,-0.019901273403459478,0
2766,0.033739886249568786,0
2767,1.4214348545260262,0
2768,6.869745192366422,0
2769,0.21867933258117736,0
2770,-1.2750651389042702,0
2771,0.9089958707506839,0
2772,-0.4472834246900119,0
2773,0.21209359800428895,0
2774,-0.14644083395057764,0
2775,0.03815084101389027,0
2776,0.03465288267664887,0
2777,0.06894115222847269,0
2778,0.03813687120169446,0
2779,0.03077531487092345,0
2780,0.0640607623392348,0
2781,0.023153842469034527,0
2782,0.07953322718547241,0
2783,0.1142996723228203,0
2784,3.233932766490775,0
2785,6.4270128928682855,0
2786,-2.6262144410742514,0
2787,0.9114440621370776,0
2788,-0.3108718749056556,0
2789,0.04469953166187352,0
2790,-0.018762718643285527,0
2791,0.16269688828118814,0
2792,-0.004904519851267271,0
2793,-0.018151287216388423,0
2794,0.005947406884591888,0
2795,0.06903864805922758,0
2796,0.01027990938884244,0
2797,0.00471246905880062,0
2798,0.039559326339059675,0
2799,0.09069804860988338,0
2800,0.490369629827888,0
2801,5.376603951850826,0
2802,3.8829743902197222,0
2803,-2.910832433948599,0
2804,1.6926064469997675,0
2805,-0.7874604734443724,0
2806,0.26481477109217155,0
2807,-0.15698253272765433,0
2808,0.043373266143861965,0
2809,-0.015133662374601566,0
2810,0.028392090266117956,0
2811,-0.03384165228130704,0
2812,-0.009940340620876148,0
2813,-0.03724969176159191,0
2814,0.004649542208731452,0
2815,0.028542886151991912,0
2816,0.004674121307090459,0
2817,1.4561212003821138,0
2818,6.832206439825473,0
2819,0.1447810857455805,0
2820,-1.2124538167934453,0
2821,0.8475156327519544,0
2822,-0.4098963747032345,0
2823,0.24416354309495844,0
2824,-0.05398801319421195,0
2825,-0.01576371350689672,0
2826,0.0294801950063045,0
2827,0.0629903678409315,0
2828,0.02613588348770285,0
2829,-0.012575378326553279,0
2830,0.07241242638619111,0
2831,0.0015079867934906632,0
2832,0.04151881696305756,0
2833,0.0723014852619175,0
2834,3.315714494183662,0
2835,6.358992444243594,0
2836,-2.5292144987010734,0
2837,0.8756594288820693,0
2838,-0.23000236175464134,0
2839,0.12466181187939374,0
2840,-0.033833713027321716,0
2841,0.06307934635809784,0
2842,-0.08479795222788616,0
2843,0.008635175735879384,0
2844,0.09387714659379656,0
2845,0.10365793333791148,0
2846,-0.009899005472241963,0
2847,-0.009067905608510271,0
2848,-0.023700245434682833,0
2849,0.0282133200332775,0
2850,0.5021197730604291,0
2851,5.45523472654322,0
2852,3.897672143140516,0
2853,-2.6992132094157943,0
2854,1.6649285119968347,0
2855,-0.7691335166749709,0
2856,0.3645021419360726,0
2857,-0.053213090028308235,0
2858,0.08940072105468905,0
2859,0.027997400954962795,0
2860,0.0935912194213449,0
2861,-0.0787740163276708,0
2862,-0.04417963929540296,0
2863,0.04670599047378077,0
2864,-0.025529110251301064,0
2865,-0.09036274465181737,0
2866,-0.05427428291930925,0
2867,1.4162857024597222,0
2868,6.874208360221877,0
2869,0.17364534738265375,0
2870,-1.218999971033548,0
2871,0.8685667770769353,0
2872,-0.45652658931330947,0
2873,0.18120078682739937,0
2874,-0.0529366463766647,0
2875,-0.0014225262370650936,0
2876,0.07219694358602859,0
2877,-0.021396083959612656,0
2878,0.08059263130816743,0
2879,0.054009810509782895,0
2880,-0.01625703651094164,0
2881,0.05312339728729329,0
2882,0.05153301248432218,0
2883,0.06781569351764868,0
2884,3.2585617746477618,0
2885,6.482004705565624,0
2886,-2.4835122186772387,0
2887,0.9015620706555515,0
2888,-0.33834055034938765,0
2889,0.11856800021378008,0
2890,-0.03063148103434124,0
2891,0.05113639839209474,0
2892,-0.008049205479230664,0
2893,0.04115535084262046,0
2894,0.018262034360871225,0
2895,0.13750556998201593,0
2896,-0.0681131025089813,0
2897,-0.00104113791636345,0
2898,-0.03291550728509594,0
2899,0.06840471604144742,0
2900,0.5213068020829412,0
2901,5.404765811471041,0
2902,3.802366497304255,0
2903,-2.7879940787361583,0
2904,1.4789437112420187,0
2905,-0.6984115527878545,0
2906,0.38271900933184544,0
2907,-0.01171227910305317,0
2908,0.03045416908882915,0
2909,0.005079584678574273,0
2910,0.026454964539233485,0
2911,0.09918141021685922,0
2912,0.00527909542420041,0
2913,0.09582504115618153,0
2914,-0.10046866403331606,0
2915,0.04209274309087704,0
2916,-0.03457963602556111,0
2917,1.4712458874428338,0
2918,6.828397304561282,0
2919,0.07530466861088012,0
2920,-1.099383587732464,0
2921,0.8213978250400058,0
2922,-0.49177623619059685,0
2923,0.13347349728202196,0
2924,-0.1133945146693638,0
2925,0.028411700386030306,0
2926,-0.0014004464854762482,0
2927,-0.02390956115396933,0
2928,0.07178525692132892,0
2929,-0.0704207936702496,0
2930,0.03339687304808851,0
2931,0.06365251082560931,0
2932,0.054754359947486134,0
2933,0.02896273772713065,0
2934,3.2751175056605017,0
2935,6.331786353430436,0
2936,-2.6004164144982638,0
2937,0.8928391737584901,0
2938,-0.21982860188511755,0
2939,0.12633365490721496,0
2940,-0.08255708170916529,0
2941,-0.06401662361468485,0
2942,-0.018171963059953354,0
2943,-0.02168156111141952,0
2944,0.022040535486580765,0
2945,0.021036513676584948,0
2946,0.04061697076679451,0
2947,0.09605686153240967,0
2948,0.0254543088441127,0
2949,-0.006868169371955113,0
2950,0.41154312541614835,0
2951,5.486526768308018,0
2952,3.787111874161098,0
2953,-2.7622069534198723,0
2954,1.692474347438691,0
2955,-0.6651131383358762,0
2956,0.4541583818013323,0
2957,-0.06550542427074402,0
2958,0.07803022535126869,0
2959,0.11003878696548772,0
2960,0.11676175675331069,0
2961,0.09722712464218089,0
2962,-0.008082013656350258,0
2963,0.06432581220286254,0
2964,-0.04762670031659826,0
2965,0.07451938223446203,0
2966,-0.06365830788615524,0
2967,1.5880488883368185,0
2968,6.92446910790332,0
2969,0.13236078078944533,0
2970,-1.1282125046833285,0
2971,0.8981861056247327,0
2972,-0.42959918684824666,0
2973,0.19860747276039545,0
2974,-0.023653825246779878,0
2975,-0.0028199113176320123,0
2976,0.07087237080287553,0
2977,0.04167239245372122,0
2978,0.06359342911248167,0
2979,0.003297485346026311,0
2980,0.09075790647666682,0
2981,0.10877758826840508,0
2982,-0.002091871573763726,0
2983,0.07573652814995849,0
2984,3.2708329100286893,0
2985,6.4165141424095555,0
2986,-2.4981506273944523,0
2987,1.0345069625683692,0
2988,-0.2061792637680245,0
2989,0.06014325898724898,0
2990,0.04450235473025936,0
2991,0.0536726853032129,0
2992,0.048351598591409604,0
2993,0.058015411543101296,0
2994,0.016147617077980563,0
2995,0.03595968149831939,0
2996,-0.0011840916789359543,0
2997,0.02658167283110719,0
2998,0.0982083340431443,0
2999,-0.042230248207122296,0
3000,0.5465873264425755,0
3001,5.375400677379858,0
3002,3.7327327035635007,0
3003,-2.7720552500896316,0
3004,1.5682536239686014,0
3005,-0.8156321823403431,0
3006,0.3689991240711938,0
3007,-0.07537124675649365,0
3008,0.07623493473328025,0
3009,-0.051346522928995844,0
3010,-0.00663332355967469,0
3011,-4.579902387430966e-05,0
3012,0.04358245109448426,0
3013,0.016285343840424044,0
3014,0.03782802660166205,0
3015,0.07779099841198847,0
3016,0.035360686503437405,0
3017,1.5659521707829442,0
3018,6.954456533799659,0
3019,0.08083934404254646,0
3020,-0.9867163232074455,0
3021,0.9725468523382295,0
3022,-0.33783159755116876,0
3023,0.2481926371804882,0
3024,0.041597615896866176,0
3025,0.1303259023022062,0
3026,0.14850711438730574,0
3027,-0.016000525146083758,0
3028,0.05969181873133637,0
3029,0.06687753671785636,0
3030,0.09018380479613505,0
3031,0.025935181906873085,0
3032,0.10034564889356172,0
3033,0.10841516023780973,0
3034,3.3349155065224507,0
3035,6.303928609623648,0
3036,-2.5247112042899618,0
3037,0.9671815030047647,0
3038,-0.25359550804223824,0
3039,0.18308568914773327,0
3040,-0.04651673924214115,0
3041,0.08262784280407079,0
3042,0.08040432748373692,0
3043,-0.006059913667558613,0
3044,0.06878237609021423,0
3045,0.07834453205793647,0
3046,0.10063441972262564,0
3047,0.035348542323932405,0
3048,0.09712315255012391,0
3049,0.061229282095608545,0
3050,0.5728778080203656,0
3051,5.489700302854072,0
3052,3.824066784598815,0
3053,-2.686462225706158,0
3054,1.7738017714232535,0
3055,-0.787857929746182,0
3056,0.4457806338285474,0
3057,-0.09554973787580512,0
3058,0.15980675861252058,0
3059,0.0989322444748374,0
3060,0.03415172308367341,0
3061,0.07313361565473632,0
3062,-0.043926101281035676,0
3063,0.12676760023949782,0
3064,0.07533165541496216,0
3065,-0.006326258403296502,0
3066,0.054708689024126164,0
3067,1.5293838523100036,0
3068,6.929103631850977,0
3069,0.14673498062671775,0
3070,-1.1212879077925628,0
3071,0.9168731907705517,0
3072,-0.3725099547182379,0
3073,0.1767853286833545,0
3074,0.02507872817983712,0
3075,0.13758288403814342,0
3076,0.03449168131729122,0
3077,0.0030001995314754004,0
3078,-0.01126233014175164,0
3079,0.09340742320542993,0
3080,0.061558306406284,0
3081,0.09438765222981359,0
3082,0.09819069987432125,0
3083,0.144409507053388,0
3084,3.511856897104705,0
3085,6.464894526318147,0
3086,-2.4518006838433184,0
3087,1.0067201045385494,0
3088,-0.19858610591891407,0
3089,0.1839891046414621,0
3090,0.0142692705180162,0
3091,0.18963529294952824,0
3092,0.10214925480152877,0
3093,0.10987714907349891,0
3094,0.14390608550814787,0
3095,0.0438782752183653,0
3096,0.05301711053573538,0
3097,0.05062496700859994,0
3098,0.02751135944398647,0
3099,0.09696602914695766,0
3100,0.4751331031481157,0
3101,5.414712744601715,0
3102,3.7447274886838002,0
3103,-2.709586962901406,0
3104,1.5739507872663974,0
3105,-0.6908773297355472,0
3106,0.3175877776631807,0
3107,-0.055410777965942556,0
3108,0.04834064106413487,0
3109,-0.02652530155535332,0
3110,0.044470982613979915,0
3111,0.12725223099237637,0
3112,0.07206489261744556,0
3113,0.05308302360694721,0
3114,0.09543298209739681,0
3115,0.028569584811049077,0
3116,0.0695311777232772,0
3117,1.5863746354028472,0
3118,6.950143884969615,0
3119,0.1380388016807138,0
3120,-1.0450419298665368,0
3121,0.9356316189091225,0
3122,-0.36942711928571187,0
3123,0.27275721496765476,0
3124,-0.00955566513902182,0
3125,0.10859109829056504,0
3126,0.018691086975448107,0
3127,0.06754461576535335,0
3128,0.04875399782493928,0
3129,0.03844951110359611,0
3130,0.021644553008328474,0
3131,0.08733314776431579,0
3132,0.08767568369913856,0
3133,0.1272349417842124,0
3134,3.3779017641079387,0
3135,6.422232250792024,0
3136,-2.5186319200600624,0
3137,0.9716030239526549,0
3138,-0.12594998951108594,0
3139,0.0745997086886912,0
3140,0.07118272900399977,0
3141,0.1110899800703976,0
3142,-0.0178794772090919,0
3143,0.012609657534831877,0
3144,-0.02364256024230736,0
3145,0.026814320952136202,0
3146,0.05126758262444618,0
3147,-0.07159544935421967,0
3148,0.045445848127154645,0
3149,0.019645811154630752,0
3150,0.4609943259025556,0
3151,5.440265389976025,0
3152,3.6316100445204413,0
3153,-2.803857521482042,0
3154,1.5840083660716042,0
3155,-0.8118327955135718,0
3156,0.44970290474180685,0
3157,-0.10768403094442494,0
3158,0.10918957827964348,0
3159,0.1665069356518879,0
3160,0.13633759676703194,0
3161,0.044372528479321424,0
3162,0.05132598438445355,0
3163,0.11867506740941389,0
3164,0.11503515801094408,0
3165,0.11831684598759916,0
3166,0.23273091565061113,0
3167,1.6277070835883471,0
3168,7.02647918486817,0
3169,0.09034996876594151,0
3170,-1.076803617894945,0
3171,1.0243970031495628,0
3172,-0.33113634997121216,0
3173,0.33733777807021686,0
3174,-0.058685175980375925,0
3175,0.07597189161356305,0
3176,0.0640055204425328,0
3177,0.01300918024817796,0
3178,0.08302492462884956,0
3179,0.06344289737255826,0
3180,0.029608174915146085,0
3181,0.044522853789292854,0
3182,0.04466018765898058,0
3183,0.11330680946362709,0
3184,3.400597279134955,0
3185,6.34633941812819,0
3186,-2.5784501605508225,0
3187,1.0862733558101565,0
3188,-0.25907450895309053,0
3189,0.14351907504593409,0
3190,0.0655060853814885,0
3191,0.04344108049529738,0
3192,0.01188863987208907,0
3193,-0.03770914351324522,0
3194,0.07806450341400288,0
3195,0.057667165003812346,0
3196,-0.01882413998053907,0
3197,0.07838014519574792,0
3198,0.0734073825736771,0
3199,0.020715611687466957,0
3200,0.4974168336971622,0
3201,5.566941771581084,0
3202,3.6610518164878414,0
3203,-2.699055269193837,0
3204,1.626072409193043,0
3205,-0.7354784214014423,0
3206,0.47116424060569584,0
3207,-0.12287677607912131,0
3208,0.03723937055971083,0
3209,-0.025677534654721834,0
3210,0.02157734921275318,0
3211,-0.01917880503879239,0
3212,-0.007915315876323513,0
3213,-0.018188099233529154,0
3214,0.09479435360617447,0
3215,0.046696844274505975,0
3216,0.013556097587536686,0
3217,1.5515131501259423,0
3218,6.896436446393964,0
3219,0.008838328509206274,0
3220,-1.1139777206029393,0
3221,0.8782275661048392,0
3222,-0.3517280980269114,0
3223,0.1850171598726647,0
3224,-0.04548412856345735,0
3225,0.06600515242153372,0
3226,0.19347305971653933,0
3227,0.006041590382180773,0
3228,0.05583551005545334,0
3229,0.04331469004972083,0
3230,0.044028111140312645,0
3231,0.06370107179263158,0
3232,0.046990333261981286,0
3233,0.1864381272212184,0
3234,3.4259549481226284,0
3235,6.360271368137416,0
3236,-2.6024733498148587,0
3237,0.9763036389895374,0
3238,-0.31236532128888955,0
3239,-0.0323571789644999,0
3240,-0.016644399493776055,0
3241,0.12135019660420374,0
3242,0.05438714321408421,0
3243,0.005844799658320179,0
3244,0.01402058565990838,0
3245,-0.028249897981711757,0
3246,-0.04602343099915915,0
3247,0.043101045967719555,0
3248,0.02091584362080979,0
3249,-0.09129736201297442,0
3250,0.6420106956474467,0
3251,5.4665803073397115,0
3252,3.657820064849423,0
3253,-2.8149898516603375,0
3254,1.5620648622208697,0
3255,-0.788920575107061,0
3256,0.39934435584615724,0
3257,-0.0766842583778393,0
3258,-0.030350021044050615,0
3259,0.021509690739464096,0
3260,0.030353663664291347,0
3261,0.02455373498107544,0
3262,-0.010744465023053333,0
3263,0.11125893233817605,0
3264,0.03207852679654,0
3265,0.024687384463315563,0
3266,0.16730426235804133,0
3267,1.561615491234796,0
3268,6.970475499662105,0
3269,0.06796241347754774,0
3270,-0.9723225144891297,0
3271,0.848695456294824,0
3272,-0.32996692059910565,0
3273,0.28558992497005553,0
3274,0.05428396106024632,0
3275,0.11320099075055548,0
3276,0.07640516615506736,0
3277,0.03384058458445292,0
3278,0.07997348251381825,0
3279,0.07850153272689393,0
3280,0.05838137818443814,0
3281,0.05397709631228874,0
3282,0.03351274627392097,0
3283,0.14216986084043085,0
3284,3.3468881824575285,0
3285,6.358422571620337,0
3286,-2.750870593475546,0
3287,0.8551083665025133,0
3288,-0.36749665178338575,0
3289,0.08112848319537214,0
3290,-0.035852316110674784,0
3291,0.04469569478332229,0
3292,-0.0130939384519153,0
3293,0.053746232575402744,0
3294,-0.11034636593052302,0
3295,0.05510148074964629,0
3296,0.00844236918279974,0
3297,-0.03671101831321056,0
3298,-0.027471763789343746,0
3299,-0.02432686819406181,0
3300,0.457798094898836,0
3301,5.453826700739099,0
3302,3.6318064760535176,0
3303,-2.7899649784539573,0
3304,1.5570608708603193,0
3305,-0.8115933351435247,0
3306,0.34450792195508373,0
3307,-0.1181887090676155,0
3308,0.08411828013959372,0
3309,-0.006627583240292603,0
3310,0.024935781495571307,0
3311,-0.04599342879687196,0
3312,0.07787474241353054,0
3313,-0.012089071373893166,0
3314,-0.06922913409756933,0
3315,-0.02375989223718808,0
3316,0.056690178439169854,0
3317,1.5389987239202332,0
3318,6.861639278818458,0
3319,0.023018350620669238,0
3320,-1.1350256327317758,0
3321,0.7672536321795104,0
3322,-0.4170622421056345,0
3323,0.1483780629552131,0
3324,-0.03479612044174732,0
3325,0.06331704506317695,0
3326,0.11297434278590666,0
3327,-0.05692633053534177,0
3328,0.11436084143002162,0
3329,0.021527544832388876,0
3330,-0.05591044994786055,0
3331,0.038647149601947796,0
3332,-0.010152351838700968,0
3333,0.13062326240554684,0
3334,3.335562470478843,0
3335,6.314122634538099,0
3336,-2.623515794725489,0
3337,0.9267450809052477,0
3338,-0.40503817951279353,0
3339,0.028544574594033388,0
3340,-0.06646648278283886,0
3341,-0.04209935612614002,0
3342,-0.07759353213041167,0
3343,-0.018666350572080312,0
3344,-0.07292852760338674,0
3345,0.07445263151459212,0
3346,-0.0036665620040905473,0
3347,0.0003394438401517468,0
3348,0.09202014123500872,0
3349,-0.06547484659980113,0
3350,0.5106150753777997,0
3351,5.506144232213646,0
3352,3.618343135831202,0
3353,-2.7672290294029973,0
3354,1.5715210285964203,0
3355,-0.7684050584719939,0
3356,0.3121600987782082,0
3357,0.014769382719776916,0
3358,0.04236664073860362,0
3359,0.004913158399360851,0
3360,0.07838774328797457,0
3361,0.08054984469962131,0
3362,-0.0134711386602629,0
3363,0.009437248652843969,0
3364,0.041793369956763415,0
3365,0.08457079805987135,0
3366,-0.011459751481468855,0
3367,1.5325992360188736,0
3368,6.955951293412097,0
3369,0.05130444091596785,0
3370,-0.9475509825289186,0
3371,0.8520481167075497,0
3372,-0.3605776555031473,0
3373,0.2147558425084058,0
3374,-0.05951252315423874,0
3375,-0.035291285242143824,0
3376,-0.012596896834237085,0
3377,0.05260189367376564,0
3378,-0.039963442158134015,0
3379,0.03093352435929993,0
3380,0.06813557918016878,0
3381,-0.017534073290156715,0
3382,0.026298354408474195,0
3383,0.2016694033931989,0
3384,3.4658003528461423,0
3385,6.312586106660697,0
3386,-2.731841133394777,0
3387,0.9660081260813556,0
3388,-0.3305849694412971,0
3389,0.13765675568933453,0
3390,0.020368887674425108,0
3391,0.09752854292771472,0
3392,0.07862108594774006,0
3393,0.1631040843084035,0
3394,0.0360099857149817,0
3395,0.14844017840561324,0
3396,-0.01058261633303284,0
3397,0.07968134999116729,0
3398,0.0746663112409716,0
3399,0.10044514907758581,0
3400,0.6480522406159694,0
3401,5.647134689590916,0
3402,3.6380923800519858,0
3403,-2.69984224631204,0
3404,1.7088894106527008,0
3405,-0.8880684063713984,0
3406,0.3376864753904828,0
3407,-0.051002126146062386,0
3408,0.10319911422942915,0
3409,0.09155133221434535,0
3410,-0.01770986238054157,0
3411,0.1601960111345482,0
3412,0.07641046976178986,0
3413,-0.02129280468310455,0
3414,0.07642007976482364,0
3415,0.09093108688861185,0
3416,0.04133095370071673,0
3417,1.5807976053419428,0
3418,6.952806646058397,0
3419,0.02856794871941245,0
3420,-0.934745257675012,0
3421,0.8120388307087065,0
3422,-0.34970190739893103,0
3423,0.1971489486565629,0
3424,-0.051150009087394185,0
3425,0.02058477416282803,0
3426,0.01110888101072359,0
3427,0.047754028513744114,0
3428,0.015583738717576456,0
3429,0.076655582446234,0
3430,0.056731858679871856,0
3431,0.03013067097211733,0
3432,0.10125640334498286,0
3433,0.22474054334172716,0
3434,3.4614571473372355,0
3435,6.296780113971972,0
3436,-2.6584937821878682,0
3437,1.0949748678045266,0
3438,-0.22121252664036684,0
3439,0.05142023134283785,0
3440,0.07026424625681782,0
3441,0.09495877186510318,0
3442,0.0768519478739595,0
3443,-0.03619433941557183,0
3444,0.046927601335853955,0
3445,0.08520036069766669,0
3446,0.03655501370804126,0
3447,0.1048746431476601,0
3448,0.04984266844029765,0
3449,0.05677932326298534,0
3450,0.6064445626898343,0
3451,5.601218945872248,0
3452,3.5987077627634827,0
3453,-2.6807429746255926,0
3454,1.6182912833586955,0
3455,-0.7366002969010428,0
3456,0.28842135964438753,0
3457,-0.012690176364533644,0
3458,0.1501486224877277,0
3459,0.047440681934559,0
3460,0.07393503558617867,0
3461,0.0662274399439464,0
3462,0.049724782070467904,0
3463,0.11571532407846491,0
3464,-0.019038304479361848,0
3465,0.045117430417575134,0
3466,0.06546331339138263,0
3467,1.622922050034793,0
3468,6.986978697411335,0
3469,0.0027446723550006644,0
3470,-0.8823235801175078,0
3471,0.8996480219869568,0
3472,-0.37008583068428647,0
3473,0.2974523354200935,0
3474,0.013332111420731763,0
3475,0.09693889704857986,0
3476,0.18026025562536324,0
3477,0.20451451707109855,0
3478,0.147577977514963,0
3479,0.15867175971645103,0
3480,0.12866809605487012,0
3481,0.05191244065203658,0
3482,0.14405743531743945,0
3483,0.16119332727979196,0
3484,3.569930132967425,0
3485,6.292340203960906,0
3486,-2.5557771798091453,0
3487,1.1798867963462583,0
3488,-0.2501469407867915,0
3489,0.09458497723755943,0
3490,0.09298151942391361,0
3491,0.040623223256975885,0
3492,-0.009288830646929577,0
3493,6.451823761161046e-05,0
3494,0.08957105645278395,0
3495,0.10641084607504016,0
3496,0.04628872986566423,0
3497,0.01606100154038957,0
3498,0.08624875143746505,0
3499,0.02857808483093647,0
3500,0.6623854921771611,0
3501,5.515967173692476,0
3502,3.574710784321329,0
3503,-2.6293938020974057,0
3504,1.6920185979304423,0
3505,-0.8068568684339792,0
3506,0.4059703172599149,0
3507,-0.0791855707112617,0
3508,0.1289047923405714,0
3509,0.03704800863940308,0
3510,0.1507728114080071,0
3511,0.08717588507755569,0
3512,0.11776361226922828,0
3513,0.09151064137631029,0
3514,0.016349224124082476,0
3515,0.10700642087315312,0
3516,0.14384009263327158,0
3517,1.6898107018757047,0
3518,7.024027452179239,0
3519,-0.01543403481872133,0
3520,-0.9730548199876641,0
3521,0.9144079815711303,0
3522,-0.2955233613492475,0
3523,0.20419418261268937,0
3524,0.03329261151266478,0
3525,0.11628555367284507,0
3526,0.01557179688314931,0
3527,0.05797924139987342,0
3528,0.054372815501834745,0
3529,0.042817086353657746,0
3530,0.024704506667157514,0
3531,0.07927928046823346,0
3532,0.07176221036258691,0
3533,0.024406110202730646,0
3534,3.4795889955187382,0
3535,6.365180129324275,0
3536,-2.712971268229754,0
3537,1.0785945007441722,0
3538,-0.302953500994837,0
3539,0.05137678715908328,0
3540,-0.016332603209400793,0
3541,0.012343087782301601,0
3542,0.03126135546275097,0
3543,0.10505055570199726,0
3544,0.0007624989201952849,0
3545,0.03156859770477226,0
3546,-0.007395378629089858,0
3547,0.03756759772191531,0
3548,0.051829355563450676,0
3549,-0.08672205207681923,0
3550,0.5228025402822288,0
3551,5.580565052068695,0
3552,3.5435046849040854,0
3553,-2.6685659967766244,0
3554,1.605758979272408,0
3555,0.2676139640356069,1
3556,-0.020164043840502983,1
3557,0.03794173747263527,1
3558,-1.9091764372326439,1
3559,-0.13612833611676667,1
3560,-0.023805636033675283,1
3561,-0.0065191922777469505,1
3562,-2.02126227043954,1
3563,-0.0432570079673161,1
3564,-0.06995243979361604,1
3565,0.09761049129862487,1
3566,1.5461571762331034,1
3567,-0.0042882865268272854,1
3568,-0.07705110774286372,1
3569,1.092015563960434,1
3570,0.057092694641048825,1
3571,0.061642690319163494,1
3572,0.012155866281936229,1
3573,4.713855045718444,1
3574,-0.589869697505252,1
3575,0.014506890819125236,1
3576,-0.05878439285514888,1
3577,6.902500625241907,1
3578,0.3662195270514099,1
3579,-0.10507405362315854,1
3580,0.0788035067838291,1
3581,1.318808654187661,1
3582,-0.05815201671830928,1
3583,-0.061413698641566705,1
3584,-0.014349823625804673,1
3585,-2.995613409070268,1
3586,-0.15573436574950936,1
3587,-0.032351827004840315,1
3588,-0.13543840346549715,1
3589,0.22332347354270904,1
3590,-0.08866777262264283,1
3591,-0.035403489272074005,1
3592,0.1862674245313976,1
3593,1.2184599874383222,1
3594,-0.040515951241791276,1
3595,-0.13409668367805624,1
3596,2.513879647026875,1
3597,-0.7305073772806796,1
3598,-0.06111281400347055,1
3599,-0.07361900486235085,1
3600,6.447364889929501,1
3601,-0.14401119281437597,1
3602,0.004202830441485526,1
3603,0.0034218226244843095,1
3604,4.758011730016483,1
3605,0.18291871162129683,1
3606,-0.029902458002964313,1
3607,-0.019800331292483868,1
3608,-2.022950775685551,1
3609,-0.24224692458227182,1
3610,-0.06808865798250929,1
3611,-0.00383734724308318,1
3612,-1.7881961770122654,1
3613,-0.05471421816268161,1
3614,-0.08100768523274766,1
3615,-0.009404355922236738,1
3616,1.5119935207316846,1
3617,-0.028650963633447765,1
3618,-0.012474873649453575,1
3619,1.0782341120781438,1
3620,0.15886943996389127,1
3621,0.020836309843288152,1
3622,0.0028032657526399843,1
3623,4.764708581147374,1
3624,-0.4895200532541137,1
3625,0.037873480637712426,1
3626,0.025565735936595658,1
3627,6.828385441802799,1
3628,0.39210189500117393,1
3629,0.026544401196360944,1
3630,0.0050228358833212285,1
3631,1.168203151322069,1
3632,0.01985823423744986,1
3633,0.03402124303349262,1
3634,0.04445500755205248,1
3635,-3.045731198964196,1
3636,-0.041750358370217115,1
3637,-0.020265858957314902,1
3638,0.056705478580023824,1
3639,0.4886938744357437,1
3640,-0.028505561961639735,1
3641,0.05393490782212927,1
3642,0.33560510971310364,1
3643,1.1930426264611276,1
3644,-0.028039256455562118,1
3645,0.03875454969089046,1
3646,2.7570036059492544,1
3647,-0.6916457240545317,1
3648,-0.06755500403725001,1
3649,-0.044859548709346206,1
3650,6.666505273046594,1
3651,-0.11256831927348235,1
3652,0.015460360520442695,1
3653,-0.045921977074885115,1
3654,4.696608836737334,1
3655,-0.7469078654309206,0
3656,0.3885599735386579,0
3657,-0.11127836553119524,0
3658,-0.031051593541649186,0
3659,-0.03645598100731386,0
3660,-0.02622110760499663,0
3661,0.006078501473611789,0
3662,-0.0760498891750662,0
3663,-0.057314143723293326,0
3664,-0.10413444298556249,0
3665,-0.008648724353058253,0
3666,-0.045214486838471166,0
3667,1.5481043645014576,0
3668,6.874400072869309,0
3669,-0.3044977373668748,0
3670,-0.9676722004313566,0
3671,0.767767626423585,0
3672,-0.43894174946160364,0
3673,0.12101516492617484,0
3674,-0.09420374259002012,0
3675,-0.024212638280134213,0
3676,-0.12043558148015131,0
3677,-0.03988395507621715,0
3678,-0.03712365222206547,0
3679,-0.013640161475739754,0
3680,-0.05014573980427948,0
3681,-0.054351678431117954,0
3682,-0.04289352306373568,0
3683,0.1022216253678051,0
3684,3.4690487462900723,0
3685,6.2661514195725125,0
3686,-2.7192118409314445,0
3687,1.102365770292071,0
3688,-0.3664335873543366,0
3689,0.11537568543548425,0
3690,-0.024750429196908452,0
3691,0.0212781659456877,0
3692,0.03073224190225069,0
3693,0.08601970462299724,0
3694,-0.010175286988856133,0
3695,-0.03402958502475578,0
3696,0.07207484976716111,0
3697,0.003899247765332084,0
3698,0.11139006600973793,0
3699,0.05170124715701649,0
3700,0.5888023506652419,0
3701,5.659107410453176,0
3702,3.4171197414259082,0
3703,-2.660217660348489,0
3704,1.6320976246782766,0
3705,-0.7713018130100433,0
3706,0.3327967748725194,0
3707,-0.113399563109798,0
3708,-0.0016326611201045102,0
3709,-0.02486645955937483,0
3710,0.005434436580084864,0
3711,-0.06589577792371458,0
3712,-0.07654241079038118,0
3713,-0.11070097216160125,0
3714,0.03982538469300689,0
3715,0.03325630936988527,0
3716,-0.008266444159713239,0
3717,1.6486774890832687,0
3718,6.870634648076506,0
3719,-0.0691567761746181,0
3720,-0.9403956646765727,0
3721,0.7755740216585257,0
3722,-0.3503148118365863,0
3723,0.15988239082938563,0
3724,-0.06534327257374689,0
3725,0.12814232328226954,0
3726,0.009867749770129948,0
3727,0.11590776247606616,0
3728,0.013304862874429411,0
3729,-0.02380026167945342,0
3730,0.08478010767983468,0
3731,0.07735860632669456,0
3732,-0.01577704797249408,0
3733,0.21774734268554014,0
3734,3.5599429002233727,0
3735,6.232369768723425,0
3736,-2.6476863447259813,0
3737,1.0924107021612437,0
3738,-0.34945562094661464,0
3739,0.1303640312797162,0
3740,-0.03167020016525019,0
3741,0.03013901277545284,0
3742,0.045880361287881775,0
3743,0.08000512010068012,0
3744,0.14527061510077785,0
3745,0.050853781437243756,0
3746,0.01477692764005431,0
3747,0.09845406094838291,0
3748,0.105867726901323,0
3749,0.06511248165926348,0
3750,0.6751708527689289,0
3751,5.641366168940031,0
3752,3.4861746549332704,0
3753,-2.6437469847789137,0
3754,1.5369973337367506,0
3755,-0.7630203528228575,0
3756,0.4107625996266444,0
3757,-0.09981232154782609,0
3758,0.07298296478998285,0
3759,0.07988612190296497,0
3760,0.07154835049039462,0
3761,0.06580415111115884,0
3762,-0.019316925135150077,0
3763,0.0016700588856836812,0
3764,0.11279337847233105,0
3765,0.04612677167718297,0
3766,0.06022905954379266,0
3767,1.7323876140962313,0
3768,6.913372965972045,0
3769,-0.1880757532237638,0
3770,-0.8087083416569514,0
3771,0.8741960236229944,0
3772,-0.28807073193432264,0
3773,0.25398483310411873,0
3774,0.0159406875424802,0
3775,-0.021497319949781296,0
3776,0.11010474684433896,0
3777,0.04586333466239101,0
3778,0.001028631088342176,0
3779,0.12665835997978678,0
3780,0.1100045570379502,0
3781,-0.007512310667972422,0
3782,0.13505941465810947,0
3783,0.05290267438902786,0
3784,3.5412730885869346,0
3785,6.1661353774801855,0
3786,-2.7108415411862072,0
3787,1.0806018758407907,0
3788,-0.35617439270771734,0
3789,0.19606146141559536,0
3790,0.023819579280989607,0
3791,0.05992365305022536,0
3792,-0.05859996940378319,0
3793,0.06024864209411766,0
3794,0.01030521016685804,0
3795,0.06597187092301485,0
3796,0.029530116102818735,0
3797,0.05719020537175279,0
3798,0.08549030844163426,0
3799,0.10920317849234895,0
3800,0.5257704030469159,0
3801,5.616648608874041,0
3802,3.3896903400101905,0
3803,-2.5859727038296256,0
3804,1.6217834776984177,0
3805,-0.7624781844080583,0
3806,0.47978300140313507,0
3807,-0.019670670360452933,0
3808,0.060779865979287,0
3809,-0.0018539256965948644,0
3810,-0.057938379475303975,0
3811,-0.02927716538607434,0
3812,-0.028482045821428555,0
3813,0.013453829200195024,0
3814,0.033004886756640345,0
3815,-0.056839550281452295,0
3816,0.10691105394324489,0
3817,1.6628884863476818,0
3818,7.044303352458887,0
3819,-0.26110818564778016,0
3820,-0.8432415191607634,0
3821,0.7583339100180619,0
3822,-0.2769754862536376,0
3823,0.22465781474984292,0
3824,0.09494866865231505,0
3825,0.1326427432291224,0
3826,0.1102195389234988,0
3827,0.020011472416750054,0
3828,0.06658489343873444,0
3829,0.027473282929739523,0
3830,0.08777608769702583,0
3831,-0.03823718688366047,0
3832,0.03983500796777176,0
3833,0.0937693334498437,0
3834,3.4914044363702716,0
3835,6.223731316903742,0
3836,-2.7917718089108434,0
3837,1.0537598350147472,0
3838,-0.42881973317069205,0
3839,0.05591037732967991,0
3840,-0.018483347219619785,0
3841,0.05321977404123805,0
3842,-0.07802327928981362,0
3843,-0.06774603805828826,0
3844,-0.03807579436593326,0
3845,0.030654522133071772,0
3846,-0.07360407083737641,0
3847,-0.06089926066645636,0
3848,0.014606819281614301,0
3849,-0.014227877815512824,0
3850,0.49759640541170397,0
3851,5.613860795462406,0
3852,3.4111715621842142,0
3853,-2.7300730734214698,0
3854,1.6015830976719234,0
3855,-0.8028354634212671,0
3856,0.43468628271365234,0
3857,-0.03365992379225634,0
3858,-0.010862490201881694,0
3859,-0.024523107863562994,0
3860,0.01353294389272132,0
3861,0.009752964629831905,0
3862,-0.016142305223433684,0
3863,-0.014400755883816702,0
3864,-0.008229214285117699,0
3865,-0.0726636681283784,0
3866,-0.06748142481642175,0
3867,1.6536814793871144,0
3868,6.925832504724785,0
3869,-0.24110943612660024,0
3870,-0.904505792746273,0
3871,0.6965287014597337,0
3872,-0.44755674442873883,0
3873,0.157368380165033,0
3874,0.03483527557900364,0
3875,-0.06749976597947731,0
3876,-0.0012958790617635923,0
3877,-0.022024038152082134,0
3878,-0.03555941165612088,0
3879,0.02053204737797046,0
3880,-0.030159172775534777,0
3881,0.042665873285023914,0
3882,0.0373813495847555,0
3883,0.08969248901391808,0
3884,3.5218927542593947,0
3885,6.229644366116134,0
3886,-2.7410168861058226,0
3887,1.1003071606377022,0
3888,-0.39370215324530183,0
3889,0.19334126990338846,0
3890,-0.07829457570971385,0
3891,-0.0018766418542182015,0
3892,0.03195637204294444,0
3893,-0.006238858254176817,0
3894,-0.062347918930450295,0
3895,0.0049437626596327555,0
3896,-0.09547753240888737,0
3897,0.010984158927560333,0
3898,0.02823307070469746,0
3899,0.08767544465130643,0
3900,0.5462666633224319,0
3901,5.680851534545701,0
3902,3.370267758988327,0
3903,-2.6814550666677084,0
3904,1.4793018873535535,0
3905,-0.7940027201423221,0
3906,0.3547318478469095,0
3907,-0.09686950642716717,0
3908,0.009043201055323507,0
3909,-0.025131865379672456,0
3910,0.038181785875055725,0
3911,0.02281863667345574,0
3912,0.02786047776419362,0
3913,-0.03117318580147388,0
3914,0.006471435880983511,0
3915,-0.0347651365180617,0
3916,-0.024112534363701782,0
3917,1.638766526580213,0
3918,6.890381349682395,0
3919,-0.2922189488334969,0
3920,-0.8981691875436799,0
3921,0.7299867487252202,0
3922,-0.3095932031165416,0
3923,0.17594823655001285,0
3924,-0.032148833941245215,0
3925,0.05680498312307591,0
3926,0.015178988223002536,0
3927,0.09565063753794582,0
3928,-0.05961894480922137,0
3929,0.06777780942454413,0
3930,-0.0025971608714330362,0
3931,-0.045942018185085955,0
3932,-0.018706370847699265,0
3933,0.20350850740232013,0
3934,3.397032782466272,0
3935,6.06758656155855,0
3936,-2.839265305268114,0
3937,1.0488609840550265,0
3938,-0.4386673095450964,0
3939,0.20317591524960218,0
3940,-0.17921500839894666,0
3941,-0.013755401826470882,0
3942,-0.025220346099129494,0
3943,-0.0216819757293287,0
3944,-0.022297564961256552,0
3945,-0.032721984275103116,0
3946,0.021378170196298438,0
3947,0.033248909069639065,0
3948,0.00463027995120481,0
3949,0.051926635196696,0
3950,0.589343021671245,0
3951,5.668342019444732,0
3952,3.3466092239298124,0
3953,-2.555797436669349,0
3954,1.5403008860391314,0
3955,-0.8338585720726336,0
3956,0.3455053296086307,0
3957,-0.1576696912477067,0
3958,0.09367466308311721,0
3959,0.11072107076484164,0
3960,0.0905908614042205,0
3961,-0.056107960458741606,0
3962,0.0750305657110682,0
3963,-0.09118381921321067,0
3964,0.06961803012767531,0
3965,-0.046011190970774565,0
3966,0.05089153376033441,0
3967,1.697688623551433,0
3968,6.991705399349358,0
3969,-0.2022393051646314,0
3970,-0.8217556366246241,0
3971,0.7840318608728731,0
3972,-0.283469586725606,0
3973,0.1609603026085557,0
3974,-5.385480071863624e-05,0
3975,0.05664620277434896,0
3976,-0.13828558710254837,0
3977,-0.05230138297162289,0
3978,-0.056717944230809884,0
3979,0.05969228063240513,0
3980,0.031022756805100138,0
3981,0.06477890319698473,0
3982,0.07926179956628342,0
3983,0.08654066930706769,0
3984,3.467134012799599,0
3985,6.220440978961203,0
3986,-2.7278495651669004,0
3987,1.1152413822722134,0
3988,-0.4099660530786392,0
3989,0.14899172022799184,0
3990,-0.08665642510283172,0
3991,0.027066548079707424,0
3992,0.09425253849051798,0
3993,0.09438799829181603,0
3994,0.04224674116319656,0
3995,0.027965292512203678,0
3996,0.060122914286849016,0
3997,-0.051241817446847054,0
3998,-0.009532994422225806,0
3999,0.07773871691106164,0
4000,0.5346210788299122,0
4001,5.625260045644477,0
4002,3.295038461979066,0
4003,-2.6790302383730493,0
4004,1.5327712553020953,0
4005,-0.7695587358290606,0
4006,0.26019270262832206,0
4007,-0.11940231597275096,0
4008,0.034347512446591705,0
4009,0.010262766351528611,0
4010,0.03975871979089558,0
4011,0.07293097589876682,0
4012,0.003123724071689457,0
4013,0.054998266293103684,0
4014,0.009838720040404057,0
4015,0.024380384708692405,0
4016,-0.01850668123527017,0
4017,1.705974359949742,0
4018,6.931754328039626,0
4019,-0.44845768020143256,0
4020,-0.8628252424662995,0
4021,0.6487307353269498,0
4022,-0.31796085748197733,0
4023,0.18494787747525795,0
4024,-0.030381157595700405,0
4025,-0.12301593408412419,0
4026,-0.07637056764139834,0
4027,-0.051193481748054936,0
4028,0.02102659051901013,0
4029,-0.016188811490076976,0
4030,-0.007100423739866416,0
4031,0.08638696780105386,0
4032,0.1473901581772536,0
4033,0.13268430732093728,0
4034,3.585306276623084,0
4035,6.158202187435976,0
4036,-2.777749972875577,0
4037,1.2144043128408988,0
4038,-0.3280191942282877,0
4039,0.13485187911521926,0
4040,-0.12937520459324056,0
4041,-0.10561023188120164,0
4042,0.0560538551675221,0
4043,0.06459001866592264,0
4044,0.03197085882085916,0
4045,-0.049712241206176296,0
4046,-0.021455658484311475,0
4047,-0.04892444603149391,0
4048,0.02098890106450096,0
4049,0.05308507008560621,0
4050,6.9505371318196385,1
4051,0.13241994198335158,1
4052,-0.05049007383176287,1
4053,-0.0962499143217968,1
4054,3.0239404961435223,1
4055,0.06011505018801392,1
4056,0.011705613368594013,1
4057,-0.08037495828530994,1
4058,-2.8692900908269756,1
4059,-0.19504860932629767,1
4060,0.02653173086223351,1
4061,-0.08635007329963801,1
4062,-0.7088557697711383,1
4063,0.007375689787815074,1
4064,0.008295401256165506,1
4065,0.05532471974049308,1
4066,1.6112605996098979,1
4067,-0.08117535949649794,1
4068,0.02800585579718283,1
4069,1.7793177252582244,1
4070,-0.46540996739917834,1
4071,0.019119241606849163,1
4072,0.03354077521566155,1
4073,5.846156798053875,1
4074,-0.20628096001631124,1
4075,0.009261234581609067,1
4076,-0.0019273931960668567,1
4077,5.992319932117702,1
4078,0.3399832705886925,1
4079,-0.018710868488614415,1
4080,-0.11969203492507227,1
4081,-0.6019641390821938,1
4082,-0.04553484595756163,1
4083,-0.04845949104514696,1
4084,0.0017982485555495722,1
4085,-2.5010088689626926,1
4086,-0.019806840468371726,1
4087,-0.02612638328729383,1
4088,-0.024973048236169575,1
4089,1.2010067196022294,1
4090,0.04125211894888024,1
4091,0.10230373161860173,1
4092,0.7069268600135601,1
4093,0.6385518148794861,1
4094,0.05573400478665261,1
4095,-0.03203480445572322,1
4096,3.8956592349160184,1
4097,-0.7466943603638335,1
4098,0.08470502295015477,1
4099,-0.035536359462906446,1
4100,6.9749443198727565,1
4101,0.2066766614670701,1
4102,-0.028062815682438756,1
4103,-0.03722361441894952,1
4104,2.7588988273363393,1
4105,0.01195774985511057,1
4106,-0.08675041430714904,1
4107,-0.021887213660677002,1
4108,-2.8530035153548985,1
4109,-0.08061901291974286,1
4110,0.05221508162739301,1
4111,0.0016756455506436903,1
4112,-0.49700643072893885,1
4113,0.043903040864403074,1
4114,-0.008480159829147425,1
4115,0.13607789117995645,1
4116,1.5196671369468984,1
4117,0.08413541006892145,1
4118,0.0009443127177293092,1
4119,1.912175294235658,1
4120,-0.461941832560369,1
4121,-0.008912282262874202,1
4122,0.06490119569310293,1
4123,6.029852380358686,1
4124,-0.23303915299575068,1
4125,0.14008367888568288,1
4126,0.04312234751621468,1
4127,5.843695516811087,1
4128,0.35241639467031544,1
4129,0.007439629778809145,1
4130,-0.0038967629117116487,1
4131,-0.8079918136737154,1
4132,-0.08025770452302937,1
4133,0.02484132580505566,1
4134,-0.009620720723954933,1
4135,-2.4165563215811128,1
4136,0.024610332154821963,1
4137,0.10148565126945096,1
4138,0.05315998550950361,1
4139,1.4042668853564517,1
4140,-0.02699377302610987,1
4141,0.005089062735915046,1
4142,0.7344408835768701,1
4143,0.5091015478929745,1
4144,-0.006119400943503061,1
4145,0.05028901109803523,1
4146,3.9935564262257937,1
4147,-0.7383431890943722,1
4148,0.00496395947920996,1
4149,0.004982751282954194,1
4150,0.6303760216176104,0
4151,5.747302398528962,0
4152,3.218621135494338,0
4153,-2.589989512457006,0
4154,1.472732376544825,0
4155,-0.8677998589699588,0
4156,0.22168705427353794,0
4157,-0.2312478943453839,0
4158,0.0029093930787280967,0
4159,-0.02212589073116201,0
4160,0.009226097920052061,0
4161,-0.03945860640841177,0
4162,-0.02433922013822336,0
4163,-0.06922562345623312,0
4164,0.07907756155262374,0
4165,0.0052257689638564205,0
4166,-0.05809699536322396,0
4167,1.7857872009459281,0
4168,6.86983042929001,0
4169,-0.41619122693640037,0
4170,-0.8857733239545494,0
4171,0.7682530045319589,0
4172,-0.3276038604139216,0
4173,0.13009777837462744,0
4174,0.0053300401926332855,0
4175,-0.10598503495038021,0
4176,0.0021712462529665556,0
4177,0.08773725265764133,0
4178,-0.03788236321431451,0
4179,0.06348337279471365,0
4180,0.08327152057432301,0
4181,-0.0012848863371503314,0
4182,0.022057271670414182,0
4183,0.12587428837045736,0
4184,3.6569409242705198,0
4185,6.028298324028346,0
4186,-2.8336744456019787,0
4187,1.0590172288707944,0
4188,-0.4800106222617868,0
4189,0.06274557226386576,0
4190,-0.1476346020602344,0
4191,0.053806334728409566,0
4192,-0.07451708175138091,0
4193,-0.043229891869254626,0
4194,-0.050805611490368295,0
4195,-0.0642771871416759,0
4196,-0.12468997354385433,0
4197,-0.04297703679109917,0
4198,-0.04951958839743386,0
4199,-0.09880849186620683,0
4200,0.5452222268402049,0
4201,5.742136259111086,0
4202,3.2518812391966847,0
4203,-2.593448368804942,0
4204,1.5598524369321545,0
4205,-0.7827692655598529,0
4206,0.3165215017680205,0
4207,-0.1764363690834635,0
4208,0.06976044204845759,0
4209,0.015529512108557384,0
4210,-0.048816794601219224,0
4211,-0.029248512731841758,0
4212,-0.05083555759145176,0
4213,0.07969224389522458,0
4214,-0.07128346351466966,0
4215,0.013133024734199923,0
4216,0.0012037464304367415,0
4217,1.7201396503579178,0
4218,6.912851163284591,0
4219,-0.49787779692139045,0
4220,-0.8362348674940495,0
4221,0.7158595837975552,0
4222,-0.4203846380847902,0
4223,0.09130969193564524,0
4224,-0.07344834258739312,0
4225,-0.04788133976450728,0
4226,-0.05756893917395366,0
4227,-0.059655625393871196,0
4228,-0.1045861872653284,0
4229,-0.08804883793267976,0
4230,0.05583218605688081,0
4231,-0.04313016933860614,0
4232,0.06063158859464035,0
4233,0.05799200525168295,0
4234,3.589361113648369,0
4235,6.050240969088554,0
4236,-2.8226628700198644,0
4237,1.0669416340643152,0
4238,-0.47699345068848475,0
4239,0.170698213477533,0
4240,-0.12606417181526797,0
4241,0.06762051911971814,0
4242,-0.16154369868324933,0
4243,-0.0826400929706426,0
4244,-0.08458957784561465,0
4245,0.02505178044903447,0
4246,0.021071533718814796,0
4247,-0.1348528587982029,0
4248,0.007586523177212548,0
4249,-0.00899596696228333,0
4250,0.6009577721690914,0
4251,5.552035514937749,0
4252,3.21199378976745,0
4253,-2.71121815624878,0
4254,1.5163251717735284,0
4255,-0.7387675975823249,0
4256,0.382006670251173,0
4257,-0.12846839727657336,0
4258,-0.028311276723675,0
4259,-0.04312069183332151,0
4260,-0.13166178395590683,0
4261,0.019352504815718114,0
4262,0.06717078076438385,0
4263,-0.08347753283703747,0
4264,-0.050468011189286364,0
4265,0.024745616737375423,0
4266,-0.09823375402605007,0
4267,1.616538068660669,0
4268,6.93986289410008,0
4269,-0.5067087879490398,0
4270,-0.7722328575028696,0
4271,0.6119373749414809,0
4272,-0.42316700777990957,0
4273,0.15484356514807737,0
4274,-0.022744476469465175,0
4275,-0.023282438546191445,0
4276,0.009181720945332147,0
4277,0.03427367361931615,0
4278,0.011147967478796199,0
4279,0.0033961487144751118,0
4280,0.08513556593817201,0
4281,0.03458782909201242,0
4282,0.013650075865575905,0
4283,0.11733166103170534,0
4284,3.6426527762312624,0
4285,6.116739735326346,0
4286,-2.7707063029033527,0
4287,1.1899470470631706,0
4288,-0.4348604584140944,0
4289,0.19825727770328755,0
4290,-0.15322817856382415,0
4291,0.009378132508813178,0
4292,-0.06027761103332981,0
4293,-0.034309954508347416,0
4294,-0.0945774233531089,0
4295,-0.022902081122478643,0
4296,-0.02631905736343609,0
4297,-0.010938253110830444,0
4298,-0.019019099660280966,0
4299,-0.06895059451758717,0
4300,0.5937963662034409,0
4301,5.692087775591383,0
4302,3.125619861052264,0
4303,-2.6038818610015633,0
4304,1.5280774132279336,0
4305,-0.8308331713660799,0
4306,0.28233631617725213,0
4307,-0.19619811525690894,0
4308,0.06985874902423117,0
4309,-0.04252233555310728,0
4310,-0.11344635940495565,0
4311,-0.002467761933562995,0
4312,0.001163800827547157,0
4313,-0.03519526098592382,0
4314,-0.03803983998542097,0
4315,-0.10243376768331655,0
4316,-0.04251753393279064,0
4317,1.6683014265797722,0
4318,6.889618368875602,0
4319,-0.5135642763120551,0
4320,-0.8772253368320767,0
4321,0.5810519844669599,0
4322,-0.3088576305138017,0
4323,0.1294792021507056,0
4324,-0.13276595735811658,0
4325,-0.02455606957887134,0
4326,-0.09330705574124505,0
4327,0.01162613111511862,0
4328,0.09943266547788261,0
4329,-0.04559808055133424,0
4330,0.026517887594717394,0
4331,0.0463830730995403,0
4332,-0.000751825359220467,0
4333,0.10762939388063075,0
4334,3.707870275096898,0
4335,6.072321785197599,0
4336,-2.8950421622177105,0
4337,1.1716995012587295,0
4338,-0.30676500295737485,0
4339,0.15823175779671456,0
4340,-0.004958676107731069,0
4341,0.04433403067862425,0
4342,-0.06653159196733817,0
4343,0.05415895344145322,0
4344,-0.04899687667941083,0
4345,0.02938830836532873,0
4346,0.026762727163603242,0
4347,-0.02228338056477297,0
4348,0.013426698020292685,0
4349,0.039540627323026795,0
4350,0.6161145707115294,0
4351,5.647469204857503,0
4352,3.0764526964744916,0
4353,-2.690870715350336,0
4354,1.4910974979551272,0
4355,-0.6856831984062127,0
4356,0.32696395529040134,0
4357,-0.1476980807596559,0
4358,-0.033961498157894995,0
4359,0.11184084040952937,0
4360,0.0017519938047379866,0
4361,-0.007155370735105946,0
4362,-0.023353332649648985,0
4363,0.04665803328702453,0
4364,0.01298652967962612,0
4365,-0.037505569848649105,0
4366,0.05288127581735784,0
4367,1.7899829547695483,0
4368,6.951400000209706,0
4369,-0.5197850719954114,0
4370,-0.7610562551611673,0
4371,0.6648155473355615,0
4372,-0.24009898634691804,0
4373,0.14348255516787797,0
4374,-0.025455147390309442,0
4375,0.02005523034692943,0
4376,-0.027894410618672906,0
4377,0.035056203996808005,0
4378,0.014155631183865189,0
4379,-0.051064523097737576,0
4380,-0.011372879818466526,0
4381,0.07527106116228727,0
4382,0.047249098469877446,0
4383,0.13731925548543755,0
4384,3.6413818231098776,0
4385,6.0345763875678236,0
4386,-2.794670327139264,0
4387,1.2452600751989222,0
4388,-0.5064321156454048,0
4389,0.13941660935583416,0
4390,-0.0888403276030546,0
4391,-0.04267758097769291,0
4392,-0.03283463289066309,0
4393,-0.07541818295161079,0
4394,-0.00670584351248356,0
4395,-0.062195848888128576,0
4396,-0.04733909128703369,0
4397,-0.028255597890057934,0
4398,-0.014524575665604823,0
4399,0.027528667783355325,0
4400,0.5713544524862181,0
4401,5.793226317253056,0
4402,3.027187532795841,0
4403,-2.635896824416788,0
4404,1.4725165374383886,0
4405,-0.8014735815606893,0
4406,0.3200459575356452,0
4407,-0.16681708682137875,0
4408,-0.08957108043348169,0
4409,-0.041478742759730486,0
4410,0.05465315477652204,0
4411,-0.026520488983965564,0
4412,-0.02374895106166862,0
4413,-0.03902049806795609,0
4414,-0.07412014817517179,0
4415,0.0985248632660408,0
4416,0.018091707591795597,0
4417,1.7147864243890352,0
4418,6.9494434206183975,0
4419,-0.6431816376425428,0
4420,-0.6902344754376515,0
4421,0.6305510060934404,0
4422,-0.26522100965521694,0
4423,0.12836940808952613,0
4424,-0.10255863752743177,0
4425,-0.026280887565882198,0
4426,0.040828305718725366,0
4427,-0.059637023970967214,0
4428,-0.10955854168922016,0
4429,-0.014179563469261709,0
4430,0.046904857345056505,0
4431,-0.03790547451974832,0
4432,-0.10328474028237787,0
4433,0.15677602814790345,0
4434,3.6402858669552334,0
4435,6.070720841605835,0
4436,-2.8912070569461688,0
4437,1.1882933273054868,0
4438,-0.3873569669698069,0
4439,0.24547531123886498,0
4440,0.05339319784270449,0
4441,0.06354264719139277,0
4442,-0.04902494945922328,0
4443,0.00830120396804346,0
4444,0.03731773441082643,0
4445,-0.06578333821044442,0
4446,0.0724689952795246,0
4447,0.020562446645748127,0
4448,0.03704136616246102,0
4449,0.04272884052640412,0
4450,0.63282697520583,0
4451,5.785103133924882,0
4452,2.9921585724809234,0
4453,-2.625328772947918,0
4454,1.4933060816039183,0
4455,-0.8089287267970252,0
4456,0.3249761585572519,0
4457,-0.10871129559017079,0
4458,0.026807795010866067,0
4459,-0.09674929034405697,0
4460,0.06037392756799233,0
4461,-0.05696907652413224,0
4462,0.14873052610693616,0
4463,0.08589089903215814,0
4464,0.074695059945664,0
4465,0.07900033717350077,0
4466,0.04113571535297299,0
4467,1.827910766582943,0
4468,6.991099350815174,0
4469,-0.526280862249045,0
4470,-0.7015258264925793,0
4471,0.6766108285163067,0
