timestamp,value-0,is_anomaly
0,0.29366237306304965,0
1,3.513695967471909,0
2,6.895006469000621,0
3,-0.1860246091849806,0
4,-2.0103361705154397,0
5,1.434837563750735,0
6,-0.8150036843546528,0
7,0.11738328768458049,0
8,-0.006594063092831625,0
9,-0.03231118917429837,0
10,0.029844892945806577,0
11,0.00038768570635777655,0
12,0.02314057732123357,0
13,-0.06422220817926744,0
14,-0.013900749340934989,0
15,-0.03293655847724845,0
16,-0.026082680649329445,0
17,-0.0017140631469005929,0
18,0.043396418928813914,0
19,0.03812901577730944,0
20,0.29073284434971614,0
21,3.5867803817427513,0
22,6.922101426628622,0
23,-0.2132647983926381,0
24,-1.9263313554146844,0
25,1.5050987411299566,0
26,-0.6267665244044939,0
27,0.15374452103905956,0
28,0.01462607830375848,0
29,-0.1109062636018054,0
30,0.002673380844720242,0
31,-0.05004818101984168,0
32,-0.08604530617018573,0
33,-0.05362540674786021,0
34,0.0812644783988606,0
35,-0.013016562484768499,0
36,-0.04222110343485378,0
37,-0.03480054994318296,0
38,-0.11228159652156679,0
39,-0.012529008467215857,0
40,0.2946456563973241,0
41,3.448453197657694,0
42,6.90468827023493,0
43,-0.24989864899118802,0
44,-1.9210224488056922,0
45,1.4339777427887026,0
46,-0.7696830451838319,0
47,0.1600080906959283,0
48,-0.014561854357070168,0
49,-0.0392761424478837,0
50,0.007833864370869754,0
51,-0.07878651480245942,0
52,-0.10049450955469702,0
53,-0.04557238515307745,0
54,-0.08170340941891259,0
55,-0.07252674819999791,0
56,-0.04068543575482567,0
57,0.00883754543661392,0
58,-0.12383779020577945,0
59,-0.02806430389976502,0
60,0.27486913924415185,0
61,3.4524207930466173,0
62,6.8866976038120615,0
63,-0.18835973954900712,0
64,-1.9756885721399122,0
65,1.4637813907641615,0
66,-0.6926110716763014,0
67,0.06467285161341126,0
68,0.06164973935841617,0
69,0.002592201327267663,0
70,0.016880077118352096,0
71,-0.012060575051134878,0
72,0.12201943291873388,0
73,0.08160886606841793,0
74,-0.006579461285314711,0
75,-0.05654830638573634,0
76,-0.0010067150970982826,0
77,0.05984346334526378,0
78,0.0033100013828044053,0
79,-0.027016022077080343,0
80,0.27121961411534345,0
81,3.5146124807388355,0
82,6.923967900856042,0
83,-0.30120776878669475,0
84,-1.9049482008465373,0
85,1.4821342566213882,0
86,-0.7414958045954094,0
87,0.1687952524530789,0
88,0.05380183061273915,0
89,-0.03235024313447764,0
90,-0.059154481549823265,0
91,-0.04825070287466346,0
92,-0.09101345493971759,0
93,0.08833322636236744,0
94,0.02908356698586391,0
95,-0.07040429223776924,0
96,0.09176721889343503,0
97,0.019062380052469362,0
98,0.08225357099624032,0
99,0.0789307750615735,0
100,0.2684028034635744,0
101,3.543876872715921,0
102,6.94419486336229,0
103,-0.24914168241825624,0
104,-1.9563705878289084,0
105,1.495412635594508,0
106,-0.7330004634728863,0
107,0.03710764461968513,0
108,-0.10528030713190034,0
109,-0.15944655219666798,0
110,0.04920066027640706,0
111,-0.02383127090265642,0
112,-0.010810712712104226,0
113,0.042919570045867696,0
114,0.036544797726992026,0
115,-0.004128475681320373,0
116,-0.0032749575708196886,0
117,0.004016458012458559,0
118,-0.036873009463166295,0
119,0.08795978171601038,0
120,0.36305321018140096,0
121,3.5650969522868428,0
122,7.0322076901630215,0
123,-0.19883120280289987,0
124,-1.8853293134928721,0
125,1.5548974955596901,0
126,-0.7883502495371147,0
127,0.10235124485842644,0
128,-0.0040845644223334535,0
129,-0.11200251297139291,0
130,0.03759542181685675,0
131,-0.0867573848105612,0
132,-0.07038084571871887,0
133,-0.058364398055728156,0
134,0.0007055200613758153,0
135,-0.08895426763969211,0
136,-0.018319017306749355,0
137,-0.05154137246621272,0
138,-0.10963465391620622,0
139,0.1320541746340371,0
140,0.3692848970871447,0
141,3.438937611786294,0
142,6.913153405232379,0
143,-0.28581844113394517,0
144,-1.9965393610492006,0
145,1.4671737868861583,0
146,-0.7087139936769974,0
147,0.148416176066256,0
148,0.013917039201334826,0
149,0.04046107423030275,0
150,-0.03717855752286112,0
151,0.06747779103666973,0
152,0.06725631410832937,0
153,-0.055323323208457176,0
154,0.003043023882180423,0
155,0.06215200787522636,0
156,0.06882136010135226,0
157,-0.07342527086537179,0
158,0.026321500922696632,0
159,0.07791141693044909,0
160,0.2908399261886639,0
161,3.48930542081458,0
162,6.934730377073607,0
163,-0.35652397905236477,0
164,-1.862640967782594,0
165,1.5767305504483198,0
166,-0.8142260971465919,0
167,0.1172113861952561,0
168,0.11644793536129246,0
169,0.013891836381036166,0
170,0.045612957815033106,0
171,0.02337042735725637,0
172,-0.024786779176759147,0
173,0.11200789984901306,0
174,0.04838355608488176,0
175,-0.0008341057286360091,0
176,-0.04242878869712665,0
177,0.013308445721488177,0
178,-0.1630108260834311,0
179,0.02003142068011285,0
180,0.3586532101250638,0
181,3.5130747706965937,0
182,6.886907375885327,0
183,-0.29818813606529443,0
184,-1.9036396527326802,0
185,1.5214219173556935,0
186,-0.8542639642585009,0
187,0.17301635345120386,0
188,0.04703598295832597,0
189,-0.0883375941898508,0
190,0.021105803183030607,0
191,0.030600663327470384,0
192,-0.010225848312495348,0
193,-0.027978417565482187,0
194,0.005186812802869964,0
195,0.021301294761108924,0
196,0.13593378316233318,0
197,-0.014768927460918513,0
198,-0.009646335121233453,0
199,0.040570083969158496,0
200,0.2901291970111747,0
201,3.5430349362161118,0
202,6.8805202863844475,0
203,-0.3149268242648886,0
204,-1.9378308878655452,0
205,1.576276952597847,0
206,-0.6253940063220149,0
207,0.1765263178308929,0
208,-0.005969888938191219,0
209,0.0032085451247317945,0
210,0.0670032321169463,0
211,0.0689051763331401,0
212,-0.09368981311961239,0
213,0.02155693799001278,0
214,0.0013174453790382478,0
215,0.06681317931614932,0
216,-0.03934744325090954,0
217,0.07274976510765996,0
218,-0.11245604476528595,0
219,-0.0457833842105051,0
220,0.2958275072920647,0
221,3.5234503411818805,0
222,6.829343197124699,0
223,-0.3043601558560659,0
224,-1.9807131979965469,0
225,1.4971688939574392,0
226,-0.7533420558609071,0
227,0.03364854523272918,0
228,0.012476023857002874,0
229,-0.1423452001590998,0
230,-0.00817157704159939,0
231,-0.17240614307685398,0
232,-0.04304458119154342,0
233,-0.032082827224722076,0
234,0.05543161251278119,0
235,0.018261057898884606,0
236,0.07105304369506897,0
237,-0.028990348584555778,0
238,-0.007647556388448995,0
239,0.011100648970888454,0
240,0.37125167886129473,0
241,3.5646931835185294,0
242,6.780339472948275,0
243,-0.25563119703572085,0
244,-1.8619040155338122,0
245,1.566445642894723,0
246,-0.7488297565112345,0
247,0.20509937139339762,0
248,0.043275694031726285,0
249,-0.0635242689589326,0
250,0.021035779058503318,0
251,0.05373451791710994,0
252,0.05424104313790427,0
253,-0.10086951509512007,0
254,0.1009649609640492,0
255,0.014454796401221146,0
256,-0.09632566544763443,0
257,-0.03241650971311569,0
258,-0.09073232090498959,0
259,-0.05480933667017896,0
260,0.20872659028256696,0
261,3.487524454154561,0
262,6.798038532672862,0
263,-0.3971445984699549,0
264,-1.9472768812296424,0
265,1.526176058338648,0
266,-0.7288435585894458,0
267,0.10343581958353706,0
268,0.008945808354627702,0
269,-0.12290843794837004,0
270,0.026528417619937635,0
271,-0.02865258713121342,0
272,0.05548046448120099,0
273,-0.03836036310858859,0
274,0.05755709692014002,0
275,0.013884593734842273,0
276,-0.08619529007037276,0
277,0.009984978505408486,0
278,-0.043904567771584725,0
279,0.03118579769244975,0
280,0.31716907948234746,0
281,3.505144567202792,0
282,6.832475873867185,0
283,-0.21703253100478354,0
284,-1.847087814226458,0
285,1.5601125746719215,0
286,-0.6253843400939924,0
287,0.14569661964328456,0
288,-0.007940884013828642,0
289,-0.11952921703084093,0
290,0.12007599317666375,0
291,0.06586748585207385,0
292,0.07850757165610384,0
293,-0.04016737891463805,0
294,0.04399277541616007,0
295,-0.023066709133021966,0
296,0.010131263436785276,0
297,-0.021189634156426863,0
298,0.055075544632649395,0
299,0.06927132315728901,0
300,0.30708641157663236,0
301,3.565172737716876,0
302,6.932760715785037,0
303,-0.30565254511355816,0
304,-1.8025020515388437,0
305,1.5511129356104638,0
306,-0.7158640163938956,0
307,0.11779800416355707,0
308,-0.017843814236227093,0
309,-0.002967190504503555,0
310,0.05507042915539126,0
311,-0.07631872798950709,0
312,-0.013792349622814566,0
313,0.03506018471291356,0
314,-0.019295557239887958,0
315,0.022639204346351662,0
316,0.11557231620113563,0
317,-0.04552130661611954,0
318,0.019653973530702563,0
319,0.03746519376506136,0
320,0.255149301026991,0
321,3.629840480308928,0
322,6.785346604756308,0
323,-0.400691720308659,0
324,-1.9719490321749478,0
325,1.4690733922841566,0
326,-0.7241134007288353,0
327,0.11746927111642895,0
328,0.012214430703567012,0
329,-0.09485334586603074,0
330,0.014154832202969663,0
331,-0.06613946010919647,0
332,-0.0018513901507424772,0
333,-0.03322606682131015,0
334,-0.06683207981033887,0
335,-0.052522609690005446,0
336,-0.027874718296166244,0
337,0.02268497247359052,0
338,-0.01862995662256675,0
339,0.06212426847165943,0
340,0.317942864417026,0
341,3.509938608097119,0
342,6.868021377617544,0
343,-0.3252028329752661,0
344,-1.8323205750969938,0
345,1.529602119671018,0
346,-0.66835580644735,0
347,0.22415647982019976,0
348,0.1546574437169937,0
349,0.03599738489662022,0
350,0.022553086031434147,0
351,-0.027586391618075405,0
352,0.007730889691233608,0
353,0.015404007263874456,0
354,0.029215005712234086,0
355,-0.0802003646031375,0
356,-0.02863617784972484,0
357,0.13095428808084902,0
358,-0.043205607923341834,0
359,0.08417076734467531,0
360,0.2909447630675045,0
361,3.5415919767361514,0
362,6.820811515422214,0
363,-0.37479414931075367,0
364,-1.8727156321532776,0
365,1.5577315237376888,0
366,-0.7671896492212332,0
367,0.07306732505974814,0
368,0.07400954919118374,0
369,-0.08107622224576402,0
370,0.030514251123612147,0
371,-0.0021757479620278034,0
372,0.05498792229503087,0
373,-0.04871255752682338,0
374,0.1065781034915585,0
375,-0.06494943965899586,0
376,0.03887333858420447,0
377,-0.026015783123052083,0
378,-0.019660649111080675,0
379,-0.008667882689457649,0
380,0.2290043535680343,0
381,3.494035001074617,0
382,6.823485157585476,0
383,-0.30753651626857786,0
384,-1.875465482530757,0
385,1.5409860041370589,0
386,-0.7439292401582263,0
387,0.15312558974223658,0
388,0.030486822097190367,0
389,-0.07244482568165858,0
390,0.012926459677503138,0
391,-0.041267934250506295,0
392,-0.03340931384925798,0
393,-0.03207456005428967,0
394,0.1448971478582978,0
395,0.03237933096972141,0
396,0.040021303733850044,0
397,0.06970461821473728,0
398,0.009834211896427159,0
399,0.05691805445881047,0
400,0.3216996274646674,0
401,3.5121485513409234,0
402,6.834755811928913,0
403,-0.3064217377394868,0
404,-1.964458862671709,0
405,1.4900650199401637,0
406,-0.7408871757480919,0
407,0.2248491417210207,0
408,0.08758619863517589,0
409,-0.09971009972383837,0
410,-0.0048688545148371926,0
411,0.02934747508983846,0
412,-0.013767104898054404,0
413,0.08601883304703184,0
414,0.03596273052381221,0
415,-0.003550278152999558,0
416,-0.10496543094878552,0
417,0.0019707520200446527,0
418,0.01252406137019911,0
419,0.03227917784740233,0
420,0.3193883232492384,0
421,3.641969538309594,0
422,6.893121081142627,0
423,-0.2914864450426307,0
424,-1.7999890069778464,0
425,1.5433130924240654,0
426,-0.5837604801920202,0
427,0.1930208026534134,0
428,0.02829861779657957,0
429,-0.035619337865236085,0
430,0.0060371565858604,0
431,-0.02275169216190244,0
432,-0.07311702732518377,0
433,0.0003408001677753644,0
434,-0.03320339985564392,0
435,-0.027860847328710383,0
436,-0.020265407661628196,0
437,-0.07616407333139545,0
438,-0.02633026865110123,0
439,0.06922128246414153,0
440,0.3594017519075277,0
441,3.609752744337237,0
442,6.810613218132597,0
443,-0.3662184103349918,0
444,-1.9176566666483486,0
445,1.4919017224679325,0
446,-0.8305378662880369,0
447,0.16555309006406688,0
448,0.00967450288275596,0
449,-0.007505182889976883,0
450,-0.024388990047780987,0
451,-0.08998799532677408,0
452,-0.028828346318044592,0
453,-0.04262450944203048,0
454,-0.03217790458805452,0
455,-0.005775385777674956,0
456,0.04257816896415782,0
457,-0.02458460586200431,0
458,-0.014841471576755891,0
459,-0.03389635062466634,0
460,0.26386138295129885,0
461,3.575415972218471,0
462,6.878862032359383,0
463,-0.32929776829965746,0
464,-1.880817855388176,0
465,1.587247742648611,0
466,-0.7962756182600721,0
467,0.19555825079887695,0
468,0.04711776627384684,0
469,-0.04648400721370324,0
470,0.04213196049832859,0
471,-0.09228084624900497,0
472,0.04424221306032933,0
473,-0.04937159725877358,0
474,0.06641018521434963,0
475,0.05919719346819006,0
476,0.019980466921534122,0
477,0.03989684342590145,0
478,0.0442512855956511,0
479,0.015515644573747867,0
480,0.347915864843488,0
481,3.663018409846164,0
482,6.922619574072667,0
483,-0.40041391909565954,0
484,-1.8904948365917797,0
485,1.5974779504999148,0
486,-0.861053710387227,0
487,0.10121102640760407,0
488,-0.030830301407160546,0
489,-0.06996755038595338,0
490,-0.04663848780593671,0
491,0.034045183638880344,0
492,-0.00770948006894921,0
493,-0.042400602955297836,0
494,-0.08443121874712287,0
495,-0.0016182119315180793,0
496,0.0631422929545048,0
497,-0.0015755755835049946,0
498,-0.03173420434385894,0
499,0.0998750374633556,0
500,0.28335668129734165,0
501,3.7023399414301097,0
502,6.863019496013738,0
503,-0.30362249179116974,0
504,-1.9345271996163356,0
505,1.551953795668384,0
506,-0.6961272178664808,0
507,0.20889614183279143,0
508,0.0006601893953877419,0
509,0.04243561461611639,0
510,0.04956417211919657,0
511,0.06645348837601082,0
512,0.016335956686554298,0
513,-0.00878111484683438,0
514,0.11608359820699272,0
515,0.1061753288964865,0
516,0.07985099200806123,0
517,0.019000172203408834,0
518,0.1750523448747435,0
519,0.03656716656028013,0
520,0.29355784311806316,0
521,3.710275695325297,0
522,6.881715796762864,0
523,-0.3775549251739558,0
524,-1.8351962184443331,0
525,1.5725043893414874,0
526,-0.722700822478586,0
527,0.1243541695785043,0
528,0.022179601348352607,0
529,-0.12620958930736836,0
530,0.012134653963886032,0
531,0.03609740269633613,0
532,-0.003549692571720494,0
533,-0.09257320861994658,0
534,-0.09441148439347313,0
535,-0.01849916645848727,0
536,0.005244329346382312,0
537,-0.05743887077187165,0
538,-0.0922126964907273,0
539,0.0018621167296829812,0
540,0.250141507530941,0
541,3.671192197084766,0
542,6.8414821936819346,0
543,-0.2874978816729933,0
544,-1.839468877681543,0
545,1.5674255884250219,0
546,-0.7584018369797492,0
547,0.03875949426581052,0
548,0.053278602257777224,0
549,-0.00862444294726912,0
550,-0.09199506796982963,0
551,0.053670817960487796,0
552,-0.05461652360729456,0
553,-0.07453609984628178,0
554,-0.08373348261725658,0
555,0.0014867220525183675,0
556,-0.09272478046080498,0
557,0.016514624912161876,0
558,-0.045978147498145744,0
559,0.011994219359741315,0
560,0.25318286148268554,0
561,3.6046217686855204,0
562,6.876974330707028,0
563,-0.37367538599483974,0
564,-1.7548154889386727,0
565,1.5657358325997452,0
566,-0.6756915296340014,0
567,0.24141372624914242,0
568,-0.03170900587142618,0
569,0.03144099412139325,0
570,0.09797548516355711,0
571,0.08984496572414222,0
572,0.040859350603055164,0
573,0.034218028144849304,0
574,-0.026202376478879845,0
575,0.014980742498973961,0
576,-0.014856816154014109,0
577,-0.008000664730344522,0
578,0.06442663418413913,0
579,0.013569188341369482,0
580,0.276703128896958,0
581,3.5393226124804302,0
582,6.789728364296908,0
583,-0.46881930553322215,0
584,-1.8917598340488317,0
585,1.4894120799214214,0
586,-0.7482873234018148,0
587,0.1606113305180218,0
588,-0.10518974337096268,0
589,-0.0869164831853625,0
590,0.015613058362112575,0
591,-0.03459971385925234,0
592,-0.09372722769732957,0
593,-0.009108137019271892,0
594,-0.032530956695631386,0
595,-0.06937623327372253,0
596,-0.0870837229091482,0
597,-0.1776648079745223,0
598,-0.004621726820514205,0
599,-0.025802232671192388,0
600,0.23048272901696965,0
601,3.5070809652734556,0
602,6.86858466498391,0
603,-0.4518463537942454,0
604,-1.9449019440024145,0
605,1.4673499347225178,0
606,-0.8940882542258635,0
607,0.12095432862383364,0
608,-0.009742188755270593,0
609,-0.13237711402624414,0
610,-0.07936269674518225,0
611,-0.04347943156393566,0
612,-0.017728423946214548,0
613,0.014885734332042764,0
614,-0.07053342691992935,0
615,-0.020526839763414444,0
616,0.03757351583593754,0
617,-0.011029837626608639,0
618,-0.09459194644628532,0
619,0.05930420979850847,0
620,0.2745256087260818,0
621,3.6166458175527336,0
622,6.836627772218843,0
623,-0.37314979151774386,0
624,-1.8090648237988123,0
625,1.528022906434426,0
626,-0.739718772987876,0
627,0.19596325009565924,0
628,0.06764913836710038,0
629,-0.03825663099360909,0
630,-0.0789590950658079,0
631,0.021465886626195863,0
632,-0.019548535996560878,0
633,-0.019596051147853694,0
634,-0.02243876920261933,0
635,-0.07384689642198208,0
636,-0.002469017165653748,0
637,0.05971725477201503,0
638,-0.02625851160701652,0
639,-0.003788751723210214,0
640,0.22957747439427367,0
641,3.573506289069289,0
642,6.782856797172617,0
643,-0.5021918943185277,0
644,-1.8636252302503913,0
645,1.503893307198588,0
646,-0.8088090278073363,0
647,0.11961556097643038,0
648,-0.014254272348867541,0
649,-0.11239263294999982,0
650,-0.0536103779764992,0
651,-0.067115151137937,0
652,0.05176444893732507,0
653,-0.028302643839006318,0
654,-0.03747975320189572,0
655,-0.005259860119428483,0
656,-0.07827496447371149,0
657,-0.018271979190931882,0
658,0.04353904258906609,0
659,-0.03700647327477756,0
660,0.3317168441269809,0
661,3.6070635056472233,0
662,6.912064219472286,0
663,-0.4296029591377407,0
664,-1.8296050676562092,0
665,1.6093368025060926,0
666,-0.8058252572873938,0
667,0.11112003395724354,0
668,0.07457906619289609,0
669,0.05695955118333694,0
670,0.14392727788583143,0
671,0.0017948931754990256,0
672,0.03201387546514551,0
673,0.03285101022273254,0
674,0.13579859505280764,0
675,0.05952325907101012,0
676,0.023083156895343654,0
677,0.004885081660005288,0
678,0.057269646700811944,0
679,-0.026858159780111197,0
680,0.30290725843831257,0
681,3.6496930932221257,0
682,6.776500439232388,0
683,-0.4378487476992869,0
684,-1.8854641752384835,0
685,1.4285377964455923,0
686,-0.6855311200621276,0
687,0.1772396567581529,0
688,0.0066617811056034724,0
689,-0.01279990271495264,0
690,0.007233535847490867,0
691,0.033418444366166644,0
692,0.0999599510752644,0
693,0.049176366597035254,0
694,0.055792375490721156,0
695,-0.08455040205112102,0
696,-0.01988459539958965,0
697,-0.0437947464407916,0
698,-0.0991669436013227,0
699,0.030585223170778233,0
700,0.13677205044453777,0
701,3.5275963030694673,0
702,6.826189953292464,0
703,-0.4986850748152026,0
704,-1.998953794715582,0
705,1.4915564767750207,0
706,-0.7832368652275299,0
707,0.15396554074722552,0
708,0.028081982826401775,0
709,-0.05942539832755868,0
710,-0.02788667771594729,0
711,-0.028446964583583454,0
712,0.012676133974111756,0
713,-0.10076401889228132,0
714,0.021341832180244758,0
715,0.04318612470899643,0
716,-0.0319836643527037,0
717,-0.027357788199216092,0
718,0.10568065626429313,0
719,0.008986847658234348,0
720,0.31478267944245447,0
721,3.64139466114199,0
722,6.876215480422379,0
723,-0.35356602050691455,0
724,-1.809024841957766,0
725,1.4790194685419142,0
726,-0.7132915935046442,0
727,0.29991701983754554,0
728,0.08006668268036526,0
729,0.04664566136141165,0
730,0.16713846119283468,0
731,0.05956011474906964,0
732,0.0594326883028714,0
733,0.05688039365297322,0
734,-0.009823370285258863,0
735,0.01567527857152809,0
736,0.01716922968898472,0
737,-0.007814733276299526,0
738,-0.003938195825602098,0
739,0.02677210388875813,0
740,0.30368958130314333,0
741,3.673168219960359,0
742,6.839391447539546,0
743,-0.45538849377282176,0
744,-1.8623192383599192,0
745,1.6249616383214476,0
746,-0.6833654958571852,0
747,0.16471235417017357,0
748,0.012565679469591928,0
749,0.025354137960398634,0
750,0.0356295725861944,0
751,-0.04108693159233912,0
752,0.04616799010265156,0
753,0.061448993381022686,0
754,-0.03133326922736049,0
755,-0.0020540217163981314,0
756,0.09079825222121166,0
757,0.033126653243627964,0
758,0.039723670555102154,0
759,-0.0008966168676369651,0
760,0.3133216365247003,0
761,3.6660035553808688,0
762,6.850465887220729,0
763,-0.48339634524001435,0
764,-1.8568039540597812,0
765,1.6005320997982286,0
766,-0.7053991915664548,0
767,0.1257136607239273,0
768,0.07741852996906692,0
769,-0.03728056008725879,0
770,0.08895010833644254,0
771,0.09750458700577196,0
772,0.03124884581605057,0
773,0.0007196569952194302,0
774,0.06535445743571514,0
775,0.16370763479016812,0
776,0.016755678587680102,0
777,0.09841214157848005,0
778,0.15170656386856926,0
779,-0.016345699409156637,0
780,0.3877260187339212,0
781,3.7328620783853035,0
782,6.8870383675095,0
783,-0.3736357795175062,0
784,-1.7187849018442818,0
785,1.5742508538524944,0
786,-0.7079311475772899,0
787,0.26681158512148795,0
788,0.03361219316434946,0
789,0.048452111009757784,0
790,-0.0040352098875520714,0
791,0.09672943931977565,0
792,0.02729157177811277,0
793,0.06483043426093725,0
794,0.14652851802784148,0
795,0.055740488402308386,0
796,0.11764383860352381,0
797,0.0018784518478234466,0
798,0.05988749818200517,0
799,0.040814635856474,0
800,0.2581269602350109,0
801,3.7276721689575583,0
802,6.869693498875409,0
803,-0.40872813761437965,0
804,-1.7901095962644598,0
805,1.4952140571291557,0
806,-0.8029413803075907,0
807,0.09836382427455542,0
808,0.055939886856966,0
809,-0.05894330166069151,0
810,0.04167378264068124,0
811,0.032844858962083175,0
812,0.00212702811996978,0
813,0.051870165496753995,0
814,-0.06437584143330369,0
815,0.04947508866121429,0
816,0.05864889544899386,0
817,0.03716651895423332,0
818,0.023561974357564915,0
819,0.1070213398619615,0
820,0.24330433179841016,0
821,3.671423914434143,0
822,6.932782880457383,0
823,-0.40379811501889135,0
824,-1.8980220173863427,0
825,1.6153951476285984,0
826,-0.6935475322164442,0
827,0.13270673594692262,0
828,0.04947662496998431,0
829,-0.018195862040080803,0
830,0.053862862195934225,0
831,0.07857150335914365,0
832,0.03460933642975846,0
833,0.040182984206501585,0
834,0.05872533638636776,0
835,-0.04459751518875471,0
836,0.12283709455242009,0
837,0.11035948413828475,0
838,0.034573518178419846,0
839,-0.017238975697669433,0
840,0.3950560604343179,0
841,3.664820672510631,0
842,6.819090554419251,0
843,-0.4447265333811352,0
844,-1.7712091586115013,0
845,1.50517469529647,0
846,-0.7115485525060061,0
847,0.15926757507734957,0
848,0.12154773382680596,0
849,-0.011169428019280156,0
850,0.09508602539304749,0
851,0.013749863683241915,0
852,0.010301351058234343,0
853,-0.05406475151707485,0
854,0.08592722313508187,0
855,0.17276924832446078,0
856,0.08672667431487777,0
857,0.00894210871655074,0
858,0.13907409137262527,0
859,0.03858269745794094,0
860,0.3188540583151648,0
861,3.6753554427551935,0
862,6.842115652647635,0
863,-0.5698614872622401,0
864,-1.8532938214420656,0
865,1.6102079184887181,0
866,-0.7687331273172511,0
867,0.135713078724374,0
868,0.03309813084143625,0
869,-0.06968222487478473,0
870,-0.007087628919183948,0
871,-0.08923579732469158,0
872,-0.03328845865334038,0
873,0.05513700730383064,0
874,-0.05573933204529604,0
875,-0.05992332796830709,0
876,-0.05004802529862755,0
877,0.0674792552217103,0
878,0.08768425707969628,0
879,0.0006837816201623048,0
880,0.4030517399269298,0
881,3.6980455749157466,0
882,6.877988400904781,0
883,-0.44475913473596207,0
884,-1.6797790996496247,0
885,1.5991986396833722,0
886,-0.712749447102845,0
887,0.18703818313614495,0
888,0.07076357971141796,0
889,-0.029648258598991756,0
890,-0.021306991648636996,0
891,-0.00391554262766889,0
892,0.02905765975637204,0
893,0.06468896460798615,0
894,0.15033663164001665,0
895,0.017353910012342853,0
896,0.06947190695043393,0
897,-0.046769898502724595,0
898,0.08187524695445997,0
899,-0.04220300401827993,0
900,0.2744652681211338,0
901,3.644574100133477,0
902,6.906832893179548,0
903,-0.5453742590441876,0
904,-1.7783851675072608,0
905,1.5317355652707623,0
906,-0.7438302381667455,0
907,0.17724493341121134,0
908,0.069769086120365,0
909,0.018606734450422605,0
910,0.11789336730360453,0
911,0.07932878795487995,0
912,0.05738087051455708,0
913,0.05860411872848112,0
914,0.0940260116127685,0
915,-0.03115971609582789,0
916,0.0910271863190487,0
917,0.065522733035176,0
918,-0.025237185643106702,0
919,-0.03972070576362645,0
920,0.2495782229563957,0
921,3.6075564902191575,0
922,6.771359915645926,0
923,-0.47503883162896077,0
924,-1.866906844939592,0
925,1.5068941088241008,0
926,-0.786652120882745,0
927,0.08170771466930005,0
928,-0.09414506820662102,0
929,0.029893484580518756,0
930,0.03981981607128261,0
931,0.0431783753970593,0
932,-0.09914321267823416,0
933,0.0398938077912264,0
934,0.003103983323111126,0
935,-0.052975970817991005,0
936,-0.022755913949805185,0
937,-0.007075767800438617,0
938,-0.0470505887128346,0
939,-0.016798521627959823,0
940,0.24501829494168995,0
941,3.6566349656994124,0
942,6.86887623265887,0
943,-0.5317098847403527,0
944,-1.8705835949297998,0
945,1.5432611924363253,0
946,-0.8391589206679033,0
947,0.044334249782416985,0
948,-0.05249567239144121,0
949,-0.04355061347585196,0
950,0.010518890946943235,0
951,0.0033101114825376046,0
952,-0.13039247233107454,0
953,-0.009968911377734407,0
954,-0.03232764526860555,0
955,-0.0310643884888998,0
956,-0.016938902102039403,0
957,-0.029348649956869914,0
958,0.019651557039844836,0
959,-0.007709332754694383,0
960,0.28105964536585926,0
961,3.6188069433069234,0
962,6.779550106330167,0
963,-0.49953564972871234,0
964,-1.7312113858872211,0
965,1.5983882357688548,0
966,-0.7919901109849514,0
967,0.16447587182571724,0
968,0.028722304656368866,0
969,-0.05760669102405827,0
970,-0.12346774633826012,0
971,0.011782786677159367,0
972,0.029045479685969454,0
973,0.00584606982241772,0
974,-0.06124792516218802,0
975,-0.0840665009843235,0
976,-0.08691950727061928,0
977,-0.04248677690451289,0
978,-0.06426392455477292,0
979,-0.042284230825338234,0
980,0.17907388178304956,0
981,3.6064192648526174,0
982,6.819880706306687,0
983,-0.5691197776495566,0
984,-1.8758204530329823,0
985,1.4643299372434415,0
986,-0.8064390127929223,0
987,0.08320190703730611,0
988,-0.02150901582900447,0
989,-0.09089331642724946,0
990,-0.02681253851645783,0
991,-0.1692370339490264,0
992,-0.0973131783165726,0
993,-0.0836966946110103,0
994,-0.11517029078853855,0
995,-0.061290294160408404,0
996,0.05853286692023328,0
997,-0.10045564271109748,0
998,-0.14625892309568558,0
999,-0.012862375659333146,0
1000,0.34315231095192905,0
1001,3.681485804768851,0
1002,6.804605568041581,0
1003,-0.48836453747600284,0
1004,-1.8254601991320618,0
1005,1.5441313357930715,0
1006,-0.8521044117851534,0
1007,0.06019425208281882,0
1008,-0.01465218798556394,0
1009,-0.041018048753481015,0
1010,-0.08815638056530753,0
1011,-0.030984823684294976,0
1012,-0.1192620309838295,0
1013,-0.03472342539367789,0
1014,-0.07138369644681586,0
1015,-0.09222433652990564,0
1016,-0.15125512641915223,0
1017,-0.09079936077439482,0
1018,-0.1035408709706847,0
1019,-0.15916857782860344,0
1020,0.19828878188396468,0
1021,3.4826833975861833,0
1022,6.710933145062826,0
1023,-0.6490042792622519,0
1024,-1.878503244646623,0
1025,1.4160943198796683,0
1026,-0.8258961660741582,0
1027,0.06529450036887449,0
1028,-0.07781659693077675,0
1029,-0.11156588035967087,0
1030,-0.14965557202443225,0
1031,-0.08318312299991622,0
1032,-0.028092843300245064,0
1033,-0.024696658473120053,0
1034,-0.07924412964601567,0
1035,-0.045158326053031286,0
1036,-0.1095939529401781,0
1037,-0.0851189193414694,0
1038,-0.12212041924555629,0
1039,-0.03683558784749582,0
1040,0.1813044803126575,0
1041,3.5793806767232277,0
1042,6.71377976367799,0
1043,-0.553375000056403,0
1044,-1.89932513799453,0
1045,1.4403826164608267,0
1046,-0.8515467818674065,0
1047,0.13623556629509315,0
1048,-0.005932937669919501,0
1049,-0.1475533213476496,0
1050,-0.09053987388668822,0
1051,-0.0872630638254525,0
1052,0.022181534105354374,0
1053,-0.05990127713472846,0
1054,0.024636362068695475,0
1055,-0.09534572181630449,0
1056,-0.1525433026569976,0
1057,-0.13738384291924838,0
1058,-0.021885953839193707,0
1059,-0.06655792061250505,0
1060,0.20483639963496586,0
1061,3.629215932637256,0
1062,6.739483667447021,0
1063,-0.5802449710371116,0
1064,-1.8070933926984956,0
1065,1.4791320747074712,0
1066,-0.8141890837547202,0
1067,0.11387420672022355,0
1068,-0.06490651421182939,0
1069,-0.09611407343805772,0
1070,0.08803685427092867,0
1071,-0.010463423549705614,0
1072,-0.036761533396130995,0
1073,-0.07840638825155305,0
1074,-0.04048876992089746,0
1075,-0.11131345480596225,0
1076,-0.0005487975130973391,0
1077,0.08544186140096895,0
1078,-0.03579908876711536,0
1079,-0.12694341836881406,0
1080,0.28589699874662106,0
1081,3.652075296934639,0
1082,6.734817015899126,0
1083,-0.6154011348929399,0
1084,-1.7964024975034183,0
1085,1.5046978033382172,0
1086,-0.8044695056025909,0
1087,0.09183630951985154,0
1088,-0.012985574451251893,0
1089,-0.055957177058046446,0
1090,-0.0577812460862851,0
1091,0.016583611682564812,0
1092,-0.0504206900544739,0
1093,-0.07950478676239085,0
1094,0.08481652843829397,0
1095,-0.013341960332120133,0
1096,-0.004376447411087418,0
1097,0.030942053816367908,0
1098,0.004208804610752433,0
1099,-0.030962634817272766,0
1100,0.35936391021811287,0
1101,3.6973943444730923,0
1102,6.942236651800715,0
1103,-0.5544407764679105,0
1104,-1.7558240256140096,0
1105,1.4614435979183626,0
1106,-0.7352983220708862,0
1107,0.14093243468620145,0
1108,0.026695247575151196,0
1109,-0.11336930210552308,0
1110,-0.0613542538939106,0
1111,-0.01640094372188882,0
1112,-0.01568694067145579,0
1113,-0.09662872174350043,0
1114,-0.053231065279500354,0
1115,-0.05908321209822924,0
1116,-0.05385639455392929,0
1117,-0.09343225108479658,0
1118,-0.037788109691856676,0
1119,-0.06897927874245463,0
1120,0.22639465309742932,0
1121,3.6067583110736146,0
1122,6.778317101415212,0
1123,-0.579015205768357,0
1124,-1.8462708066960754,0
1125,1.4497378304423105,0
1126,-0.740916151913205,0
1127,0.10323696040706794,0
1128,-0.0014897439585535924,0
1129,-0.21496286774202894,0
1130,-0.10997482917819176,0
1131,-0.05728304220611201,0
1132,0.008984912417580086,0
1133,-0.0593305330555578,0
1134,-0.030581549180925267,0
1135,0.019579226118505294,0
1136,-0.05529028555393327,0
1137,0.037808791401173034,0
1138,-0.07325236977571645,0
1139,0.05327540522910435,0
1140,0.32940225107001,0
1141,3.637691351795023,0
1142,6.9257560679249135,0
1143,-0.4586240877468918,0
1144,-1.7251889366833109,0
1145,1.5784497885540614,0
1146,-0.6883185049124699,0
1147,0.1396245291073178,0
1148,0.007561053432323793,0
1149,-0.05281297656839696,0
1150,0.14896173137359997,0
1151,0.017885047887848962,0
1152,0.0727424998027726,0
1153,-0.0683749986715472,0
1154,0.044840304921458664,0
1155,-0.0639988311909885,0
1156,0.02878241346649807,0
1157,-0.003938485654682913,0
1158,0.024525656334153115,0
1159,0.025008587813844362,0
1160,0.2842959022335796,0
1161,3.7574473310095815,0
1162,6.903740568554174,0
1163,-0.5983601220462051,0
1164,-1.7696140805545852,0
1165,1.4896870109649434,0
1166,-0.7364093392708297,0
1167,0.17229818236402272,0
1168,-0.026322396058376357,0
1169,-0.0053507843844044535,0
1170,0.05127902618615424,0
1171,-0.08583060431142742,0
1172,-0.00446309032135388,0
1173,0.1124853196711256,0
1174,0.011964056284254319,0
1175,-0.05905202835331437,0
1176,0.010577506328110917,0
1177,-0.0058471125144088235,0
1178,-0.04217201161088542,0
1179,-0.0035528072757643227,0
1180,0.34525709135676264,0
1181,3.720029984637427,0
1182,6.793539661877206,0
1183,-0.6013184297275583,0
1184,-1.7376245866913362,0
1185,1.4924752714462963,0
1186,-0.7544142630783025,0
1187,0.1169787244702121,0
1188,0.033871962397458204,0
1189,-0.09966011066108361,0
1190,-0.05101608855169125,0
1191,0.017783060991603237,0
1192,0.01981068739274921,0
1193,0.033584946992328335,0
1194,-0.06496160509953426,0
1195,0.04578439399812709,0
1196,0.06939382409355326,0
1197,0.03272317598573625,0
1198,0.10335891875495014,0
1199,0.028896458686806285,0
1200,0.38227896283089796,0
1201,3.7641793299693025,0
1202,6.815036067223574,0
1203,-0.6037680764134888,0
1204,-1.695971692399216,0
1205,1.4166636757425206,0
1206,-0.7950080164046597,0
1207,0.06536172114390856,0
1208,-0.009481495813557686,0
1209,-0.0902812245191129,0
1210,-0.09357789278212951,0
1211,-0.06514760263448756,0
1212,-0.057197876659112266,0
1213,-0.1100113886698825,0
1214,-0.043744742901679255,0
1215,-0.08206142813681137,0
1216,-0.1452684435283198,0
1217,-0.07869867152493162,0
1218,-0.02395864271472909,0
1219,-0.023587561370355614,0
1220,0.23057342927433438,0
1221,3.626434323675289,0
1222,6.774290841522857,0
1223,-0.6836518367253812,0
1224,-1.8111725687234117,0
1225,1.4816144796342932,0
1226,-0.7528381042412358,0
1227,0.2047714438526071,0
1228,0.0034953524832205176,0
1229,-0.08255216012146602,0
1230,0.08524169984009805,0
1231,0.01882107166347764,0
1232,-0.03338947622474503,0
1233,-0.11276243406517866,0
1234,0.02229501417285565,0
1235,0.07334412521500376,0
1236,-0.05757078523025718,0
1237,-0.04799148028236898,0
1238,0.01464564917747394,0
1239,-0.01037769852324831,0
1240,0.3979155055833538,0
1241,3.719619074366704,0
1242,6.862359180351531,0
1243,-0.5073899738944542,0
1244,-1.6844887189795659,0
1245,1.55092895340412,0
1246,-0.7121193467025387,0
1247,0.05697315912426282,0
1248,0.10009621332462598,0
1249,0.03453348820505072,0
1250,0.05475614787171683,0
1251,0.0013346680268023423,0
1252,-0.038204947328330276,0
1253,-0.0055233086063480735,0
1254,0.029180985640803257,0
1255,0.020453619705669307,0
1256,0.051150052262248204,0
1257,-0.06566907656527571,0
1258,-0.016806006643018075,0
1259,0.11665385812870926,0
1260,0.38513377073846655,0
1261,3.7187715706135425,0
1262,6.707870088005271,0
1263,-0.6402078745369607,0
1264,-1.726232528189645,0
1265,1.595972389655427,0
1266,-0.6573911193402996,0
1267,0.19983762340599281,0
1268,0.06637740213880469,0
1269,0.08742290839712688,0
1270,0.07801366472128982,0
1271,0.08847374146205265,0
1272,-0.03886139108748233,0
1273,0.0029645597607757465,0
1274,0.047040710015187934,0
1275,0.03223290736914174,0
1276,0.07585429909188673,0
1277,0.11330282522280338,0
1278,0.0267307040610646,0
1279,-0.004665224895101856,0
1280,0.32017748065833684,0
1281,3.8988172090759443,0
1282,6.836374335333109,0
1283,-0.5273863263456707,0
1284,-1.7899527963543884,0
1285,1.5711566049116865,0
1286,-0.7606249915819714,0
1287,0.21741926005930332,0
1288,0.03496299975552175,0
1289,0.10381755078257993,0
1290,-0.08630180896583348,0
1291,-0.001553816026245606,0
1292,0.07187338083553754,0
1293,0.0650963756394019,0
1294,0.07841271621071101,0
1295,0.0686772804669854,0
1296,0.08831793468006521,0
1297,0.012488891884942458,0
1298,0.06796602229619474,0
1299,-0.01734369772261192,0
1300,0.26240964170638525,0
1301,3.8374720819193713,0
1302,6.824746079072847,0
1303,-0.5420697618008867,0
1304,-1.6789752346592322,0
1305,1.5349619083679071,0
1306,-0.6310347331025443,0
1307,0.23395214451527166,0
1308,0.10819933581339028,0
1309,0.03710226948295338,0
1310,0.021256409545657814,0
1311,0.013133253577998973,0
1312,0.09658965131476167,0
1313,0.07795593565022292,0
1314,0.006405333512283368,0
1315,0.1208322824867416,0
1316,0.1007138365750696,0
1317,0.0859953085230863,0
1318,0.034670019335975785,0
1319,0.04597018497872093,0
1320,0.3585444688210607,0
1321,3.783747445668534,0
1322,6.778430500399751,0
1323,-0.5826971245820924,0
1324,-1.6186744265417379,0
1325,1.6484241255112095,0
1326,-0.7086494469135086,0
1327,0.26834532150347623,0
1328,0.03237248710700426,0
1329,0.04151099491344268,0
1330,0.02916527870971415,0
1331,0.07667560070908433,0
1332,0.09794959679925139,0
1333,0.16145991125132908,0
1334,0.15084812891808583,0
1335,0.049982479809618965,0
1336,0.03474173872656001,0
1337,0.08015118400729916,0
1338,0.030457775385199698,0
1339,0.03514215395274214,0
1340,0.41694831670162724,0
1341,3.7782874584428776,0
1342,6.926581628224577,0
1343,-0.5652389444282719,0
1344,-1.677876050482394,0
1345,1.6079436697839709,0
1346,-0.6714127447473667,0
1347,0.24172442648912487,0
1348,0.12109596701409951,0
1349,-0.053010334600481206,0
1350,0.09754088046454482,0
1351,0.08958361230016149,0
1352,0.09754433333142122,0
1353,0.08423145834128576,0
1354,0.12165439504108178,0
1355,-0.01394936552144338,0
1356,0.051710050709043456,0
1357,0.12220445363950233,0
1358,0.020310132346737862,0
1359,0.08470024943333473,0
1360,0.40183900346549545,0
1361,3.7595678996147717,0
1362,6.903113862246314,0
1363,-0.5636977128055989,0
1364,-1.6328211786635625,0
1365,1.5239922548802347,0
1366,-0.6756331999474798,0
1367,0.1758133778081018,0
1368,0.07563866871538855,0
1369,0.03893885633509009,0
1370,0.18816191539660299,0
1371,0.12408798274396718,0
1372,0.16424427458221819,0
1373,0.09059948708147139,0
1374,0.13489272900086946,0
1375,0.017121854173315833,0
1376,0.08869200899787968,0
1377,0.059956878407130876,0
1378,0.016823818834985897,0
1379,0.08946594889290511,0
1380,0.31167584865944137,0
1381,3.8806866352672853,0
1382,6.8147190908475315,0
1383,-0.5939578636064415,0
1384,-1.7480942208287893,0
1385,1.5436859447318385,0
1386,-0.6917454493091572,0
1387,0.18089021644671094,0
1388,0.0730175880380166,0
1389,-0.05948154569272675,0
1390,0.03298613792098583,0
1391,-0.06211881652131552,0
1392,-0.05113790139893692,0
1393,-0.06495653556406988,0
1394,0.05011407751551126,0
1395,-0.057883706725090606,0
1396,-0.04990664872319177,0
1397,0.010734294518708578,0
1398,0.046402846171208864,0
1399,0.055864025172514084,0
1400,0.364258953366896,0
1401,3.791173947575562,0
1402,6.868562413816156,0
1403,-0.5643690702351412,0
1404,-1.7747775467272224,0
1405,1.6311058948771517,0
1406,-0.6527876934150796,0
1407,0.30627668881094844,0
1408,0.12900143025056926,0
1409,0.04453536835629799,0
1410,0.14496612374707796,0
1411,0.10704477547941504,0
1412,-0.003444208996938203,0
1413,0.09358224667828682,0
1414,0.12036375578390236,0
1415,0.12130591955049684,0
1416,0.03418194429780019,0
1417,0.11851030793971702,0
1418,-0.03318267805080309,0
1419,0.014151935849415091,0
1420,0.46428528223973825,0
1421,3.9008505800328686,0
1422,6.802869994241063,0
1423,-0.5232101318407895,0
1424,-1.6632253130167525,0
1425,1.5688715659747015,0
1426,-0.629359684932836,0
1427,0.3078987238018776,0
1428,0.09524840546824831,0
1429,0.012085415436797853,0
1430,0.08008237355815241,0
1431,0.00941062142674344,0
1432,0.05356812680211625,0
1433,0.06783851670410135,0
1434,0.06770230388793075,0
1435,0.11596935419180748,0
1436,0.09874794467344977,0
1437,0.09463133440283847,0
1438,0.03633040023062507,0
1439,-0.04282167010202019,0
1440,0.41943250644115243,0
1441,3.887973978909077,0
1442,6.916001666116507,0
1443,-0.5948556778000971,0
1444,-1.6084741248223422,0
1445,1.5929577256619614,0
1446,-0.7103603753292478,0
1447,0.22608748755878694,0
1448,0.1357629162049455,0
1449,-0.011507034777937665,0
1450,0.0653324545546036,0
1451,0.08199912066927614,0
1452,0.08761241446979814,0
1453,0.1630863092524963,0
1454,0.08422913126579619,0
1455,0.028909691704118834,0
1456,0.054108930995723045,0
1457,0.11362856192293203,0
1458,0.02089478262965605,0
1459,0.03629461624925094,0
1460,0.34490501520005495,0
1461,3.69292782513571,0
1462,6.8575999366243625,0
1463,-0.5187882873938074,0
1464,-1.770435056672631,0
1465,1.5993853891824035,0
1466,-0.7241838004061538,0
1467,0.21803520241924002,0
1468,0.014649779875407241,0
1469,0.11896977399691228,0
1470,0.14927912445752178,0
1471,0.03885436381945005,0
1472,0.04748924646401396,0
1473,0.018033204101160064,0
1474,0.018654426068671702,0
1475,0.08766342916033329,0
1476,-0.009969306025270748,0
1477,0.042707366249454384,0
1478,0.038488351877046655,0
1479,-0.028949660768515476,0
1480,0.2870942523459745,0
1481,3.818051280665174,0
1482,6.749624891506369,0
1483,-0.6739963522077925,0
1484,-1.7442590618772886,0
1485,1.5863794013551107,0
1486,-0.6609756830640899,0
1487,0.266929752608152,0
1488,0.038035332776661566,0
1489,0.032711386305703874,0
1490,0.015263594102349683,0
1491,0.016017560504796483,0
1492,0.13699701310205167,0
1493,0.040033310494984355,0
1494,0.060221640983871824,0
1495,0.11742730234605933,0
1496,0.06962032675183177,0
1497,0.08527989310200622,0
1498,0.03438816216156266,0
1499,0.0896202911342748,0
1500,0.44270005364399156,0
1501,3.8636990073735165,0
1502,6.852316495909148,0
1503,-0.6545717300776727,0
1504,-1.5328638908118701,0
1505,1.5235155421015043,0
1506,-0.6817401085708243,0
1507,0.14173492318127118,0
1508,0.07985405532541379,0
1509,-0.016646472885975344,0
1510,-0.02619285004252607,0
1511,0.012167043565217354,0
1512,0.04099269348584774,0
1513,0.09108971189972029,0
1514,0.082497415920568,0
1515,0.04598636081071231,0
1516,0.06382475283542649,0
1517,0.07118455597103904,0
1518,0.00726405752245683,0
1519,0.037457364013494504,0
1520,0.3780757170615916,0
1521,3.8975402963190784,0
1522,6.86714506274771,0
1523,-0.5979362242478063,0
1524,-1.608412729747732,0
1525,1.4894094415794847,0
1526,-0.7062405862250282,0
1527,0.2175431777262528,0
1528,0.11579398294630389,0
1529,0.0178970365440891,0
1530,0.05521595756829088,0
1531,0.03262683407851283,0
1532,0.02923629333618807,0
1533,0.07677538217509791,0
1534,0.057095342906780415,0
1535,-0.015201827195507361,0
1536,0.0052871727876765,0
1537,0.002238446463313337,0
1538,-0.03722966986446393,0
1539,0.01070952079198979,0
1540,0.3333457788435783,0
1541,3.797532310170102,0
1542,6.821815528125182,0
1543,-0.6392247485772392,0
1544,-1.7371946391625008,0
1545,1.5118863476134883,0
1546,-0.7877373635190433,0
1547,0.08057680274997396,0
1548,0.030294145354805155,0
1549,-0.03880778796429063,0
1550,0.15210383069853567,0
1551,-0.025271965916192234,0
1552,0.051317639529550915,0
1553,0.04718749476754089,0
1554,-0.049812136101833035,0
1555,-0.02175973743507736,0
1556,-0.028194143639304753,0
1557,0.07822891996328782,0
1558,-0.05364000868896829,0
1559,-0.0034388409771015345,0
1560,0.3433582370540202,0
1561,3.8084986578740248,0
1562,6.700951978940993,0
1563,-0.6906290136977131,0
1564,-1.6567798663246176,0
1565,1.5463455989838601,0
1566,-0.7648965879030398,0
1567,0.06488054673667734,0
1568,-0.1175422845337612,0
1569,-0.04652822238010755,0
1570,0.09098079849944057,0
1571,0.04627904756775278,0
1572,-0.04494543437597503,0
1573,-0.03412806280076333,0
1574,-0.033261518897122484,0
1575,-0.09507405846858347,0
1576,-0.009429972916173944,0
1577,0.01738268243468649,0
1578,-0.05903616649511248,0
1579,-0.09356480132311507,0
1580,0.28259860480904503,0
1581,3.806570095228568,0
1582,6.698913321975493,0
1583,-0.746359807404051,0
1584,-1.669804670872605,0
1585,1.4595021121053795,0
1586,-0.6968326942596121,0
1587,0.20272586304617163,0
1588,0.039915775853793974,0
1589,-0.0692558286830263,0
1590,0.03408108127935104,0
1591,0.0098465320764349,0
1592,0.03157227383396048,0
1593,-0.008523339766613566,0
1594,0.04569426991833492,0
1595,0.04724023106544978,0
1596,0.056463751813245415,0
1597,-0.007813587483306995,0
1598,0.05252988295460937,0
1599,-0.028973288320517394,0
1600,0.3961554278419299,0
1601,3.8301366991734587,0
1602,6.766285869040886,0
1603,-0.7245888766016544,0
1604,-1.7657370760931395,0
1605,1.4374832371511632,0
1606,-0.8080062085482802,0
1607,0.2005914181141426,0
1608,-0.07300794720277848,0
1609,0.002383788826887487,0
1610,-0.12454670444553444,0
1611,0.05931757347902772,0
1612,-0.09461099471084125,0
1613,-0.0338770158175746,0
1614,-0.03716222805682175,0
1615,-0.09634700846109627,0
1616,-0.07153140410411882,0
1617,-0.01861110043800861,0
1618,-0.07811771017229073,0
1619,-0.11177560737438628,0
1620,0.34216337097904065,0
1621,3.761410225394013,0
1622,6.787119322867394,0
1623,-0.7062745398283579,0
1624,-1.719672121667735,0
1625,1.4294460946848122,0
1626,-0.8274203494376359,0
1627,0.15005680849889336,0
1628,-0.050032691624451696,0
1629,0.03381372272102405,0
1630,-0.06264883573091144,0
1631,-0.02620233866773161,0
1632,-0.03559482859263759,0
1633,-0.040581171164872254,0
1634,-0.01521943402226587,0
1635,-0.07574444819916486,0
1636,-0.059539624826714696,0
1637,0.07788772756245371,0
1638,-0.0005817758925271699,0
1639,0.002111174329477621,0
1640,0.3315786001689021,0
1641,3.72409126968878,0
1642,6.816619823773906,0
1643,-0.6753874409907157,0
1644,-1.7452974810364643,0
1645,1.5473041135209917,0
1646,-0.8447089073610068,0
1647,0.22216331800144568,0
1648,-0.007237041683147642,0
1649,-0.0868299413175046,0
1650,-0.029642651544605533,0
1651,-0.017282329648343885,0
1652,0.017666292866041607,0
1653,-0.04424439314224291,0
1654,-0.020660003044434445,0
1655,0.015384238168442893,0
1656,-0.019631729898904222,0
1657,0.031586941110185264,0
1658,-0.022210073071076093,0
1659,-0.06155605638955957,0
1660,-2.411691423525985,1
1661,3.7701812664759147,0
1662,6.722387064859657,0
1663,-0.8465547201226493,0
1664,-1.72783486082646,0
1665,1.4257916060133158,0
1666,-0.8019539744314085,0
1667,0.08458805429841301,0
1668,-0.0004971830993882359,0
1669,0.008109904163602646,0
1670,0.0583973681856588,0
1671,-0.006683171999083399,0
1672,-0.05943907717851268,0
1673,-0.03339890761347733,0
1674,0.1096865850583908,0
1675,0.0012524292856472517,0
1676,-0.009605706688012534,0
1677,0.03316596611779327,0
1678,0.01763362495151404,0
1679,0.062167896201023226,0
1680,0.3942602803706182,0
1681,3.8941848594281643,0
1682,6.7786734435255225,0
1683,-0.6840923246177723,0
1684,-1.6681192757342638,0
1685,1.6139928755686943,0
1686,-0.7198209932145521,0
1687,0.17973421196728478,0
1688,0.004054444603413958,0
1689,-0.08523938706364328,0
1690,-0.04657676997114378,0
1691,-0.07876102401447432,0
1692,-0.03981438882419687,0
1693,-0.11274739938883771,0
1694,0.05055377796418272,0
1695,-0.04098696423195015,0
1696,9.028727917370638e-05,0
1697,-0.0014548622999234657,0
1698,-0.029603519875066153,0
1699,-0.03512152808120424,0
1700,0.3099737521364317,0
1701,3.81604108625131,0
1702,6.874370628515687,0
1703,-0.7166232330359584,0
1704,-1.6791901672557081,0
1705,1.501004509413924,0
1706,-0.6998716008729644,0
1707,0.15774854011055012,0
1708,-0.01954402596178765,0
1709,0.07889959017672965,0
1710,0.012694969999289221,0
1711,-0.023853581642093336,0
1712,0.03390364970959174,0
1713,0.11963832900106448,0
1714,0.11071167269194675,0
1715,-0.0026731419058938968,0
1716,0.048914553162278704,0
1717,-0.001904689949394273,0
1718,-0.021954489194169438,0
1719,-0.05939960045656318,0
1720,0.3705929678662716,0
1721,3.693206766753621,0
1722,6.746747645376707,0
1723,-0.7446990711862497,0
1724,-1.5928166700338966,0
1725,1.4652663910517645,0
1726,-0.8406033220626848,0
1727,0.12635567362758532,0
1728,-0.016203510168002148,0
1729,0.03799561615875512,0
1730,-0.028555668460589143,0
1731,-0.030611703375249093,0
1732,-0.0234694985897444,0
1733,-0.014991457303216882,0
1734,-0.015215943183833519,0
1735,0.02616975229324218,0
1736,-0.004803563664392236,0
1737,0.05968930975560123,0
1738,0.022857717453242336,0
1739,0.09457134729001165,0
1740,0.3759704353643074,0
1741,3.9015095407317553,0
1742,6.768724070559084,0
1743,-0.6487966777882179,0
1744,-1.6946648870315728,0
1745,1.511359375090669,0
1746,-0.7899650399638779,0
1747,0.2335759447126416,0
1748,-0.04642733337405112,0
1749,-0.17985441058875165,0
1750,-0.0259969861442298,0
1751,-0.0634795240052641,0
1752,0.018584963161121938,0
1753,-0.061712839161626024,0
1754,-0.07869742099434855,0
1755,-0.07792607875481447,0
1756,-0.10177385453073702,0
1757,-0.016826697330736582,0
1758,0.016439376726883448,0
1759,0.012101269988311576,0
1760,0.3802729670973694,0
1761,3.918575964157428,0
1762,6.711595532369475,0
1763,-0.7540519526226792,0
1764,-1.7278611581318806,0
1765,1.4579288162335202,0
1766,-0.6950073143160119,0
1767,0.12445898260006909,0
1768,0.009824796200227087,0
1769,0.07581066435225292,0
1770,0.012819396947462815,0
1771,-0.021867604967482433,0
1772,0.12259773323698499,0
1773,0.008022048945934362,0
1774,-0.0021192545985053296,0
1775,-0.043405138013159754,0
1776,-0.04428924652148698,0
1777,0.0030884529673790503,0
1778,-0.09037218668604044,0
1779,-0.11666194201024815,0
1780,0.26312530466724104,0
1781,3.807753853875308,0
1782,6.687352078163548,0
1783,-0.747047162795428,0
1784,-1.7627180819919648,0
1785,1.4525700884534476,0
1786,-0.8472455709516474,0
1787,0.10410060552829369,0
1788,-0.09170113059871368,0
1789,-0.13916004735684498,0
1790,0.0046142047813342996,0
1791,0.02152672225932878,0
1792,0.02340957766796467,0
1793,-0.08116669868377055,0
1794,0.04646870272269775,0
1795,0.013236623410120673,0
1796,0.0005655463318534233,0
1797,0.010893324216756976,0
1798,-0.07601390630790933,0
1799,-0.0035298492465195832,0
1800,0.3294507209568016,0
1801,3.797153792420775,0
1802,6.718576795990278,0
1803,-0.7408342577390575,0
1804,-1.6529960101209684,0
1805,1.4716653056121307,0
1806,-0.7770914988934182,0
1807,0.22608187815211905,0
1808,-0.024827701369738088,0
1809,-0.10860768003714727,0
1810,-0.04196754786447045,0
1811,-0.07691014006474359,0
1812,-0.01193121304473604,0
1813,-0.06420707906795932,0
1814,-0.030432446129077972,0
1815,0.025614739849600648,0
1816,-0.052616135205040195,0
1817,0.0022050012777342374,0
1818,0.018507802697950833,0
1819,-0.05984116555222754,0
1820,0.35137062038818256,0
1821,3.879957818847976,0
1822,6.835025698897335,0
1823,-0.749503250733086,0
1824,-1.7063427747830555,0
1825,1.4661113697947332,0
1826,-0.756051891365354,0
1827,0.15710553808157512,0
1828,-0.01275573909990567,0
1829,0.0084572962898459,0
1830,0.057081345007005,0
1831,-0.005765940244903626,0
1832,-0.020758222229167043,0
1833,-0.011164351759047588,0
1834,-0.030660550546198814,0
1835,-0.023530156037369673,0
1836,-0.04314994203721913,0
1837,-0.02019416652492633,0
1838,-0.04330273770842141,0
1839,-0.05649261751181099,0
1840,0.31229847800510696,0
1841,3.733929489557657,0
1842,6.718434678918244,0
1843,-0.795135609504288,0
1844,-1.7375651583481277,0
1845,1.3660431211486934,0
1846,-0.825785203571247,0
1847,0.1350028093449528,0
1848,-0.057156977211039114,0
1849,-0.008257277695756751,0
1850,-0.09768412025058787,0
1851,-0.07149037330638708,0
1852,0.011743390855561461,0
1853,0.0037437310262395003,0
1854,0.02200373864607793,0
1855,-0.05782728393267131,0
1856,-0.0038483652733088958,0
1857,-0.05458443744910193,0
1858,-0.05618838447891351,0
1859,-0.012144124086553881,0
1860,0.24488877044194868,0
1861,3.8606335919719403,0
1862,6.676943909894042,0
1863,-0.8088059088690187,0
1864,-1.7064377374590174,0
1865,1.4921621343832576,0
1866,-0.7521393884032618,0
1867,0.09791021551083791,0
1868,-0.0038257061879258362,0
1869,-0.053937053638683355,0
1870,0.04545574916587289,0
1871,-0.03132357072082597,0
1872,-0.042096879935501486,0
1873,-0.04172003859441201,0
1874,-0.10541742864332915,0
1875,-0.02346792672523797,0
1876,-0.04383160176492655,0
1877,-0.10002783957189539,0
1878,-0.03912840641755906,0
1879,-0.027958959787163465,0
1880,0.3121183942608845,0
1881,3.76410163055878,0
1882,6.692239903987845,0
1883,-0.7556335085505642,0
1884,-1.6621246064466146,0
1885,1.5016512861642317,0
1886,-0.7839758455295162,0
1887,0.19380889244461205,0
1888,0.0035197889202565266,0
1889,-0.047381859027798165,0
1890,-0.022253271498035798,0
1891,-0.09206299795217324,0
1892,-0.019237024648102164,0
1893,-0.04675590136973264,0
1894,-0.057968292731356924,0
1895,-0.006026443111591284,0
1896,0.011161738435966177,0
1897,0.08267179912689651,0
1898,-0.013963944660654816,0
1899,-0.07116145163751394,0
1900,0.3000074237574277,0
1901,3.809666263265804,0
1902,6.751279066457315,0
1903,-0.9087047465031862,0
1904,-1.7656825006711583,0
1905,1.4873288419399793,0
1906,-0.8150198149709694,0
1907,0.1123388898429809,0
1908,-0.11691373252622311,0
1909,-0.09185103463407691,0
1910,-0.023002847053193907,0
1911,-0.14179045821298653,0
1912,-0.09448886586491465,0
1913,0.018024869757939266,0
1914,0.008298235543054783,0
1915,-0.07546097436170071,0
1916,-0.05775661991269518,0
1917,0.031136695050221496,0
1918,-0.03207940453449558,0
1919,-0.11745353851523582,0
1920,0.2581269789141438,0
1921,3.8337392059869466,0
1922,6.63385674555628,0
1923,-0.7733918479020413,0
1924,-1.6098330897057909,0
1925,1.5748956377949597,0
1926,-0.7085226414398601,0
1927,0.16402581062346783,0
1928,0.06591667347116378,0
1929,-0.05328951409496494,0
1930,0.06722612704255376,0
1931,-0.09707123126722389,0
1932,0.039340311170041824,0
1933,0.06042220103669328,0
1934,0.02456641813556872,0
1935,-0.039499184925966144,0
1936,-0.08825580126723374,0
1937,-0.013992921706075662,0
1938,-0.004526316504428965,0
1939,-0.00486901362800344,0
1940,0.2778836480614812,0
1941,3.773822956647186,0
1942,6.730052896116503,0
1943,-0.8190414393408539,0
1944,-1.713527926558132,0
1945,1.4292443990149881,0
1946,-0.8500080554941055,0
1947,0.10459304444426193,0
1948,-0.026591754408375898,0
1949,-0.10282583577854856,0
1950,-0.057191111865410524,0
1951,-0.014225771469524494,0
1952,0.010787473454379075,0
1953,0.03863836331713465,0
1954,-0.09819419106866414,0
1955,-0.04375026557601511,0
1956,0.0046780231831941715,0
1957,-0.060681931534374414,0
1958,-0.0029108392379732576,0
1959,-0.049582764101068405,0
1960,0.30130246998685495,0
1961,3.8242147108253834,0
1962,6.690603141156094,0
1963,-0.7702358581514213,0
1964,-1.7187380732815107,0
1965,1.483539807240408,0
1966,-0.6827296779255312,0
1967,0.14108697292581787,0
1968,0.01659629501204677,0
1969,-0.010667611421061467,0
1970,0.036933453536290586,0
1971,-0.002690998201119482,0
1972,0.09591615910815104,0
1973,0.004270660585819673,0
1974,0.10463024987213204,0
1975,-0.005368336919728815,0
1976,-0.1077178682929271,0
1977,-0.027942666822568137,0
1978,0.08421496173898788,0
1979,0.035033561557346875,0
1980,0.3309722082157656,0
1981,3.786253931156683,0
1982,6.750870774507437,0
1983,-0.802649953361607,0
1984,-1.6868051171585778,0
1985,1.4912496133147741,0
1986,-0.7665229725047403,0
1987,0.22276003871523142,0
1988,0.028838656266194494,0
1989,-0.07014952685343182,0
1990,0.06055902357011117,0
1991,0.021576542073744535,0
1992,-0.043564983967320184,0
1993,-0.017449547048864002,0
1994,0.003724503481904517,0
1995,0.009091324029406248,0
1996,0.08273012338422243,0
1997,0.06475044603654723,0
1998,-0.05542203769147886,0
1999,0.005658167984991656,0
2000,0.31227946607320894,0
2001,3.8769746357248707,0
2002,6.768687824942837,0
2003,-0.7834488477931795,0
2004,-1.6422344999147438,0
2005,1.5201401088726376,0
2006,-0.848312524354704,0
2007,0.16295567963520757,0
2008,-0.030637279160601483,0
2009,-0.12334331373246721,0
2010,-0.10191306796736951,0
2011,-0.12260478024920146,0
2012,-0.01100869038610372,0
2013,-0.03031617127659231,0
2014,-0.07525045168135176,0
2015,-0.10016974972549961,0
2016,0.08078425105017327,0
2017,-0.017023530593505448,0
2018,0.00800297895983192,0
2019,-0.05091337889332567,0
2020,0.3110061261009476,0
2021,3.8934085124131133,0
2022,6.802237078243109,0
2023,-0.7651054390420167,0
2024,-1.6345983274305873,0
2025,1.4977160654934527,0
2026,-0.6176606528614913,0
2027,0.24022479617582526,0
2028,0.004127815356553294,0
2029,0.01211448483381831,0
2030,0.09921928014779349,0
2031,0.05261277616433188,0
2032,0.011111623888397128,0
2033,0.09042313667839408,0
2034,0.09941782581332992,0
2035,0.01779567979858853,0
2036,0.07924443672076825,0
2037,0.10449951391453657,0
2038,0.03489253595582555,0
2039,-0.005905275908414189,0
2040,0.34764439065915004,0
2041,3.8961080315697405,0
2042,6.731684585295777,0
2043,-0.8619525348754357,0
2044,-1.6147949638417054,0
2045,1.4638564990375786,0
2046,-0.78436012317121,0
2047,0.12038944161204934,0
2048,0.01305024223699381,0
2049,-0.01880391034608213,0
2050,0.045628306684883276,0
2051,-0.07825536238390932,0
2052,-0.03283398651379804,0
2053,-0.0704273638347552,0
2054,-0.045775078373700595,0
2055,-0.008947391241501214,0
2056,-0.15670011505190512,0
2057,-0.07496842389383493,0
2058,-0.07278296648826191,0
2059,0.018319318586996855,0
2060,0.2939785923183982,0
2061,3.885399603685291,0
2062,6.652076216728832,0
2063,-0.8401879750201872,0
2064,-1.6442015477517216,0
2065,1.4985452924915943,0
2066,-0.7782178655421181,0
2067,0.17210388481115077,0
2068,0.016539737712999953,0
2069,-0.0640242361404713,0
2070,-0.007784916310974615,0
2071,0.03498740261964672,0
2072,0.011746162183095701,0
2073,0.04999414948000878,0
2074,0.059848969492095096,0
2075,0.020346584570794638,0
2076,-0.023767388716497043,0
2077,0.04320486406308564,0
2078,0.014010272517937175,0
2079,-0.043620195525621845,0
2080,0.31511603415174727,0
2081,3.9437333087186017,0
2082,6.782175326075355,0
2083,-0.8303842795767883,0
2084,-1.7205475162982844,0
2085,1.4379939285558612,0
2086,-0.7207465272063023,0
2087,0.19261966727857244,0
2088,0.01577156931203797,0
2089,0.022567126373415194,0
2090,-0.00453987880386815,0
2091,-0.01272773684295973,0
2092,0.040119136568140326,0
2093,0.01694043590841217,0
2094,-0.025781165944610607,0
2095,-0.048247992022686995,0
2096,-0.0012590086391928157,0
2097,0.006598828589880611,0
2098,-0.045598792810955587,0
2099,-0.047732206344801076,0
2100,0.3390915780070244,0
2101,3.8782704680846085,0
2102,6.738693204702889,0
2103,-0.8294785419355112,0
2104,-1.5751161539353404,0
2105,1.4545177841795753,0
2106,-0.8288727795619159,0
2107,0.20621830500134972,0
2108,0.028952093266646554,0
2109,-0.0503885719292258,0
2110,0.1288006508463967,0
2111,0.06258231084955873,0
2112,0.09692694607629496,0
2113,0.040108521413668205,0
2114,0.09737316545545019,0
2115,-0.043981453465727204,0
2116,-0.06169848695851099,0
2117,0.04085209362317465,0
2118,-0.02981729882570866,0
2119,-0.0687408606113979,0
2120,0.3570683792486655,0
2121,3.854294791557962,0
2122,6.620490974407804,0
2123,-0.9269237997880083,0
2124,-1.7340631734224123,0
2125,1.3814207369096676,0
2126,-0.7990591845631156,0
2127,0.19607746891067418,0
2128,-0.011260533196729147,0
2129,-0.11655781751609087,0
2130,0.010205399596119056,0
2131,-0.0683262688736822,0
2132,0.03145898837550007,0
2133,0.04110274033210108,0
2134,0.01915763997404256,0
2135,0.02268646951361324,0
2136,-0.02217991477033902,0
2137,0.008706326378306588,0
2138,-0.001999238768764601,0
2139,0.1245588925770729,0
2140,0.3730385787799167,0
2141,3.9075233719198885,0
2142,6.73844835750197,0
2143,-0.8114350908136365,0
2144,-1.5920314402675282,0
2145,1.5045007116620261,0
2146,-0.7697863826452638,0
2147,0.14558297804139547,0
2148,0.0015635040917037352,0
2149,-0.02958844297181751,0
2150,-0.04521338130242469,0
2151,-0.05402705166663275,0
2152,0.027399749152649353,0
2153,0.06860305097453215,0
2154,-0.0079961135892318,0
2155,0.017733562935867354,0
2156,0.12428539646700465,0
2157,0.06561228535378633,0
2158,0.03332788535216279,0
2159,0.07515106460846926,0
2160,0.4160154080104138,0
2161,3.9213412191276147,0
2162,6.7317053884084,0
2163,-0.7288233576960814,0
2164,-1.5688561341562526,0
2165,1.5224927268631079,0
2166,-0.7305821406224026,0
2167,0.19465672061108413,0
2168,0.04964606384362938,0
2169,0.039442074067837465,0
2170,-0.012226062887478798,0
2171,-0.06530407951611507,0
2172,0.007740357368343771,0
2173,0.01707492997086591,0
2174,-0.05901091093946664,0
2175,0.09822810911500188,0
2176,0.06288050182024126,0
2177,0.03375025776337781,0
2178,0.14276424830887788,0
2179,0.1178037665008035,0
2180,0.364790783108062,0
2181,3.9200008252506358,0
2182,6.765581399763536,0
2183,-0.9575353870114283,0
2184,-1.5545870367983348,0
2185,1.5243999506371904,0
2186,-0.7991292926452619,0
2187,0.20999632265037227,0
2188,-0.009566592789667518,0
2189,-0.06794832923504276,0
2190,-0.0029081875657814074,0
2191,-0.02696386619497068,0
2192,-0.03397889817094806,0
2193,-0.04808617098600822,0
2194,-0.07570855797059958,0
2195,-0.01791579740006586,0
2196,-0.05469782349546931,0
2197,-0.02297738573053392,0
2198,0.0695268161704359,0
2199,0.018586774412149863,0
2200,0.4105901691620215,0
2201,3.8963104000258166,0
2202,6.71028521620113,0
2203,-0.825553766674204,0
2204,-1.544356241670489,0
2205,1.5259510258365698,0
2206,-0.7409778933717936,0
2207,0.20572032897132045,0
2208,-0.012554107778809956,0
2209,0.07443401452998943,0
2210,0.04794797048307684,0
2211,0.08692222627693347,0
2212,0.03139208690476603,0
2213,0.0031547104221205484,0
2214,0.049803569155909694,0
2215,0.028298871356207546,0
2216,-0.07390721380787399,0
2217,0.06510058579256564,0
2218,0.12653590545768745,0
2219,-0.06918078867959696,0
2220,0.3798485770728089,0
2221,3.9501704167361664,0
2222,6.671884966031322,0
2223,-0.9493228921978467,0
2224,-1.559180479099476,0
2225,1.4812017297603577,0
2226,-0.7504750376492706,0
2227,0.2607201712439773,0
2228,-0.025044646533938356,0
2229,0.00766079099518828,0
2230,0.024994169094054552,0
2231,-0.013621490285359042,0
2232,-0.04223217698081533,0
2233,-0.0029647160957269048,0
2234,-0.022253653940903406,0
2235,0.033047984294996315,0
2236,0.06534767259167876,0
2237,-0.0011585883531919257,0
2238,0.03155118607215,0
2239,0.05432718982665671,0
2240,0.3947413896289162,0
2241,3.840097567293986,0
2242,6.70326544820448,0
2243,-0.9029812601922621,0
2244,-1.5758122991914802,0
2245,1.4976263388787692,0
2246,-0.8477210273775296,0
2247,0.18481383120066758,0
2248,-0.08789520424294497,0
2249,-0.09319994808345664,0
2250,-0.02564949212247686,0
2251,0.013620056048317711,0
2252,-0.03622383921125554,0
2253,-0.03274677186472679,0
2254,-0.0053009992985246735,0
2255,-0.028867765802016103,0
2256,0.0034595133157918467,0
2257,0.016863310427745214,0
2258,0.02380845022842957,0
2259,-0.02290683012391012,0
2260,0.4119820576242518,0
2261,3.8978376833580777,0
2262,6.626806283926961,0
2263,-0.8255817119541825,0
2264,-1.5918226918996117,0
2265,1.4121367334312231,0
2266,-0.8131161250600685,0
2267,0.2240175831240963,0
2268,-0.04277814072136453,0
2269,-0.08353270166452384,0
2270,0.010091161229653738,0
2271,0.0044082761918269875,0
2272,-0.03017089289246205,0
2273,0.021129539508476472,0
2274,-0.07567774535899992,0
2275,0.008762471515902232,0
2276,-0.010493789253224733,0
2277,0.015338516043921908,0
2278,-0.06430708895854502,0
2279,-0.08829589451890614,0
2280,0.3396952198359845,0
2281,3.9088541770855194,0
2282,6.690536564416011,0
2283,-0.8879001438413335,0
2284,-1.6825379898224513,0
2285,1.4248592802663596,0
2286,-0.7706181754571351,0
2287,0.16708720565417237,0
2288,-0.05997771727467104,0
2289,-0.06582205316433198,0
2290,0.006483694552024556,0
2291,-0.022265526631892428,0
2292,-0.030994603939138523,0
2293,0.043513966305536576,0
2294,0.06481871579844543,0
2295,-0.10061532548711558,0
2296,-0.09532146259915361,0
2297,-0.05224738304872757,0
2298,-0.028798201675865085,0
2299,0.08584896208559804,0
2300,0.36796156912086997,0
2301,3.926191911069905,0
2302,6.756064308633721,0
2303,-0.8526392045962565,0
2304,-1.5039278726842198,0
2305,1.4953338862065917,0
2306,-0.7114497049436853,0
2307,0.14858834239679972,0
2308,0.1411374400103049,0
2309,-0.060928033949789205,0
2310,0.01077311761152595,0
2311,-0.009028339059130397,0
2312,-0.03637601096724819,0
2313,0.06662576431904584,0
2314,0.04658316413347864,0
2315,0.005402435327071029,0
2316,0.05465116723720008,0
2317,0.05377511687904804,0
2318,0.034398196796118115,0
2319,0.03800617865672473,0
2320,0.4548269784177255,0
2321,3.9442079400778627,0
2322,6.783966913892687,0
2323,-0.9109020391198239,0
2324,-1.6392040202228726,0
2325,1.4760937545262707,0
2326,-0.8263187922230679,0
2327,0.22098104242230943,0
2328,0.01927021943866379,0
2329,0.043987888603130396,0
2330,0.03195874673872821,0
2331,-0.06398710999868415,0
2332,-0.014962172701609513,0
2333,-0.027768607411291252,0
2334,0.020270690602098018,0
2335,0.06546521065035929,0
2336,0.02385009293259152,0
2337,-0.031669956409033403,0
2338,-0.0037190112528095692,0
2339,0.04410549549465867,0
2340,0.46233019824708904,0
2341,3.9039378759969408,0
2342,6.5952463804837835,0
2343,-0.8780056439079202,0
2344,-1.6003707895002226,0
2345,1.3536286624957605,0
2346,-0.8494866884505695,0
2347,0.10839799854359397,0
2348,-0.046446987839801473,0
2349,-0.13026375000226612,0
2350,-0.18294155954755986,0
2351,-0.0715286302656559,0
2352,-0.08711833766525283,0
2353,-0.015992621639223915,0
2354,-0.1374619495519389,0
2355,-0.09879114629993735,0
2356,-0.04223339478182661,0
2357,-0.03212496299215867,0
2358,-0.11760991121260372,0
2359,-0.1420261456874933,0
2360,0.4027407136998793,0
2361,3.9276271613487235,0
2362,6.6993842339677405,0
2363,-0.8692160707402737,0
2364,-1.5548872449409925,0
2365,1.5027855100303456,0
2366,-0.6965661726651601,0
2367,0.2272743352728202,0
2368,0.052596240314929106,0
2369,-0.011929484106332591,0
2370,0.028463354509443588,0
2371,-0.012504958369412782,0
2372,0.05332889914583915,0
2373,-0.07034499867851889,0
2374,-0.07571144802673009,0
2375,-0.03550142209845564,0
2376,0.0008063798246983958,0
2377,-0.008104078426318682,0
2378,-0.11440504219346166,0
2379,-0.08568418361882066,0
2380,0.31192206657474436,0
2381,3.953692090863872,0
2382,6.692430367893548,0
2383,-0.9669591432491169,0
2384,-1.6670262301838101,0
2385,1.4380441701759288,0
2386,-0.7523880306475565,0
2387,0.1935267223056103,0
2388,0.05474793623977482,0
2389,-0.0840117885544018,0
2390,-0.026623096177542938,0
2391,-0.00030951945773917064,0
2392,0.044737883566113135,0
2393,0.09548094035151843,0
2394,0.05501711067542406,0
2395,-0.025018205045930626,0
2396,-0.032195013743363185,0
2397,0.09778675984050153,0
2398,0.036065652124515596,0
2399,0.057790572200416584,0
2400,0.3006795195591868,0
2401,3.877581294659045,0
2402,6.680623305260673,0
2403,-0.9846944300093502,0
2404,-1.6147028960031453,0
2405,1.4874287758126286,0
2406,-0.8026925935823629,0
2407,0.1881730661862244,0
2408,-0.10439834069080622,0
2409,0.0014075506012195677,0
2410,-0.015651216844240177,0
2411,-0.026481807067532386,0
2412,-0.059385690554327714,0
2413,0.06097429000695022,0
2414,-0.036354801284553484,0
2415,-0.11124941408082328,0
2416,-0.07142421354718705,0
2417,0.024438948237792586,0
2418,-0.01013627645360007,0
2419,0.01537585350872203,0
2420,0.36528394240075823,0
2421,3.9410199437583295,0
2422,6.618575137912414,0
2423,-0.992034411122088,0
2424,-1.5731977447372283,0
2425,1.4282898341150352,0
2426,-0.6683296810653474,0
2427,0.18546190086550193,0
2428,-0.016971249256581503,0
2429,0.03606756295332242,0
2430,-0.006367328199976721,0
2431,-0.059785678043694605,0
2432,0.10592813817497586,0
2433,0.0410612761866094,0
2434,-0.025277550525757246,0
2435,0.024320370878143392,0
2436,0.11028140202679801,0
2437,0.031586765713467246,0
2438,0.04770595486267378,0
2439,0.015147921474261677,0
2440,0.4790383793323966,0
2441,4.0110928638511565,0
2442,6.838093047993232,0
2443,-0.9677299251955693,0
2444,-1.5092203590685815,0
2445,1.5737478236208815,0
2446,-0.7558852260519175,0
2447,0.1696935444118639,0
2448,0.031500298389658635,0
2449,0.019467435023115282,0
2450,0.101103782841748,0
2451,-0.07418127283668283,0
2452,0.04792879722579684,0
2453,0.035446147689601526,0
2454,-0.09534994669812319,0
2455,0.030421888815156874,0
2456,-0.05183882416465052,0
2457,-0.008831642694154852,0
2458,-0.06812628599463888,0
2459,0.14474700023716286,0
2460,0.40143297808300765,0
2461,3.9582291326642305,0
2462,6.653205736357364,0
2463,-0.9356466022567503,0
2464,-1.575346839440287,0
2465,1.4235343751758012,0
2466,-0.8133439496971312,0
2467,0.1802923197397629,0
2468,0.05609019245330189,0
2469,-0.02696612088632496,0
2470,0.035197410152016204,0
2471,-0.037030964677802036,0
2472,0.01724989835573178,0
2473,-0.00029336810860406326,0
2474,0.05305992432298983,0
2475,-0.07568189587546305,0
2476,0.12585298005937554,0
2477,0.01882756196764524,0
2478,-0.02483747105245577,0
2479,0.023768832912243965,0
2480,0.3478381305546111,0
2481,4.019780211319818,0
2482,6.6455637078548015,0
2483,-0.8808486333445883,0
2484,-1.471681933933702,0
2485,1.470950871831918,0
2486,-0.7601093613975224,0
2487,0.2680113475832221,0
2488,0.06156743171131404,0
2489,-0.05579896339768737,0
2490,0.03436296481131306,0
2491,0.02634969646720222,0
2492,-0.11718715186882002,0
2493,0.02648018381640976,0
2494,-0.03419233102247574,0
2495,-0.008785384539003644,0
2496,0.019574788834872663,0
2497,-0.11199971127655363,0
2498,0.0389151015899619,0
2499,-0.03598455108615421,0
2500,0.35235364359497656,0
2501,3.9319168632273906,0
2502,6.649888647302125,0
2503,-0.8808040426603418,0
2504,-1.6417636878015869,0
2505,1.4706081450083996,0
2506,-0.8408306202192902,0
2507,0.28578816906073035,0
2508,0.040593611717167064,0
2509,-0.03653840837060813,0
2510,-0.00041547178764848695,0
2511,-0.01250840844986268,0
2512,-0.029287135741908443,0
2513,0.0965102216101808,0
2514,-0.08640509866430357,0
2515,-0.05620905029661456,0
2516,-0.06394763309048451,0
2517,-0.01917752378028406,0
2518,-0.010141110724858118,0
2519,-0.13307114061727116,0
2520,0.31821208009271995,0
2521,3.90109725935351,0
2522,6.655614062055757,0
2523,-0.9296527501880769,0
2524,-1.4960093503506886,0
2525,1.4869367852654427,0
2526,-0.7569185568797778,0
2527,0.21374006561177114,0
2528,0.04023803826020823,0
2529,-0.03190869830592338,0
2530,0.0015839982737198798,0
2531,0.08727863820456067,0
2532,0.0486266993683859,0
2533,0.06239054925898273,0
2534,0.05686311512785881,0
2535,0.03935508985432233,0
2536,0.04476964930829891,0
2537,0.05331618770713194,0
2538,0.06951814917548904,0
2539,0.1106184321090731,0
2540,0.36137327622410864,0
2541,3.9926244553702666,0
2542,6.641798293156167,0
2543,-0.922258139846592,0
2544,-1.6191764887210054,0
2545,1.537667101906286,0
2546,-0.8362931580972102,0
2547,0.20529055918483727,0
2548,-0.0025143225705762003,0
2549,-0.03415897325733816,0
2550,-0.01915818432409909,0
2551,-0.0016644887042128534,0
2552,-0.011402544081772218,0
2553,-0.12960784582001356,0
2554,-0.055127612242557605,0
2555,0.08914771220604364,0
2556,0.00631582739497971,0
2557,0.02954773804092021,0
2558,0.0028388393706801386,0
2559,0.05288904243517145,0
2560,0.44170271344847456,0
2561,3.9140703420989196,0
2562,6.713450336448467,0
2563,-0.847138638921062,0
2564,-1.497495356802637,0
2565,1.4841808528360123,0
2566,-0.8071036859625045,0
2567,0.2555243532697183,0
2568,0.02510568509420888,0
2569,-0.0655861967269613,0
2570,-0.09572581359154379,0
2571,0.03226858555115108,0
2572,-0.016981990872044744,0
2573,-0.09660239893916137,0
2574,-0.0648343725871443,0
2575,-0.00480257574768897,0
2576,-0.010426363009761686,0
2577,-0.05306833786796614,0
2578,0.06164587810527974,0
2579,-0.02295707557756146,0
2580,0.26696696878343057,0
2581,3.9738653858861004,0
2582,6.660181828982182,0
2583,-0.9938392940979743,0
2584,-1.5930383925942173,0
2585,1.494213886587893,0
2586,-0.715634251881878,0
2587,0.14225860709395882,0
2588,-0.004704971388345646,0
2589,-0.019739987193751557,0
2590,0.058931523476549265,0
2591,0.04494370117815913,0
2592,0.07564904661629664,0
2593,-0.0011769373475702255,0
2594,0.04203208672830689,0
2595,0.052462781371880665,0
2596,-0.008960757350099645,0
2597,-0.037625653958164404,0
2598,-0.06517907878638807,0
2599,0.027097468725982198,0
2600,0.39624445891244753,0
2601,3.9277214893157124,0
2602,6.608217081290988,0
2603,-0.8786112523935559,0
2604,-1.5323685020547009,0
2605,1.386787672210199,0
2606,-0.841845826416243,0
2607,0.22228627995443834,0
2608,0.0364682670523629,0
2609,0.03021244326906524,0
2610,0.011591248917174671,0
2611,0.056015740903701386,0
2612,-0.031696554942282885,0
2613,0.0020976391536734543,0
2614,0.037622029209229586,0
2615,0.03678246751556323,0
2616,0.01969270657250178,0
2617,0.09625137152594898,0
2618,-0.004319416551467472,0
2619,0.009525820079152507,0
2620,0.39644447111734943,0
2621,3.9457641371752787,0
2622,6.7810882903077,0
2623,-0.9682909286901834,0
2624,-1.5176614614052095,0
2625,1.554866594323734,0
2626,-0.8028889793732777,0
2627,0.2479497599157399,0
2628,0.05103879516373934,0
2629,-0.04414376469283826,0
2630,-0.07053482609767517,0
2631,-0.014334693570196406,0
2632,0.15724771848873792,0
2633,0.03165691341847085,0
2634,0.00805052833959297,0
2635,-0.07509948796201496,0
2636,0.0408165005053405,0
2637,0.14290811333803433,0
2638,0.0464777851108105,0
2639,0.13992624058568864,0
2640,0.45519340448433027,0
2641,3.9941552014483785,0
2642,6.714368466398445,0
2643,-0.9511174640713059,0
2644,-1.4867297214501018,0
2645,1.4605897710658196,0
2646,-0.7580108510199064,0
2647,0.29522633828706835,0
2648,-0.007153469393605966,0
2649,-0.06166739316795593,0
2650,0.03319885481499998,0
2651,0.018596072001118666,0
2652,0.09934959518735137,0
2653,0.06487229533617023,0
2654,0.013518738425288033,0
2655,0.052328174103814226,0
2656,0.108924339491249,0
2657,0.06542348325767997,0
2658,-0.004224093428687514,0
2659,0.007571516505847434,0
2660,0.37682422261121584,0
2661,3.983287229242844,0
2662,6.718011422999365,0
2663,-0.8545487652915497,0
2664,-1.4856809117558454,0
2665,1.5232729225730546,0
2666,-0.7735325481021655,0
2667,0.20152613705090847,0
2668,0.05782170075233209,0
2669,-0.010200829567347844,0
2670,0.008797243929490474,0
2671,0.04007311399277435,0
2672,0.03561368648839036,0
2673,-0.008796700797174276,0
2674,0.055533499947101966,0
2675,0.014428894711922918,0
2676,0.016937492307382094,0
2677,0.05683195606888394,0
2678,0.04135213276882079,0
2679,0.01911034451825114,0
2680,0.3863447709231961,0
2681,3.982137994173842,0
2682,6.665079229839333,0
2683,-0.8692638332442983,0
2684,-1.4079600483938477,0
2685,1.4574224384903673,0
2686,-0.7004803921690208,0
2687,0.2586275541301578,0
2688,-0.027003767902439572,0
2689,-0.006392842673724832,0
2690,0.08569773308889535,0
2691,-0.02887325633292554,0
2692,0.0806692785870702,0
2693,-0.03705070818584901,0
2694,0.005289034021281662,0
2695,0.019585079673534466,0
2696,0.005772056720648008,0
2697,0.006350552509335014,0
2698,0.030332371084838352,0
2699,-0.07334205168871004,0
2700,0.3996100114967841,0
2701,3.971666013021249,0
2702,6.7398768598928775,0
2703,-0.9610141363959362,0
2704,-1.4912420675326858,0
2705,1.4894419990373602,0
2706,-0.7703843661159235,0
2707,0.19456035545041572,0
2708,-0.05416748864674135,0
2709,0.029187599944138727,0
2710,0.003859995857626135,0
2711,0.03599322125953852,0
2712,0.023179863014221466,0
2713,0.028304061683814705,0
2714,-0.03332452917893288,0
2715,0.09055872407130024,0
2716,0.06365210826906947,0
2717,0.002236493032505546,0
2718,0.03270354925759052,0
2719,0.16037283111691794,0
2720,0.3462338289610054,0
2721,4.101813464040544,0
2722,6.702829153112208,0
2723,-0.9626262819382226,0
2724,-1.4720596925825917,0
2725,1.4628527332939654,0
2726,-0.7650735241653246,0
2727,0.2072447171862083,0
2728,0.056926232289532516,0
2729,0.08511440952464873,0
2730,0.165499463084659,0
2731,-0.0002712161682690414,0
2732,0.08505517880069015,0
2733,0.032687466037077804,0
2734,0.06295614869921859,0
2735,-0.006929357792057799,0
2736,-0.02309742498776863,0
2737,-0.02184770172579785,0
2738,-0.024066486510324423,0
2739,0.06641734809201595,0
2740,0.4169865269947254,0
2741,3.974142982917892,0
2742,6.673681306403287,0
2743,-1.0456923149006876,0
2744,-1.5048672556806446,0
2745,1.474377069102502,0
2746,-0.7578198251656816,0
2747,0.18243636922898054,0
2748,0.031703287332074226,0
2749,-0.005455454763437014,0
2750,0.08709441119252165,0
2751,0.017259039931275772,0
2752,-0.0774025175294845,0
2753,0.011654782524661515,0
2754,0.04281583132358882,0
2755,0.07743015887811863,0
2756,0.12612480610747467,0
2757,0.10887664689264973,0
2758,0.11607478186479198,0
2759,0.15172466297258858,0
2760,0.461417804871364,0
2761,4.058481101279552,0
2762,6.695959405368449,0
2763,-1.0099248165459576,0
2764,-1.4775866844340593,0
2765,1.402598903793427,0
2766,-0.8059350973381624,0
2767,0.20590473731572792,0
2768,0.008233446366197293,0
2769,0.006529229450210304,0
2770,0.07856076370780948,0
2771,0.04015823394909425,0
2772,0.05282929158900286,0
2773,0.05901216956333889,0
2774,0.04274608951012528,0
2775,-0.02019125480892879,0
2776,0.0656733397555871,0
2777,-0.002045659747680756,0
2778,-0.031219130601021588,0
2779,0.014683946281239908,0
2780,0.39205559261196404,0
2781,4.055224582970214,0
2782,6.680580178312063,0
2783,-1.0288697718060682,0
2784,-1.4357047004955057,0
2785,1.5580905595529528,0
2786,-0.7698973632006899,0
2787,0.23660043239746387,0
2788,-0.003103964373896751,0
2789,-0.07682581906992744,0
2790,0.11434698517166482,0
2791,0.03499416716946999,0
2792,-0.06796967815867386,0
2793,-0.024733385407820857,0
2794,0.008394221076199545,0
2795,0.03408605125425054,0
2796,0.038053856093771085,0
2797,0.01663543583599627,0
2798,-0.03112383380794308,0
2799,-0.04901067662946508,0
2800,0.35003647950137284,0
2801,3.9582243524228438,0
2802,6.618741004983258,0
2803,-1.0464848959496087,0
2804,-1.600959493933257,0
2805,1.3952065640476634,0
2806,-0.8557098864442456,0
2807,0.3195767830860743,0
2808,-0.13028691643332893,0
2809,-0.07440258613363022,0
2810,-0.11857660377774537,0
2811,-0.09937423520428136,0
2812,-0.035778841024727684,0
2813,-0.053230397628343425,0
2814,-0.04275754299599059,0
2815,-0.07755637271049567,0
2816,0.013495547322624979,0
2817,0.0038339132986091803,0
2818,-0.041708606944364415,0
2819,-0.055016719070147053,0
2820,0.4135905468474144,0
2821,3.9881046393682413,0
2822,6.663194784751499,0
2823,-1.047056166510594,0
2824,-1.4754445218186008,0
2825,1.4740315528177053,0
2826,-0.8840436942178861,0
2827,0.19021739118312783,0
2828,-0.04785406905849432,0
2829,-0.08788308521855107,0
2830,0.10681188860565786,0
2831,0.015237565590519048,0
2832,0.06736597474120866,0
2833,-0.07933843210932337,0
2834,-0.03881781615678501,0
2835,-0.07777952776941673,0
2836,-0.0706463690344914,0
2837,0.0001632255977771207,0
2838,0.014302539099395033,0
2839,0.0037201824414926053,0
2840,0.3660524678007218,0
2841,3.9962830604144575,0
2842,6.5954108742148945,0
2843,-1.021137955670864,0
2844,-1.4358368967149968,0
2845,1.4309143030161586,0
2846,-0.8528988496850628,0
2847,0.24457334660426033,0
2848,-0.06054863922885137,0
2849,-0.060000062297838844,0
2850,-0.005527733636416711,0
2851,-0.0017790403341037646,0
2852,-0.027924453920943445,0
2853,0.04211016670875764,0
2854,0.014183900932643354,0
2855,0.034531474422401356,0
2856,0.04927603292138909,0
2857,0.04048729207787245,0
2858,0.032496865538694825,0
2859,0.03148447477746916,0
2860,0.31764572408672753,0
2861,4.034595608331067,0
2862,6.716555811072113,0
2863,-0.9291832886718501,0
2864,-1.5416433405976924,0
2865,1.3896868208781774,0
2866,-0.7424078577449442,0
2867,0.250158091496942,0
2868,0.00790568465870621,0
2869,0.029934728424092755,0
2870,-0.04813253099853612,0
2871,0.01225305394652879,0
2872,0.0997375122255503,0
2873,-0.059651066063385376,0
2874,0.07782155937564697,0
2875,0.04189831790098832,0
2876,0.03195946438114017,0
2877,0.0089271548898978,0
2878,0.03996131724538731,0
2879,-0.010545224354000729,0
2880,0.3876452040932811,0
2881,4.019245033912184,0
2882,6.615345699491147,0
2883,-1.1035484868164969,0
2884,-1.4634410800714646,0
2885,1.5056762174382003,0
2886,-0.7847087331827315,0
2887,0.13510038219148718,0
2888,0.03351439084386081,0
2889,-0.04794767673130049,0
2890,0.09470755760098536,0
2891,0.029559218923296337,0
2892,-0.0781069584598898,0
2893,0.002198603326782008,0
2894,0.023608014524636314,0
2895,-0.002120698363958077,0
2896,-0.012823737842450285,0
2897,0.022308789737781068,0
2898,-0.025031433064109168,0
2899,-0.017252387376395933,0
2900,0.4142798475976241,0
2901,3.9884251663105728,0
2902,6.618119473728399,0
2903,-0.9918210461415817,0
2904,-1.4793116295654292,0
2905,1.3533649309792526,0
2906,-0.7965668269533605,0
2907,0.31082730848774287,0
2908,-0.10732801537373038,0
2909,-0.10175008531591977,0
2910,-0.05368986976791139,0
2911,-0.010960507591534503,0
2912,-0.07598328753864698,0
2913,0.03321598424489351,0
2914,-0.08463196571469508,0
2915,-0.0929693730340115,0
2916,-0.07955057084618299,0
2917,-0.04476883264810206,0
2918,-0.08401183001638242,0
2919,-0.020115835901471618,0
2920,0.383916319674259,0
2921,4.135954298762872,0
2922,6.628203064104038,0
2923,-0.9517571418525888,0
2924,-1.4635328903310703,0
2925,1.420015292373976,0
2926,-0.7577950354739875,0
2927,0.09479852652358198,0
2928,-0.07451572411182336,0
2929,-0.01796646674752914,0
2930,0.020708781548904036,0
2931,0.030558759732023356,0
2932,-0.015807599957107864,0
2933,-0.017852494313892464,0
2934,0.012996157290230681,0
2935,0.1452967885017622,0
2936,0.10992198059540326,0
2937,-0.025936056100075055,0
2938,-0.04394575169269386,0
2939,0.04620303843805687,0
2940,0.4077817524046722,0
2941,4.112658821870055,0
2942,6.6852707051916465,0
2943,-1.0648780941911755,0
2944,-1.4655467479268056,0
2945,1.4618367019528262,0
2946,-0.9086149380072888,0
2947,0.15735105787448742,0
2948,-0.1413668078579703,0
2949,0.06005655630550176,0
2950,-0.0718928378432489,0
2951,-0.12431690940712994,0
2952,-0.030630611425861244,0
2953,-0.07826642017763363,0
2954,-0.04697447389626362,0
2955,-0.0502666979874818,0
2956,-0.07547925253108743,0
2957,-0.03957193150217443,0
2958,-0.006785947880338233,0
2959,-0.0110267277408726,0
2960,0.3347556497902363,0
2961,3.9971740631356267,0
2962,6.641460057929366,0
2963,-1.0342052520093292,0
2964,-1.574212261813725,0
2965,1.3893803395554325,0
2966,-0.7594530279107055,0
2967,0.2508557097750436,0
2968,0.03252938343994313,0
2969,-0.009698196389342125,0
2970,-0.15595842033310953,0
2971,-0.08455412175828347,0
2972,-0.02226373915357859,0
2973,0.02760021185108686,0
2974,-0.007465043585084376,0
2975,0.032340361126324504,0
2976,0.04963342710519027,0
2977,0.07868917014362097,0
2978,-0.07760719882073303,0
2979,-0.0832658291021153,0
2980,0.4263905443914904,0
2981,4.0235902183186365,0
2982,6.617980301309548,0
2983,-1.0072092647633502,0
2984,-1.472346879418661,0
2985,1.4129401616949429,0
2986,-0.8056080727989599,0
2987,0.2499101116304989,0
2988,0.10739692013428365,0
2989,-0.03991980072106155,0
2990,0.044579931065436985,0
2991,-0.027218370201082184,0
2992,0.08490509059007842,0
2993,-0.031036470705171272,0
2994,-0.02751089404005721,0
2995,0.030145792946110295,0
2996,-0.0010115094061434876,0
2997,0.0004556030517341679,0
2998,0.018442589767603584,0
2999,0.015115826121856309,0
3000,0.5221250130886886,0
3001,4.0427326113992,0
3002,6.637310704602045,0
3003,-1.057028819345255,0
3004,-1.4203499769043681,0
3005,1.471815515375074,0
3006,-0.7158316088937791,0
3007,0.2716899996387095,0
3008,0.01918890460290114,0
3009,-0.018986859225820593,0
3010,-0.043468153963623565,0
3011,-0.009171743788880027,0
3012,-0.09584635098772842,0
3013,0.004081937857824624,0
3014,0.01256090759035461,0
3015,0.033384190315017395,0
3016,0.09648361314885187,0
3017,0.07807475135329367,0
3018,0.044371587384941645,0
3019,-0.004060483877377077,0
3020,0.4190727773769991,0
3021,4.047466431608607,0
3022,6.596534867700917,0
3023,-1.0079019495875634,0
3024,-1.4523560376195024,0
3025,1.5696716352156315,0
3026,-0.8014372518452885,0
3027,0.3103178077221356,0
3028,-0.005993020951254216,0
3029,-0.031306805170109794,0
3030,-0.05855133381373223,0
3031,-0.06596517409123337,0
3032,-0.047571226880449846,0
3033,-0.03036999011659619,0
3034,0.025940985080657564,0
3035,-0.014667789652635752,0
3036,-0.07129032793435924,0
3037,-0.02417923098654774,0
3038,-0.00906449619669459,0
3039,0.04446489270807424,0
3040,0.41995711269912134,0
3041,4.037571153546552,0
3042,6.6228626946490206,0
3043,-1.1349699718066883,0
3044,-1.5362660796394203,0
3045,1.4397233419263566,0
3046,-0.8034496514291544,0
3047,0.12230284272218385,0
3048,-0.010609204274185198,0
3049,-0.0033985174977742907,0
3050,-0.08344920604584209,0
3051,0.021103357499993407,0
3052,0.06303466910041823,0
3053,-0.030756747263866277,0
3054,0.015669651003052235,0
3055,-0.002936914974853903,0
3056,-0.07729862456222675,0
3057,-0.0025542749564811196,0
3058,-0.0062614548946815455,0
3059,0.0551068025914447,0
3060,0.3806443688414056,0
3061,3.995684502347127,0
3062,6.580328143850793,0
3063,-1.006425860928128,0
3064,-1.4465273085279153,0
3065,1.4339799953339831,0
3066,-0.7997581850446359,0
3067,0.3102946468222575,0
3068,0.03635457899424694,0
3069,-0.04818445396168707,0
3070,0.02306209998838349,0
3071,0.017564561274234572,0
3072,-0.08878023014353496,0
3073,0.007529684607283934,0
3074,-0.006062896568246502,0
3075,-0.03378889276785577,0
3076,0.027180300771131045,0
3077,0.02608919297566621,0
3078,-0.02314447925587186,0
3079,-0.03345682824212037,0
3080,0.38021616232030975,0
3081,4.122378979731561,0
3082,6.678790793617131,0
3083,-1.010148040900515,0
3084,-1.4397763327803845,0
3085,1.4311338460125058,0
3086,-0.77537973608938,0
3087,0.27271427612053833,0
3088,0.014876329192085869,0
3089,0.09102099187511867,0
3090,-0.005236154164453638,0
3091,0.04539612581687981,0
3092,-0.06464130370274966,0
3093,0.021912796745039674,0
3094,0.014425890737080657,0
3095,0.06364234160060214,0
3096,0.10011298890779315,0
3097,0.10566605633335911,0
3098,0.04541852529813998,0
3099,0.14235874126916812,0
3100,0.4998834996838901,0
3101,4.213156217774449,0
3102,6.742089921162014,0
3103,-1.044699523351342,0
3104,-1.3813568869912733,0
3105,1.4408865505295005,0
3106,-0.7336619110901871,0
3107,0.26080164492660873,0
3108,0.011824338928464167,0
3109,-0.021860514036019567,0
3110,0.004171772195549282,0
3111,-0.0413069826182441,0
3112,-0.015353828639148229,0
3113,0.010823150151408664,0
3114,0.033538090749780744,0
3115,0.03205838512063415,0
3116,0.031384718541902015,0
3117,0.06689847763354179,0
3118,0.06430571217461462,0
3119,0.05959937198422981,0
3120,0.4705989719135272,0
3121,4.071758461659115,0
3122,6.657199507323787,0
3123,-1.045213092640864,0
3124,-1.3591909318859137,0
3125,1.5371169252634893,0
3126,-0.5955476945141379,0
3127,0.27346377084939943,0
3128,-0.005206123377627582,0
3129,-0.014027874745316214,0
3130,0.13490618121788092,0
3131,0.012063520973506846,0
3132,0.12084923915635704,0
3133,0.0639661347861451,0
3134,0.0686536039988275,0
3135,0.09513572477952614,0
3136,0.09006762228641568,0
3137,0.039198997896034087,0
3138,-0.03586301080997241,0
3139,0.0395982144205621,0
3140,0.42806002414135225,0
3141,4.05888192110516,0
3142,6.591502394225779,0
3143,-0.9952567701629615,0
3144,-1.3775511979875514,0
3145,1.3790664963297241,0
3146,-0.7029586388137813,0
3147,0.20352649871928943,0
3148,-0.0007005877089241025,0
3149,-0.010001989851989579,0
3150,0.030274789319906823,0
3151,-0.026235888702597937,0
3152,0.1599908176900654,0
3153,0.021702917996371363,0
3154,-0.054128674703480165,0
3155,0.018444740149662957,0
3156,0.11854024332015814,0
3157,0.06900258966400596,0
3158,0.0852103298859753,0
3159,0.09204234507099132,0
3160,0.5108403391515952,0
3161,4.146386021404778,0
3162,6.661552399492602,0
3163,-1.0416714614638465,0
3164,-1.460191300796065,0
3165,1.5366912967556685,0
3166,-0.7193053708031542,0
3167,0.23735295107596965,0
3168,0.06809916103785825,0
3169,-0.051647910817941026,0
3170,0.13258164772618364,0
3171,0.002251016990034181,0
3172,0.013894652367613843,0
3173,-0.07786071092229209,0
3174,0.09884718745090872,0
3175,-0.01663795327863112,0
3176,0.012635991216059938,0
3177,0.003030670325193073,0
3178,-0.06932905540143727,0
3179,0.10255757233959314,0
3180,0.4580548326275308,0
3181,4.103206485614066,0
3182,6.644703350846069,0
3183,-1.0009231542948893,0
3184,-1.341897538597747,0
3185,1.4923353174425913,0
3186,-0.8009009183652613,0
3187,0.28871892216438305,0
3188,0.09075348227440355,0
3189,-0.07378332348889427,0
3190,0.06958794332508762,0
3191,0.1126738100668116,0
3192,0.028154006861006747,0
3193,-0.07198040337663972,0
3194,-0.0011406905449991307,0
3195,0.07909360614196678,0
3196,-0.006476668210891759,0
3197,0.0012905621597715977,0
3198,-0.06872236861469454,0
3199,-0.05513932592789788,0
3200,0.296691633786045,0
3201,4.02474188902722,0
3202,6.549479458540856,0
3203,-1.1095304636918055,0
3204,-1.5389577522363926,0
3205,1.4420919926628981,0
3206,-0.8012705193853811,0
3207,0.27850714704936785,0
3208,-0.015478561420658071,0
3209,-0.04248145489630591,0
3210,0.06545624322084775,0
3211,-0.03286361819260493,0
3212,-0.027655157447308665,0
3213,-0.026245077756971026,0
3214,-0.07121423444563349,0
3215,-0.02931323697397713,0
3216,0.0016115472775854872,0
3217,0.006885338404106118,0
3218,-0.04593030389410991,0
3219,-0.035386437480705926,0
3220,0.4380209403553048,0
3221,4.115517562722085,0
3222,6.645147376581445,0
3223,-1.039019959182694,0
3224,-1.4488404389702618,0
3225,1.492524577883604,0
3226,-0.6963174833976229,0
3227,0.19208523042051542,0
3228,-0.003879872290387075,0
3229,-0.041476435485289016,0
3230,0.1392077548882779,0
3231,0.01418933051752776,0
3232,0.09451575148364018,0
3233,0.10720191162144607,0
3234,-0.03710478310388236,0
3235,-0.012133610691122346,0
3236,0.06951235670527775,0
3237,0.09038486859722478,0
3238,0.01274660082774717,0
3239,0.06313964947068923,0
3240,0.48178390456011516,0
3241,4.016804758514925,0
3242,6.521013049304966,0
3243,-1.0689784479833344,0
3244,-1.4284633654103522,0
3245,1.5243329448417562,0
3246,-0.8361691093993847,0
3247,0.22198985029909057,0
3248,-0.01624775801917528,0
3249,-0.01958763976870846,0
3250,-0.0048899586808311,0
3251,0.08866270101457698,0
3252,0.1620908719542092,0
3253,0.08630496900968346,0
3254,-0.025876985624887182,0
3255,-0.027595803785547896,0
3256,0.009844227971681645,0
3257,-0.02662795141419073,0
3258,0.016283167231847404,0
3259,-0.013655240087665641,0
3260,0.4185214318289414,0
3261,4.138419032623735,0
3262,6.673534689147322,0
3263,-1.117943720500186,0
3264,-1.481508785689883,0
3265,1.4576372279659746,0
3266,-0.8775204795901648,0
3267,0.2617861032371047,0
3268,0.05547168647453016,0
3269,0.09338656297435277,0
3270,0.12410729843410691,0
3271,0.09178773312381008,0
3272,0.12356659947646335,0
3273,0.026124784622000845,0
3274,0.05294636401363293,0
3275,0.00954756856702696,0
3276,0.007053931037932486,0
3277,0.0805960207620087,0
3278,-0.015895671105370594,0
3279,0.0176592293190609,0
3280,0.358365631841988,0
3281,4.114488992968959,0
3282,6.592265084603783,0
3283,-1.175985315437741,0
3284,-1.4385119542641973,0
3285,1.420965461436625,0
3286,-0.8065295037733022,0
3287,0.2767186380400193,0
3288,-0.047350464623922686,0
3289,0.013062897755151043,0
3290,-0.03310168717019063,0
3291,-0.03502781805831269,0
3292,-0.02428452204281561,0
3293,-0.14726634818161524,0
3294,0.017389101581319063,0
3295,-0.05065450376162733,0
3296,-0.07754014834492301,0
3297,0.13910275849613296,0
3298,-0.03690830622145085,0
3299,0.01797812840780476,0
3300,0.46004263473635043,0
3301,4.144117560323712,0
3302,6.600287465708927,0
3303,-1.1360882426776084,0
3304,-1.2943663214172845,0
3305,1.3423104293649113,0
3306,-0.7781574569647792,0
3307,0.1952766348631074,0
3308,-0.06053916061058901,0
3309,-0.03618723873479402,0
3310,0.07792406962347864,0
3311,0.02833174285480624,0
3312,0.033578058760791195,0
3313,-0.0746938344568773,0
3314,-0.019315757201158686,0
3315,0.0256078235572288,0
3316,0.02233813041926474,0
3317,-0.012263836720565895,0
3318,-0.09670140233712407,0
3319,-0.006006616763946011,0
3320,0.37280780523376195,0
3321,4.0659921702524215,0
3322,6.600523705300082,0
3323,-1.144216569036234,0
3324,-1.4346785044468253,0
3325,1.4688036739908044,0
3326,-0.8330633167045309,0
3327,0.17008834577998935,0
3328,0.03540950856835484,0
3329,-0.10275840102784886,0
3330,0.030279187768124972,0
3331,0.014065768632930211,0
3332,-0.004605825675744901,0
3333,0.006058514327025168,0
3334,0.052007510183345755,0
3335,0.029858891012414956,0
3336,0.026741212915279533,0
3337,-0.07540591515071225,0
3338,-0.09693537817322764,0
3339,-0.07189615081082462,0
3340,0.475620088361591,0
3341,4.101390611507763,0
3342,6.5830782908271335,0
3343,-1.1161638037824742,0
3344,-1.377283144047491,0
3345,1.3950088996065038,0
3346,-0.755045978143109,0
3347,0.2734906001712001,0
3348,-0.052790913237918985,0
3349,0.027467633428816557,0
3350,0.039913897588708974,0
3351,0.11906486909729043,0
3352,0.021153288969625164,0
3353,0.019405132316641545,0
3354,0.03499715202306265,0
3355,0.05215538006553452,0
3356,0.03462248481360791,0
3357,0.10564469765056958,0
3358,0.10036178938601784,0
3359,0.11570965205945641,0
3360,0.3969664858241186,0
3361,4.10090271601334,0
3362,6.5822806285447815,0
3363,-1.0776617700131368,0
3364,-1.4005896341664457,0
3365,1.3930552827122518,0
3366,-0.8441579934423656,0
3367,0.24271418985014673,0
3368,-0.07328240170734376,0
3369,0.05772542862869319,0
3370,0.017927524323718774,0
3371,-0.10250224753653309,0
3372,-0.07363937551213263,0
3373,0.03495437680147124,0
3374,-0.03613799117125969,0
3375,-0.06139922785245114,0
3376,0.08796655514506126,0
3377,0.030106153118923878,0
3378,0.043051141832676845,0
3379,0.007348580292876094,0
3380,0.4078316814065202,0
3381,4.096416082833323,0
3382,6.594167584206699,0
3383,-1.0914444858036694,0
3384,-1.3850439635382765,0
3385,1.513123128068096,0
3386,-0.7479191942545872,0
3387,0.26931017189026424,0
3388,0.0535355642573581,0
3389,0.03775219403712422,0
3390,0.10611212368391036,0
3391,0.04168150475997247,0
3392,-0.016613201478769754,0
3393,0.0700279641930538,0
3394,0.01223703370284527,0
3395,-0.09760884678289677,0
3396,0.0972942721839801,0
3397,0.11596296417619276,0
3398,0.10146277091935807,0
3399,-0.06094579546694205,0
3400,0.4505451329591169,0
3401,4.166621744677138,0
3402,6.618941536050928,0
3403,-1.1232970587921234,0
3404,-1.3204758347425274,0
3405,1.4654619148242944,0
3406,-0.7393527571092807,0
3407,0.25176574574504784,0
3408,-0.033382390412241655,0
3409,0.07720876586729639,0
3410,0.07860433420024107,0
3411,-0.08336112177343852,0
3412,0.020317437420656566,0
3413,0.12355714405435769,0
3414,0.053220499318944764,0
3415,0.01715403846759492,0
3416,-0.003146279822247182,0
3417,0.10718570853875597,0
3418,0.08987363034328698,0
3419,-0.0446591961902427,0
3420,0.39547688219161165,0
3421,4.039446957188926,0
3422,6.612829104532574,0
3423,-1.209684689554521,0
3424,-1.4198827884027154,0
3425,1.4108771180232031,0
3426,-0.7961901286792333,0
3427,0.24192905899290493,0
3428,-0.02194838905795761,0
3429,-0.02875770963055926,0
3430,0.05940668491216737,0
3431,0.06255308595416463,0
3432,0.001622275756572103,0
3433,-0.007701692078933092,0
3434,-0.0001212226956449694,0
3435,0.06332023671863769,0
3436,0.07946922976686943,0
3437,-0.0014122678904681558,0
3438,-0.012076725031391171,0
3439,0.05491770073944357,0
3440,0.4251037450673929,0
3441,4.155055674629299,0
3442,6.547219730741938,0
3443,-1.1959461519156744,0
3444,-1.373123537803154,0
3445,1.496969875091672,0
3446,-0.799897198022426,0
3447,0.26345284595843316,0
3448,0.017266621986775726,0
3449,-0.1326942771555534,0
3450,0.07265911453454174,0
3451,0.02457191999648938,0
3452,0.026068375364417376,0
3453,0.02200308628454644,0
3454,0.03522063160257287,0
3455,0.03378388876477019,0
3456,-0.0405662717593395,0
3457,-0.06424382840222954,0
3458,0.025832199897674806,0
3459,-0.01681587664938983,0
3460,0.36099416491142733,0
3461,4.167183758420478,0
3462,6.549132769485409,0
3463,-1.1680291121980457,0
3464,-1.53387501512381,0
3465,1.4271657697575115,0
3466,-0.8927264032740346,0
3467,0.19376800032031768,0
3468,-0.12262165729005026,0
3469,-0.050217375552937836,0
3470,-0.12006631323435084,0
3471,-0.020869491437088897,0
3472,0.0632213302989643,0
3473,-0.04240589718720353,0
3474,-0.04859172832719326,0
3475,-0.03872212257601621,0
3476,-0.03751281494624417,0
3477,-0.0827235607824499,0
3478,-0.010083019194498126,0
3479,-0.022699570964084505,0
3480,0.4490167426063902,0
3481,4.154091108404471,0
3482,6.649576802618155,0
3483,-1.134282523650377,0
3484,-1.3649656850551166,0
3485,1.4388893550702193,0
3486,-0.8604000798837591,0
3487,0.2609713544573741,0
3488,-0.09268348531649534,0
3489,-0.09122276853633698,0
3490,0.02064182324931839,0
3491,0.034608241734555706,0
3492,-0.01290079790747306,0
3493,-0.06743313433881228,0
3494,0.016190492393689526,0
3495,-0.012905597055466924,0
3496,-0.011203733512209949,0
3497,-0.08491384901174023,0
3498,0.011791594227871308,0
3499,-0.018592086708875077,0
3500,0.3908867976328221,0
3501,4.0946426872628825,0
3502,6.52644119599394,0
3503,-1.1221633429186766,0
3504,-1.393031398378956,0
3505,1.3200717189286169,0
3506,-0.7932352736296503,0
3507,0.24800291433644664,0
3508,-0.014890427120289686,0
3509,0.013501289405713723,0
3510,0.039745792909684205,0
3511,-0.01397196595294049,0
3512,0.038018424164118166,0
3513,-0.06009663280601918,0
3514,0.05509958913844052,0
3515,-0.013977855278382217,0
3516,0.008139878300312247,0
3517,0.016038511980062273,0
3518,-0.027136668611347666,0
3519,-0.021803816835738912,0
3520,0.35289435526587665,0
3521,4.035008847424414,0
3522,6.512255144859999,0
3523,-1.2935717929246981,0
3524,-1.3203023110767076,0
3525,1.2423658701870246,0
3526,-0.7935313903920284,0
3527,0.14562257870649067,0
3528,-0.1592018688037466,0
3529,-0.07988490952478922,0
3530,0.12174922578197021,0
3531,-0.041644690403640265,0
3532,-0.014223942698711904,0
3533,-0.032212737981363246,0
3534,-0.059462532473681176,0
3535,-0.08907389854320172,0
3536,-0.0629643386587336,0
3537,-0.07719241828497148,0
3538,-0.08588243133126719,0
3539,-0.030408509113764845,0
3540,0.36027223006242526,0
3541,4.073498618341908,0
3542,6.509173230999344,0
3543,-1.2802488157251317,0
3544,-1.3985948906403196,0
3545,1.3225225593734018,0
3546,-0.8389402200451351,0
3547,0.2135597907983755,0
3548,-0.17453530770170617,0
3549,-0.06061069403431092,0
3550,0.0021890093014489305,0
3551,-0.05434191162727539,0
3552,-0.0007943339813723041,0
3553,-0.04191900119777503,0
3554,0.007674142263520228,0
3555,-0.05542097998890537,0
3556,-0.0593331631406077,0
3557,-0.011233396949417461,0
3558,-0.08374438965809684,0
3559,-0.0981143216677038,0
3560,0.2579227997229062,0
3561,4.018408177663171,0
3562,6.4370530747110895,0
3563,-1.2798542930720318,0
3564,-1.4069756578708863,0
3565,1.302554272975499,0
3566,-0.8313323499466676,0
3567,0.19026961116741137,0
3568,-0.07667816302665345,0
3569,-0.10751317310822543,0
3570,0.039102468171341276,0
3571,-0.05303947998971303,0
3572,0.04729138089280546,0
3573,-0.01079357586484129,0
3574,0.036420962893725116,0
3575,-0.05591893460897345,0
3576,0.023706529212825525,0
3577,-0.08343721446330324,0
3578,0.034799992610538746,0
3579,-0.056588572169805465,0
3580,0.4820303968468489,0
3581,4.150871949642376,0
3582,6.522765288720838,0
3583,-1.2643933889745604,0
3584,-1.3955166127630187,0
3585,1.3343040252067633,0
3586,-0.8046280150667343,0
3587,0.13701405118837487,0
3588,-0.13161372708430724,0
3589,-0.05264113533962199,0
3590,-0.05988323676783856,0
3591,-0.0936473096101185,0
3592,-0.09607866491790751,0
3593,-0.02776154141930318,0
3594,-0.0038651860364030607,0
3595,-0.04143317447587614,0
3596,-0.058417651972807585,0
3597,-0.18859156151106576,0
3598,-0.006410411928462353,0
3599,-0.04686366208196474,0
3600,0.37600679824768735,0
3601,4.161709424824975,0
3602,6.442565592559035,0
3603,-1.335964189069153,0
3604,-1.3568679829913952,0
3605,1.4021318582307343,0
3606,-0.9085505278613604,0
3607,0.1820665756678984,0
3608,-0.011443772562645685,0
3609,-0.059543743280058375,0
3610,0.032634169593956444,0
3611,-0.08121913049574958,0
3612,0.07372245982884583,0
3613,0.006462164521550668,0
3614,-0.0002159658461133463,0
3615,0.11453995616656351,0
3616,-0.06587070676323957,0
3617,0.036092376289455184,0
3618,-0.025137232777596573,0
3619,0.04792491098250824,0
3620,0.4597807404430958,0
3621,4.1015814653881755,0
3622,6.565138464849449,0
3623,-1.2523472524899457,0
3624,-1.4288488618863726,0
3625,1.349775992389965,0
3626,-0.9266011535476464,0
3627,0.3251654782519746,0
3628,-0.12746192512444535,0
3629,0.02970729881909792,0
3630,0.002637339150202969,0
3631,0.005767739930202791,0
3632,-0.11277273999384518,0
3633,0.0033305914731738776,0
3634,0.02248952580516072,0
3635,0.023019810916068355,0
3636,0.06271304877200329,0
3637,-0.038787267846140595,0
3638,0.03758470866693142,0
3639,0.0770543190823339,0
3640,0.5078461583835716,0
3641,4.121137416004284,0
3642,6.5309119993473725,0
3643,-1.2118671420593652,0
3644,-1.3463469293261945,0
3645,1.452393888453878,0
3646,-0.7308164770140047,0
3647,0.21815929787940935,0
3648,0.010971233609939417,0
3649,-0.04496383358282201,0
3650,0.029432470441311188,0
3651,0.03832452324727109,0
3652,-0.03198264228974462,0
3653,-0.023827772287894223,0
3654,-0.020878207030673432,0
3655,0.02863766737765688,0
3656,0.004730294441096312,0
3657,0.062594048995957,0
3658,-0.02056176061376631,0
3659,-0.029407346801312406,0
3660,0.4013026977805537,0
3661,4.131733987035836,0
3662,6.5122123041760664,0
3663,-1.2265783463201057,0
3664,-1.2702686258449927,0
3665,1.472929303993319,0
3666,-0.7286724675897844,0
3667,0.35677274858974745,0
3668,-0.013049699375612196,0
3669,0.06299540499659902,0
3670,0.08297739350720927,0
3671,-0.05246716389291467,0
3672,0.06857560607784205,0
3673,0.0491960248810783,0
3674,0.08694554255542096,0
3675,0.0474481753371875,0
3676,-0.08362402292530963,0
3677,0.06923059336020759,0
3678,0.054780408743103554,0
3679,-0.045561586330533435,0
3680,0.49916731232688816,0
3681,4.21083814838903,0
3682,6.5062559982862025,0
3683,-1.1725502847998877,0
3684,-1.318304597823263,0
3685,1.4368228564306968,0
3686,-0.8161411180463922,0
3687,0.2148691599146622,0
3688,-0.03418679578333761,0
3689,-0.15610839856633216,0
3690,-0.03477704310212943,0
3691,-0.08316186441153131,0
3692,-0.07220958955617182,0
3693,-0.04858801718711514,0
3694,-0.015085639198481347,0
3695,-0.038861153627943824,0
3696,-0.05618526405396055,0
3697,-0.007512029358787361,0
3698,0.005048600873691161,0
3699,-0.060980844225188305,0
3700,0.484776660815079,0
3701,4.093350105368794,0
3702,6.554134623890888,0
3703,-1.243837256597899,0
3704,-1.3513714302329918,0
3705,1.4140383234990024,0
3706,-0.7579824598652264,0
3707,0.1855667453120179,0
3708,0.03687126119305767,0
3709,0.034111278478261814,0
3710,0.07397923436911014,0
3711,0.022652114499558604,0
3712,0.08159520864602673,0
3713,0.050061733107658234,0
3714,-0.02348338898151074,0
3715,0.01350277517864664,0
3716,0.052177515963818435,0
3717,0.06671761582402153,0
3718,0.035175715416937384,0
3719,0.053882499737189754,0
3720,0.3966631630452547,0
3721,4.196191721815825,0
3722,6.506732490806763,0
3723,-1.232798885841436,0
3724,-1.2329526169189067,0
3725,1.402965616567938,0
3726,-0.8083243931331587,0
3727,0.24276284670016973,0
3728,-0.09102221584303917,0
3729,-0.04727822379929819,0
3730,0.07918341379400366,0
3731,0.011393270028547144,0
3732,-0.04063412410800913,0
3733,-0.04936101357539669,0
3734,0.03663649304669734,0
3735,0.0647289157410583,0
3736,0.10830709972289544,0
3737,0.02438610166272488,0
3738,0.022681306959665786,0
3739,-0.01812253242699534,0
3740,0.4488275990450822,0
3741,4.196813656064027,0
3742,6.588587089903836,0
3743,-1.2498706252688456,0
3744,-1.1936793673955093,0
3745,1.4302510730718623,0
3746,-0.778438195014512,0
3747,0.2501271182311365,0
3748,0.059748426113707856,0
3749,0.005302484167925423,0
3750,-0.0588494781038079,0
3751,0.13447469913307566,0
3752,0.0962758080254149,0
3753,0.03206519405300158,0
3754,0.04862235901652496,0
3755,0.08078412946729648,0
3756,0.03060702030503124,0
3757,0.07215563237444071,0
3758,-0.06717013099144943,0
3759,0.02045832412551062,0
3760,0.49234400159491487,0
3761,4.219224956387574,0
3762,6.4569780427108405,0
3763,-1.2567238580145255,0
3764,-1.3610366851826066,0
3765,1.3400466468632626,0
3766,-0.8231828119381361,0
3767,0.18689411279239393,0
3768,-0.042822203163972755,0
3769,0.001581481603733642,0
3770,0.030737270938638026,0
3771,-0.07071618102097835,0
3772,-0.0173285647288455,0
3773,-0.09115421385364957,0
3774,-0.016014667562726747,0
3775,-0.011745251422302691,0
3776,-0.07168947279497262,0
3777,-0.08824317660919698,0
3778,-0.03083869417970303,0
3779,-0.07133171379646402,0
3780,0.33111268026690543,0
3781,4.1371975975466455,0
3782,6.527825488591991,0
3783,-1.2808416049635793,0
3784,-1.3882736227958905,0
3785,1.3852793819534792,0
3786,-0.7814929206745981,0
3787,0.15165480801926862,0
3788,-0.08797041191768437,0
3789,-0.08088396139947254,0
3790,-0.05216569623726506,0
3791,0.10229127792533273,0
3792,0.09734809608996199,0
3793,0.033165626116104734,0
3794,0.05194631429199006,0
3795,0.08430640020702264,0
3796,0.0017637825012427307,0
3797,-0.07321270436691274,0
3798,-0.04533676018801994,0
3799,0.07151972253439368,0
3800,0.2861514900373137,0
3801,4.0861981377368135,0
3802,6.614870103747734,0
3803,-1.2716911576265313,0
3804,-1.3489970347824491,0
3805,1.3708018944899756,0
3806,-0.9101855593923489,0
3807,0.11002126335830537,0
3808,-0.12086526075608474,0
3809,-0.10925048499846565,0
3810,-0.06869438633495577,0
3811,-0.10711529938194789,0
3812,-0.040536281477522765,0
3813,-0.09118822911972868,0
3814,-0.05966966806109834,0
3815,-0.02204388997311383,0
3816,-0.02354037149408139,0
3817,-0.017296672345149318,0
3818,0.04418227226997179,0
3819,-0.0644336779306048,0
3820,0.4967256960217369,0
3821,4.240191256690691,0
3822,6.48546177931849,0
3823,-1.3122297669480225,0
3824,-1.3599564309291712,0
3825,1.4320761629530363,0
3826,-0.8321360857429024,0
3827,0.18251343791060873,0
3828,-0.029726023095539757,0
3829,-0.10296750162997764,0
3830,-0.0678330976575196,0
3831,-0.0023700144583269217,0
3832,-0.04147522862211224,0
3833,-0.08311974024439199,0
3834,0.03450391589983593,0
3835,0.06221070944236458,0
3836,-0.021309534294751912,0
3837,-0.03270213630021298,0
3838,0.05100914818468193,0
3839,0.10884801932747554,0
3840,0.4873728319598351,0
3841,4.323315501690557,0
3842,6.558458678977381,0
3843,-1.2042476957525106,0
3844,-1.2860289614439055,0
3845,1.4029366141903683,0
3846,-0.7490021964523222,0
3847,0.30886489476011775,0
3848,-0.07685427952155274,0
3849,0.07506886814624017,0
3850,0.06710985750730658,0
3851,0.054352374325986136,0
3852,-0.04922536086887582,0
3853,-0.07245668117439823,0
3854,-0.03965685848427561,0
3855,0.06171798380429141,0
3856,0.11120713843963588,0
3857,0.023075474548540295,0
3858,-0.050597835423128734,0
3859,-0.053376809861674236,0
3860,0.4229603002842315,0
3861,4.213485056615063,0
3862,6.48658629032113,0
3863,-1.2558779029335598,0
3864,-1.3714691625505304,0
3865,1.4471971311222054,0
3866,-0.8034662938861974,0
3867,0.1702263780299512,0
3868,0.00024947487509439925,0
3869,-0.03262549970031542,0
3870,-0.08816341921534837,0
3871,-0.1343428175641087,0
3872,-0.02102155671139836,0
3873,-0.06961239696740368,0
3874,-0.01615139553618567,0
3875,-0.05970052262607742,0
3876,-0.03459726202987078,0
3877,-0.03111110190420611,0
3878,-0.019715983983774974,0
3879,-0.01838309724194663,0
3880,0.3308441925397194,0
3881,4.191001034836112,0
3882,6.522626907165469,0
3883,-1.2792776278435638,0
3884,-1.278722509560822,0
3885,1.4037775471742326,0
3886,-0.7505165131528644,0
3887,0.3491208320516088,0
3888,-0.023961494579438525,0
3889,-0.0686438564471879,0
3890,0.05750686817183845,0
3891,0.014185332947946588,0
3892,-0.09852595489039045,0
3893,-0.08244159750764996,0
3894,-0.05294193932398128,0
3895,-0.0957236443557074,0
3896,-0.03266203335343176,0
3897,0.06816712793528446,0
3898,-0.07921241255777942,0
3899,-0.004082494778598679,0
3900,0.4403961647673148,0
3901,4.2155890896965715,0
3902,6.5663305311481315,0
3903,-1.2795771162389111,0
3904,-1.276563318178808,0
3905,1.3471761686993098,0
3906,-0.7464381357960204,0
3907,0.18842583887547257,0
3908,0.005430733023456286,0
3909,-0.019110191570106558,0
3910,-0.02578538021302454,0
3911,0.031968612653022935,0
3912,-0.07840490556904145,0
3913,0.01241155311455833,0
3914,-0.03106502429692848,0
3915,-0.07573369599433825,0
3916,0.10718681615953211,0
3917,-0.15789829567939861,0
3918,0.024701297695517557,0
3919,0.04570377254619124,0
3920,0.3404069921215245,0
3921,4.288781227905224,0
3922,6.527153871995762,0
3923,-1.336790395839842,0
3924,-1.3306547780469091,0
3925,1.3731468597559373,0
3926,-0.8004370984463365,0
3927,0.22740174678424707,0
3928,-0.0336339192656641,0
3929,-0.020784676887734645,0
3930,-0.04742162215514298,0
3931,-0.021766689844918793,0
3932,0.00248658033065784,0
3933,0.029848926348042572,0
3934,-0.043214424926673725,0
3935,0.026044642307222893,0
3936,-0.01278438761091812,0
3937,-0.06364832533537948,0
3938,0.022619931656595448,0
3939,0.011832725784715729,0
3940,0.3645555992855157,0
3941,4.175717098332367,0
3942,6.511495773185985,0
3943,-1.2408675317565414,0
3944,-1.2875588147266832,0
3945,1.3913799890473384,0
3946,-0.7725887711835306,0
3947,0.2756713775084169,0
3948,0.02296704582756813,0
3949,-0.0005120617971253434,0
3950,0.002352755193675962,0
3951,-0.015205648184442457,0
3952,0.07116154891669267,0
3953,-0.006969579679366483,0
3954,0.054587411982420314,0
3955,0.0741474407495536,0
3956,-0.016987769293893992,0
3957,-0.09003077793577527,0
3958,0.028293600031008122,0
3959,-0.00922396741264114,0
3960,-0.7874084010775488,1
3961,4.204273981091671,0
3962,6.537574556896596,0
3963,-1.3813684447496815,0
3964,-1.1814246639335553,0
3965,1.348924406929851,0
3966,-0.8265579522189602,0
3967,0.2617976796528028,0
3968,-0.0325758686561393,0
3969,0.03997578864458884,0
3970,0.0326234087297505,0
3971,0.06736251609568701,0
3972,-0.0085523476883098,0
3973,-0.020413522171204224,0
3974,0.029409329210456137,0
3975,-0.00984547431735261,0
3976,0.011283907821733666,0
3977,-0.026011154039277853,0
3978,0.030199019095015052,0
3979,-0.006926777578082846,0
3980,0.4633172422758607,0
3981,4.203153691102614,0
3982,6.48396396582528,0
3983,-1.260973339839291,0
3984,-1.3163819454885948,0
3985,1.4396333412336049,0
3986,-0.8453335630996341,0
3987,0.2793478119411629,0
3988,-0.0020582753513850877,0
3989,-0.017822555484523567,0
3990,0.09241753629699784,0
3991,0.058908462568732015,0
3992,0.017178750425230895,0
3993,0.016464293659850728,0
3994,0.12116305344800501,0
3995,0.06367958772573844,0
3996,0.02935849684490995,0
3997,0.08483157217530896,0
3998,0.07469454916761267,0
3999,-0.016691076676825956,0
4000,0.5824743407187961,0
4001,4.253717255507041,0
4002,6.587514220652773,0
4003,-1.2455469422117562,0
4004,-1.2385700419065595,0
4005,1.472719883668931,0
4006,-0.7900643185406114,0
4007,0.3676428261360891,0
4008,6.526672154142515e-05,0
4009,0.04051324971414074,0
4010,0.07480248266734132,0
4011,-0.01490305842745289,0
4012,0.045488314544088006,0
4013,0.028548162194440327,0
4014,0.16170068887215405,0
4015,0.059206598817694175,0
4016,0.07122903503489314,0
4017,0.02990126051450545,0
4018,0.015854092991583923,0
4019,0.05099564082169278,0
4020,0.49432934359831465,0
4021,4.2094014961034185,0
4022,6.486986145024572,0
4023,-1.277059870059658,0
4024,-1.2182609587518067,0
4025,1.3873753640203357,0
4026,-0.731808991965224,0
4027,0.3142029880249334,0
4028,-0.010429448127566146,0
4029,-0.05931070896399268,0
4030,0.04260453325490819,0
4031,0.18435594007572037,0
4032,0.06803938196709745,0
4033,-0.0037012215089070183,0
4034,0.004875160430649603,0
4035,0.0530933936831233,0
4036,0.09237706785710753,0
4037,-0.027835235283667728,0
4038,-0.018691256381348394,0
4039,0.09585000186288019,0
4040,0.45323674651141477,0
4041,4.268705194174586,0
4042,6.545927754861445,0
4043,-1.2197180267151542,0
4044,-1.2132238135924869,0
4045,1.3736444241388022,0
4046,-0.7017381798457081,0
4047,0.27558607844883476,0
4048,-0.02179432535594629,0
4049,-0.020933446782883787,0
4050,-0.012693773687937268,0
4051,-0.04724448562246084,0
4052,0.06520040223684398,0
4053,0.03995846870072841,0
4054,0.03734702123546538,0
4055,-0.06740079652583758,0
4056,-0.08025289512423044,0
4057,0.0066843873329239,0
4058,-0.04156538526113565,0
4059,-0.06662275046493035,0
4060,0.4430433963894268,0
4061,4.185149769547387,0
4062,6.429775892579714,0
4063,-1.3620293274323354,0
4064,-1.2420313714135178,0
4065,1.4144161910295072,0
4066,-0.800168695135087,0
4067,0.3022143858656915,0
4068,-0.049319928157435355,0
4069,-0.0010397304661891764,0
4070,0.012386168415114692,0
4071,0.02474820327858452,0
4072,0.02527967898604694,0
4073,0.003481141029171339,0
4074,0.004454656601808583,0
4075,0.04537831754675359,0
4076,0.16242639060027075,0
4077,0.08965963833450363,0
4078,-0.0005736450010726327,0
4079,0.06593068191215772,0
4080,0.3880490494830366,0
4081,4.22931195168792,0
4082,6.4749001778713895,0
4083,-1.353284308298157,0
4084,-1.4200521835136724,0
4085,1.354390097036929,0
4086,-0.7021219444382357,0
4087,0.26148813665053994,0
4088,-0.05948934974029192,0
4089,-0.06096451518465569,0
4090,0.07726362552484167,0
4091,-0.009141998845594045,0
4092,-0.012886142208549212,0
4093,0.08713310746898766,0
4094,-0.056274853270384326,0
4095,0.028399513779509795,0
4096,-0.007185247822039504,0
4097,0.06959951397149158,0
4098,-0.07158849119820913,0
4099,-0.03701034466411822,0
4100,0.43865249256796157,0
4101,4.116151411736978,0
4102,6.435060373157628,0
4103,-1.3670718835971976,0
4104,-1.452292255743406,0
4105,1.3677407274471678,0
4106,-0.794974054865067,0
4107,0.14221505994077752,0
4108,-0.04245756067248056,0
4109,-0.048410614806721576,0
4110,0.022351607448806397,0
4111,-0.1231243208773771,0
4112,0.004075518282765991,0
4113,-0.051328195309344335,0
4114,-0.029533867793745863,0
4115,0.05474635906900337,0
4116,-0.08631776084323348,0
4117,0.015236141530561902,0
4118,-0.09480013238623036,0
4119,-0.12188328221541125,0
4120,0.3437249649768854,0
4121,4.168672764765397,0
4122,6.405052709055896,0
4123,-1.4268452450098887,0
4124,-1.3842848381335728,0
4125,1.3159745804809269,0
4126,-0.7736583904503695,0
4127,0.20800147200391234,0
4128,-0.06774778160417484,0
4129,0.01763590032192923,0
4130,-0.10952502686800325,0
4131,-0.05765921645783716,0
4132,-0.09146657288801094,0
4133,-0.05617443921380169,0
4134,-0.11635954168936742,0
4135,-0.03114419411479146,0
4136,-0.09389125421210764,0
4137,-0.24712317225018618,0
4138,0.00745722110541483,0
4139,-0.0989010082831574,0
4140,0.3497086158111167,0
4141,4.190085906143704,0
4142,6.357106530524338,0
4143,-1.3897417950357098,0
4144,-1.4104107550240887,0
4145,1.2510665062678519,0
4146,-0.9351995915672945,0
4147,0.12161207893461287,0
4148,-0.20946212894236182,0
4149,-0.14202813203379713,0
4150,-0.07474630814210934,0
4151,-0.04595796040309693,0
4152,-0.06595136350635801,0
4153,-0.09440046501749111,0
4154,-0.05728733795422543,0
4155,-0.1359929366724705,0
4156,-0.0641680228762866,0
4157,-0.02552081325046022,0
4158,-0.07496418630028417,0
4159,-0.02992251227674777,0
4160,0.3681999529431687,0
4161,4.1940867460168505,0
4162,6.4254241298622645,0
4163,-1.3333994608380655,0
4164,-1.3371850102862375,0
4165,1.3041380355746683,0
4166,-0.9354819074464391,0
4167,0.1154356293134698,0
4168,-0.04288400837921413,0
4169,0.023775309582019205,0
4170,-0.036256978864686734,0
4171,-0.018716066242722387,0
4172,0.013834705733741383,0
4173,-0.07984820688965631,0
4174,-0.1037258426141166,0
4175,-0.0396486103150262,0
4176,-0.09637534596008183,0
4177,-0.09833990068639907,0
4178,-0.10431454470506626,0
4179,-0.10283341991197159,0
4180,0.3124184936099717,0
4181,4.170984624940122,0
4182,6.4625450421736685,0
4183,-1.5124186738334882,0
4184,-1.3020057078395049,0
4185,1.3642794201394917,0
4186,-0.812495595262743,0
4187,0.24046539424583574,0
4188,-0.09415819665017532,0
4189,-0.09732861517673572,0
4190,-0.11274112506406833,0
4191,-0.024301912273004753,0
4192,-0.10073605575693334,0
4193,-0.08688564507610977,0
4194,-0.021312190629495423,0
4195,-0.04264917220068254,0
4196,-0.09172304319464655,0
4197,-0.10705624836413907,0
4198,0.03654508951523319,0
4199,-0.07888591552314032,0
4200,0.39578117480949193,0
4201,4.117309741662095,0
4202,6.379636546864047,0
4203,-1.4979132254332335,0
4204,-1.363437133072089,0
4205,1.2258149661368491,0
4206,-0.8753334440089524,0
4207,0.032467319468038616,0
4208,-0.16053497314022047,0
4209,-0.18018822099451337,0
4210,-0.0687619855312252,0
4211,-0.20811438092922724,0
4212,-0.10702731586821239,0
4213,-0.11897935109043847,0
4214,-0.1253097418487384,0
4215,-0.03506027350206668,0
4216,-0.05785622332455318,0
4217,0.02828894874376365,0
4218,-0.07923804771747645,0
4219,-0.06712708283535923,0
4220,0.36737681616501305,0
4221,4.2301724582430555,0
4222,6.513594219998134,0
4223,-1.4408112941916753,0
4224,-1.2434353707051564,0
4225,1.373481766261061,0
4226,-0.78158434652845,0
4227,0.21396737022509346,0
4228,-0.1671649355266588,0
4229,-0.07035649626690099,0
4230,-0.07791720815283942,0
4231,0.03156994597761479,0
4232,-0.06881112135392588,0
4233,-0.1073467872005251,0
4234,-0.155283746860435,0
4235,-0.023070006069185592,0
4236,-0.017650590093120568,0
4237,-0.08036469827693211,0
4238,-0.09224001782528457,0
4239,-0.06821631594490934,0
4240,0.3998698106571744,0
4241,4.134340755967916,0
4242,6.425430299538403,0
4243,-1.4643941372711728,0
4244,-1.3277293230301312,0
4245,1.3544608606715,0
4246,-0.772920037134679,0
4247,0.1440421415154411,0
4248,-0.12881102576337178,0
4249,-0.0510053215659513,0
4250,0.010088517007780901,0
4251,0.044905179205912346,0
4252,0.03831400705754795,0
4253,0.015714979667518753,0
4254,-0.018335619537965038,0
4255,-0.038364473378946405,0
4256,0.010167692113676716,0
4257,-0.032362930759750615,0
4258,-0.03214050428261816,0
4259,-0.1544816884179529,0
4260,0.4517436993364322,0
4261,4.147594502764938,0
4262,6.427606861218148,0
4263,-1.4923481309381323,0
4264,-1.3468918775963212,0
4265,1.3197220458096768,0
4266,-0.8607806395724421,0
4267,0.24611731647685725,0
4268,-0.1374657024531547,0
4269,-0.1224932634119949,0
4270,-0.10331193506254539,0
4271,-0.1337778596465729,0
4272,0.0017815351698299148,0
4273,-0.06607793368485175,0
4274,0.08877496618846505,0
4275,-0.010184537400074592,0
4276,-0.01802839574067394,0
4277,0.0245825918517398,0
4278,0.034086381621947534,0
4279,0.007650431831784776,0
4280,0.4303786209425474,0
4281,4.182693179299144,0
4282,6.412706202563966,0
4283,-1.4462594487437188,0
4284,-1.225295558026171,0
4285,1.334624656281114,0
4286,-0.7577942349047788,0
4287,0.22724054594983906,0
4288,-0.030065662012973064,0
4289,-0.17903935500830903,0
4290,0.024689479980794952,0
4291,-0.07872328353428842,0
4292,0.052842567224522824,0
4293,-0.08787127835506565,0
4294,0.017101766938442592,0
4295,-0.0806088430877375,0
4296,-0.008965798502000976,0
4297,0.08105430097715957,0
4298,-0.028264980530812365,0
4299,-0.06467993548667753,0
4300,0.38639129092636,0
4301,4.1909699035609025,0
4302,6.400375923147225,0
4303,-1.3665005381430275,0
4304,-1.2950706229429914,0
4305,1.2728345539816377,0
4306,-0.7628340166867449,0
4307,0.10171828787312887,0
4308,0.01640968622590054,0
4309,-0.012346514809899331,0
4310,-0.0464346809710179,0
4311,-0.15504855711021173,0
4312,-0.017193711626091235,0
4313,-0.07190879082598386,0
4314,-0.14170910740275974,0
4315,-0.12234891053522268,0
4316,-0.12130093719347314,0
4317,-0.09834437398990155,0
4318,-0.0981164384521684,0
4319,-0.022624519040681183,0
4320,0.43974989924180985,0
4321,4.306451228759942,0
4322,6.394036848799453,0
4323,-1.5062960391078912,0
4324,-1.3441125854024711,0
4325,1.364685267732621,0
4326,-0.8829465346583276,0
4327,0.20036153374526197,0
4328,-0.0884685239284851,0
4329,-0.0683962950555737,0
4330,-0.08300085510517934,0
4331,-0.04374485577186582,0
4332,-0.083999127366506,0
4333,-0.09285460404207792,0
4334,0.015055567084690968,0
4335,-0.060294761215919215,0
4336,-0.08302545059730254,0
4337,-0.07829671519635481,0
4338,-0.08754213738371078,0
4339,-0.1830999279564936,0
4340,0.36112771597472776,0
4341,4.128210901209014,0
4342,6.3868939684237995,0
4343,-1.4155042208222741,0
4344,-1.2979329975623761,0
4345,1.2485335579844108,0
4346,-0.9027202993866638,0
4347,0.2691940667113375,0
4348,-0.16932245943938917,0
4349,-0.14060813786803622,0
4350,-0.01439591276116366,0
4351,-0.00635522249610436,0
4352,-0.0371280291290039,0
4353,-0.0757088908059009,0
4354,-0.018664010855746975,0
4355,0.026146441719171166,0
4356,-0.04242725983064802,0
4357,-0.10181646993815963,0
4358,0.018167177242045383,0
4359,-0.015248411229995644,0
4360,0.5163872430714392,0
4361,4.259227107075176,0
4362,6.429673845549186,0
4363,-1.431027345800418,0
4364,-1.279581990412358,0
4365,1.2823239073874562,0
4366,-0.8110777586423185,0
4367,0.10150270437067561,0
4368,-0.03408151586354883,0
4369,-0.059534857423925516,0
4370,-0.013968112506494344,0
4371,-0.0274427684580728,0
4372,-0.07940809678137879,0
4373,-0.06860215730874175,0
4374,-0.13350441681183692,0
4375,-0.169014010946887,0
4376,-0.011734272361372644,0
4377,-0.07257074611411488,0
4378,0.015093832351184874,0
4379,-0.050459617884658275,0
4380,0.3672802982694835,0
4381,4.31239211435065,0
4382,6.326432944040523,0
4383,-1.4534527144838685,0
4384,-1.2558154962987171,0
4385,1.3278395438933874,0
4386,-0.9168939471235964,0
4387,0.25597596458264865,0
4388,-0.034906880473715624,0
4389,-0.05084992340776101,0
4390,-0.02471918054080951,0
4391,0.06422209622083346,0
4392,0.1175820477707398,0
4393,0.05492384907008204,0
4394,0.05559927648784901,0
4395,0.07787279522509802,0
4396,0.03995924511298499,0
4397,0.022350516248450213,0
4398,-0.05948705974337793,0
4399,0.040798279567297736,0
4400,0.4930626151393688,0
4401,4.243002744496135,0
4402,6.389871003803932,0
4403,-1.3904864133362647,0
4404,-1.2632302927332468,0
4405,1.2527406659649527,0
4406,-0.7691985792691918,0
4407,0.24796352581691056,0
4408,-0.03442641146327022,0
4409,-0.11870107536546787,0
4410,-0.012034519076582081,0
4411,0.03494014652865944,0
4412,-0.0031138721635972956,0
4413,-0.026744647943629733,0
4414,0.039473276431299116,0
4415,-0.012023632131023417,0
4416,0.010608730034490766,0
4417,0.06567671714572977,0
4418,-0.06712161289694674,0
4419,-0.050762584445572766,0
4420,0.44168406306427616,0
4421,4.266180713414807,0
4422,6.522583173143375,0
4423,-1.440825516537839,0
4424,-1.1214208356371043,0
4425,1.3337938347686182,0
4426,-0.7721712575019122,0
4427,0.24644913700885118,0
4428,-0.028572149848416623,0
4429,0.06622235747041234,0
4430,0.004769614189722941,0
4431,0.026739541237890078,0
4432,-0.03046825658754715,0
4433,0.03732821710643591,0
4434,-0.00836752952710603,0
4435,0.037729273380432145,0
4436,0.013469116782341861,0
4437,-0.02376027825453844,0
4438,0.01376721292932945,0
4439,-0.010962744424481896,0
4440,0.554996054120069,0
4441,4.335454740654004,0
4442,6.431467881046071,0
4443,-1.4511092315317053,0
4444,-1.0794083304609312,0
4445,1.3451339111885565,0
4446,-0.831365965903896,0
4447,0.20243257869915496,0
4448,0.019498077097207675,0
4449,-0.011220991241216848,0
4450,0.021036743586892122,0
