timestamp,value-0,is_anomaly
0,0.20594603933214156,0.0
1,3.5600077193856685,0.0
2,6.873610420220544,0.0
3,-0.2845183962649429,0.0
4,-2.04618639741897,0.0
5,1.4490429233797706,0.0
6,-0.7438385806692306,0.0
7,0.15751106679515897,0.0
8,0.01106918702595535,0.0
9,0.05741267343871935,0.0
10,-0.02403980822122379,0.0
11,-0.07200522782568282,0.0
12,-0.03296726554205305,0.0
13,-0.04898196045176171,0.0
14,-0.03127448063336821,0.0
15,-0.06285640464179494,0.0
16,-0.10306990529711524,0.0
17,-0.016024711884065842,0.0
18,0.035672155802521414,0.0
19,0.10714497715983111,0.0
20,0.22070569380995603,0.0
21,3.5298945213829316,0.0
22,6.857842059521718,0.0
23,-0.20743262996796458,0.0
24,-2.03858439303054,0.0
25,1.555595784667159,0.0
26,-0.7301764739226787,0.0
27,0.1304767203275735,0.0
28,0.07796021213936158,0.0
29,-0.09279472856660892,0.0
30,0.08710527475777388,0.0
31,0.018836602959472995,0.0
32,-0.11905782301630019,0.0
33,-0.11378698322028942,0.0
34,-0.052358152549527,0.0
35,-0.161683341337082,0.0
36,-0.019138495771538908,0.0
37,-0.09976495628607558,0.0
38,-0.11019517081084773,0.0
39,-0.07173958048265985,0.0
40,0.21210007989060148,0.0
41,3.2471904475741806,0.0
42,6.777388041520676,0.0
43,-0.3413512701763113,0.0
44,-2.1495347754724508,0.0
45,1.452498492767663,0.0
46,-0.7626090136673236,0.0
47,0.05386637124165894,0.0
48,0.08438056055865542,0.0
49,-0.13690097642661678,0.0
50,-0.015661554328025414,0.0
51,-0.060751543743214995,0.0
52,-0.04395701639722952,0.0
53,-0.04525648357186464,0.0
54,0.04781279893477904,0.0
55,0.038634885389269055,0.0
56,0.019867835104116542,0.0
57,0.0015352718090281504,0.0
58,0.06302032898325112,0.0
59,0.007955645897933787,0.0
60,0.2641081537309587,0.0
61,3.363032816163038,0.0
62,6.877618175755411,0.0
63,-0.25549373158934063,0.0
64,-2.0354677092187967,0.0
65,1.456207020460414,0.0
66,-0.7118449838729839,0.0
67,0.1608260637056193,0.0
68,0.009686351373844663,0.0
69,0.002648513141608813,0.0
70,-0.025164366719937853,0.0
71,0.014895723211750485,0.0
72,0.01721235362958315,0.0
73,-0.08110853880778165,0.0
74,-0.008687293448251665,0.0
75,-0.02707758085302077,0.0
76,0.026459265341494616,0.0
77,0.10408825153037596,0.0
78,0.15231378021885777,0.0
79,0.15272455814623362,0.0
80,0.3450658700510781,0.0
81,3.6886354525687945,0.0
82,7.02168843190454,0.0
83,-0.1507559299095248,0.0
84,-1.7907940633466524,0.0
85,1.6570280354268179,0.0
86,-0.6322769101738855,0.0
87,0.30362810016866426,0.0
88,0.03916641665547347,0.0
89,-0.06475153927086327,0.0
90,0.12192272162639535,0.0
91,0.06462732864900962,0.0
92,0.043131824019959145,0.0
93,-0.016919871770035653,0.0
94,-0.04052494264262446,0.0
95,0.05631584328104524,0.0
96,-0.05662132651105963,0.0
97,-0.08385154714380204,0.0
98,0.036050693281256416,0.0
99,-0.01806155522985502,0.0
100,0.13833952648539027,0.0
101,3.4927050274939857,0.0
102,6.896325902504793,0.0
103,-0.25988364149845294,0.0
104,-1.9384083813978135,0.0
105,1.5885729291269541,0.0
106,-0.7569652351777203,0.0
107,0.14851141578098143,0.0
108,0.060538484563003356,0.0
109,-0.025773586793834315,0.0
110,0.09358242712327794,0.0
111,0.003011184074500595,0.0
112,0.03728679300690677,0.0
113,-0.016363476448160625,0.0
114,-0.07277034621284051,0.0
115,-0.0287394392789333,0.0
116,0.009559629273062769,0.0
117,-0.04619332483415327,0.0
118,0.07928171272078495,0.0
119,-0.022087678029353255,0.0
120,0.24404371576420814,0.0
121,3.5321667710531957,0.0
122,6.859058318707448,0.0
123,-0.32291615239083205,0.0
124,-1.9357221198810042,0.0
125,1.4235826896691817,0.0
126,-0.8040828634600262,0.0
127,0.1015453896693941,0.0
128,-0.010880016734597327,0.0
129,-0.07894487823971388,0.0
130,0.11629626818107637,0.0
131,-0.004591077094190293,0.0
132,0.019610384650613454,0.0
133,0.078402068132957,0.0
134,-0.0355920487107461,0.0
135,0.031882795624576535,0.0
136,0.1154724866546516,0.0
137,-0.007622111748796921,0.0
138,-0.051229463045947096,0.0
139,-0.016628303377417553,0.0
140,0.22254817940667104,0.0
141,3.487701056570698,0.0
142,6.95461747649447,0.0
143,-0.2411421729143011,0.0
144,-1.9460324835460505,0.0
145,1.5537076313695561,0.0
146,-0.7185085691901244,0.0
147,0.18233146612636827,0.0
148,0.014879285709262082,0.0
149,0.03038406651668038,0.0
150,0.0996767051668444,0.0
151,0.01089614527480559,0.0
152,0.048396142963229305,0.0
153,-0.10685097903693097,0.0
154,0.02608035174796431,0.0
155,0.03154484019055946,0.0
156,0.05473968873195703,0.0
157,0.01778918973023385,0.0
158,0.08027123784829898,0.0
159,-0.030539272574511223,0.0
160,0.29829606774732403,0.0
161,3.5597161416045537,0.0
162,6.8604912505838875,0.0
163,-0.2751909184555251,0.0
164,-1.9865849413798609,0.0
165,1.4365482986629328,0.0
166,-0.7273762551502085,0.0
167,0.19717866729947559,0.0
168,0.05749277849071099,0.0
169,-0.1604466898218976,0.0
170,-0.08563388196929367,0.0
171,-0.02584092368092107,0.0
172,-0.012074771952560293,0.0
173,0.04025652161200637,0.0
174,0.010170876200081705,0.0
175,-0.03943853183303848,0.0
176,-0.04843240587560596,0.0
177,-0.023328189079988276,0.0
178,-0.06342697229889618,0.0
179,-0.023253986893367065,0.0
180,0.28775562836132235,0.0
181,3.584579595795441,0.0
182,6.773854889516978,0.0
183,-0.3018354863679323,0.0
184,-1.8216405593584044,0.0
185,1.5694222870655865,0.0
186,-0.7231286757418586,0.0
187,-0.008523302600691285,0.0
188,-0.03052196986984828,0.0
189,-0.06658528406963671,0.0
190,0.06314884495923498,0.0
191,0.024217786688631775,0.0
192,-0.03281524282058909,0.0
193,-0.0031810259340254938,0.0
194,0.05542535328696353,0.0
195,-0.03132615872171122,0.0
196,-0.0032851732010926987,0.0
197,0.0264395838471375,0.0
198,0.14367327327866883,0.0
199,-0.0603081412116533,0.0
200,0.33038003932840543,0.0
201,3.5519205214901954,0.0
202,6.857760542790739,0.0
203,-0.34856625435560495,0.0
204,-1.9389385670709003,0.0
205,1.5346353623359872,0.0
206,-0.7494122245909531,0.0
207,0.12208449261210157,0.0
208,0.12972605022956354,0.0
209,0.03587348907436115,0.0
210,0.038262211970862534,0.0
211,0.06421623253108033,0.0
212,0.036306464396451424,0.0
213,0.056910035398449715,0.0
214,-0.0017156211298427655,0.0
215,-0.04870444829305889,0.0
216,0.0037200333568207615,0.0
217,0.025745321231393958,0.0
218,-0.09506940849178643,0.0
219,-0.028345098300695076,0.0
220,0.26872488883137896,0.0
221,3.571379988378078,0.0
222,6.889113845767158,0.0
223,-0.2968808217219315,0.0
224,-1.9820524611238048,0.0
225,1.511168506155171,0.0
226,-0.8398484704639352,0.0
227,0.15776948974811122,0.0
228,-0.006752654080170319,0.0
229,-0.020416931570869698,0.0
230,0.06712075464834087,0.0
231,-0.03719375280140276,0.0
232,-0.022680662729987804,0.0
233,0.023406649183112017,0.0
234,-0.02208524573512543,0.0
235,0.0037988478673014695,0.0
236,-0.07666256692999829,0.0
237,0.04963903191486169,0.0
238,0.07207845773033474,0.0
239,0.07949071287601153,0.0
240,0.3579523473965619,0.0
241,3.6369134570716497,0.0
242,6.829578729642237,0.0
243,-0.2389788035007654,0.0
244,-1.9564540450563466,0.0
245,1.4971393941828892,0.0
246,-0.7865903384247244,0.0
247,0.1438259690905684,0.0
248,0.06891095425121188,0.0
249,0.001395389251660266,0.0
250,-0.0018466373953171314,0.0
251,-0.1255643012802504,0.0
252,0.02025592236640629,0.0
253,0.0006851088487647324,0.0
254,0.02082167036714817,0.0
255,0.013002154558234447,0.0
256,-0.06812563117105111,0.0
257,0.011228776547638243,0.0
258,0.029996049847332062,0.0
259,0.010324436155380277,0.0
260,0.17035559368569625,0.0
261,3.4819587034103496,0.0
262,6.856633444260448,0.0
263,-0.34992230630902055,0.0
264,-2.0330813216029506,0.0
265,1.4915500442121659,0.0
266,-0.7342649575881438,0.0
267,0.12412910682218253,0.0
268,0.08450541111038695,0.0
269,-0.0558669129102147,0.0
270,0.04529901690234731,0.0
271,0.002956343393504344,0.0
272,0.005768498235608974,0.0
273,0.06302820533871514,0.0
274,-0.009992512266318735,0.0
275,-0.047394798236442846,0.0
276,0.004862057453344176,0.0
277,-0.029324218385740074,0.0
278,0.04074040592809257,0.0
279,0.0014667143993313991,0.0
280,0.29937811994159846,0.0
281,3.4962829590608515,0.0
282,6.907099271124256,0.0
283,-0.2701662145468871,0.0
284,-2.031648654008341,0.0
285,1.556629383983118,0.0
286,-0.753982700956663,0.0
287,0.13074907506883496,0.0
288,-0.03270089910932511,0.0
289,-0.004918695109003515,0.0
290,0.027876021834298687,0.0
291,0.010025246281176098,0.0
292,0.007429531880530176,0.0
293,0.012942023906928913,0.0
294,-0.0692550496344557,0.0
295,0.07438526618453106,0.0
296,-0.06223692996836526,0.0
297,-0.06181422289226496,0.0
298,0.06964009110436675,0.0
299,-0.009339980922802148,0.0
300,0.29385067551969607,0.0
301,3.5665711771359674,0.0
302,6.915615597722318,0.0
303,-0.37943858809011893,0.0
304,-1.9467831769431183,0.0
305,1.5918560002815076,0.0
306,-0.7637140334522967,0.0
307,0.08744842986308884,0.0
308,0.05612901498174326,0.0
309,-0.007709999779272739,0.0
310,0.11220960096709057,0.0
311,-0.0009019178122454188,0.0
312,-0.05073339364694514,0.0
313,-0.0067056315349307005,0.0
314,-0.09863283695447064,0.0
315,-0.008906730555704116,0.0
316,0.01185904636143844,0.0
317,-0.15978708064084143,0.0
318,-0.14719892767509435,0.0
319,-0.07199304288520364,0.0
320,0.3431061548393024,0.0
321,3.5363460237237345,0.0
322,6.751707774652281,0.0
323,-0.41206427814523694,0.0
324,-2.009317181997966,0.0
325,1.5240050639185214,0.0
326,-0.7887103754514182,0.0
327,0.10476097205373294,0.0
328,-0.05109958102428663,0.0
329,-0.030165927162379952,0.0
330,-0.00900593209740464,0.0
331,-0.05355040540387765,0.0
332,0.04201408961951077,0.0
333,-0.011814129781734933,0.0
334,0.0457437786566214,0.0
335,0.043285150693119064,0.0
336,0.04170206249082515,0.0
337,-0.025236318088399393,0.0
338,-0.06300677200681083,0.0
339,0.06102529310659572,0.0
340,0.2962158139960923,0.0
341,3.4419594955064996,0.0
342,6.787787342922419,0.0
343,-0.35376105036992506,0.0
344,-1.8589232696088052,0.0
345,1.4823033924383078,0.0
346,-0.7704750862447143,0.0
347,0.07710119648488326,0.0
348,0.10365149482272178,0.0
349,-0.10898331988633223,0.0
350,-0.027320370706161803,0.0
351,0.04304255223952778,0.0
352,0.07071579306475351,0.0
353,0.02364759373892805,0.0
354,-0.018679950335713652,0.0
355,-0.07714701499976931,0.0
356,-0.10238559902979229,0.0
357,0.02673373132166882,0.0
358,0.08952048846110693,0.0
359,-0.04518044025428891,0.0
360,0.3630946307027952,0.0
361,3.5595604823325973,0.0
362,6.791959902818238,0.0
363,-0.309884704126603,0.0
364,-1.928281364613187,0.0
365,1.501893773995997,0.0
366,-0.8115322042216814,0.0
367,0.09790282170330541,0.0
368,0.053519349307562435,0.0
369,-0.059454602579233726,0.0
370,-0.03735898779154401,0.0
371,0.020782452017270747,0.0
372,-0.04743060317824768,0.0
373,-0.07598182602330761,0.0
374,0.012008207680272553,0.0
375,-0.0910199332671846,0.0
376,-0.004989592496780458,0.0
377,-0.040885420045989704,0.0
378,-0.06266880810903963,0.0
379,-0.014279501237456632,0.0
380,0.19941651393585066,0.0
381,3.4400370301262573,0.0
382,6.862426344582458,0.0
383,-0.3168464805434652,0.0
384,-1.9606244253822125,0.0
385,1.513731328283264,0.0
386,-0.6795220597942767,0.0
387,0.20679816262359058,0.0
388,0.05450407082385214,0.0
389,-0.03468802341057206,0.0
390,0.044045907542160714,0.0
391,-0.030031018738597856,0.0
392,-0.03130996033949105,0.0
393,0.036088905868790606,0.0
394,-0.025994095638287796,0.0
395,-0.020634996920867107,0.0
396,0.034833524941968216,0.0
397,0.04984194042819681,0.0
398,0.005854789192086134,0.0
399,0.04507595543776257,0.0
400,0.31510598465208106,0.0
401,3.5818664385004433,0.0
402,6.837501517834949,0.0
403,-0.3249338878914256,0.0
404,-1.8886083854805122,0.0
405,1.5570040826261569,0.0
406,-0.7501709671822537,0.0
407,0.03529944878495955,0.0
408,-0.10977664611834802,0.0
409,-0.11254562078598622,0.0
410,0.07973396751326361,0.0
411,-0.08735087350582593,0.0
412,-0.0019092178559208784,0.0
413,0.007820796271002083,0.0
414,0.005065421849050937,0.0
415,0.015213736164665755,0.0
416,-0.01734865018884004,0.0
417,0.015179400728578716,0.0
418,-0.07604167123223386,0.0
419,0.07528186645212659,0.0
420,0.34537025300288404,0.0
421,3.5159115917254242,0.0
422,6.813919123880445,0.0
423,-0.4135124218054237,0.0
424,-1.9254383614504595,0.0
425,1.6138391829616832,0.0
426,-0.7328214046344355,0.0
427,0.13265500298488334,0.0
428,0.013760196908972072,0.0
429,-0.14334376414376632,0.0
430,-0.09988975066561287,0.0
431,-0.01338527664175999,0.0
432,-0.001984180818277722,0.0
433,-0.01597792575675794,0.0
434,-0.06612452687394649,0.0
435,0.05057151556427743,0.0
436,0.03973002153652113,0.0
437,-0.011515983274567487,0.0
438,-0.047904351500496725,0.0
439,0.027880893572403448,0.0
440,0.26920776721317613,0.0
441,3.5191854578561097,0.0
442,6.965149259059282,0.0
443,-0.3624307327804459,0.0
444,-2.0060820408119255,0.0
445,1.5200803616537608,0.0
446,-0.8000236729503036,0.0
447,0.0187215141543979,0.0
448,-0.06287632335504756,0.0
449,-0.2408047665554764,0.0
450,-0.05948016267973242,0.0
451,-0.16640757576637116,0.0
452,-0.020438653641565482,0.0
453,-0.09522969837631128,0.0
454,-0.14518177699516907,0.0
455,-0.09695245626885117,0.0
456,0.11284358024290644,0.0
457,-0.06353244134220748,0.0
458,0.01761856847350598,0.0
459,-0.09337023817579686,0.0
460,0.3065909132173074,0.0
461,3.5040678140689896,0.0
462,6.865965104340106,0.0
463,-0.28416102366848167,0.0
464,-1.9393156650593388,0.0
465,1.5950241974072177,0.0
466,-0.6980680963134491,0.0
467,0.13983521309017294,0.0
468,0.010488596306083224,0.0
469,-0.054092688571345186,0.0
470,0.006947419930790417,0.0
471,0.002858042815361575,0.0
472,-0.0017893773326562758,0.0
473,-0.11940717441120038,0.0
474,0.04006563762484795,0.0
475,0.06017207151714868,0.0
476,0.027920466388624762,0.0
477,-0.0003603158161076571,0.0
478,0.057662092369930355,0.0
479,0.0023595162294292836,0.0
480,0.3015715981408039,0.0
481,3.5598052991048292,0.0
482,6.797762576642561,0.0
483,-0.3304684921137471,0.0
484,-1.799771372810987,0.0
485,1.4913373668281384,0.0
486,-0.70773068130283,0.0
487,0.16382662786003946,0.0
488,0.008977813423741828,0.0
489,-0.040705902306461886,0.0
490,0.04097806592586815,0.0
491,0.05339442108344245,0.0
492,-0.0427026735641205,0.0
493,-0.09455880252562891,0.0
494,-0.003241083093870387,0.0
495,-0.07716950710534824,0.0
496,0.05985795820970022,0.0
497,0.04820317044028131,0.0
498,0.0058481484660958625,0.0
499,-0.0631146247770929,0.0
500,0.2660269685379753,0.0
501,3.568667403009507,0.0
502,6.801206580641837,0.0
503,-0.4647856277994322,0.0
504,-1.8751542534865708,0.0
505,1.4862986454524088,0.0
506,-0.7898983210300488,0.0
507,0.20031246252678414,0.0
508,0.02256896374569033,0.0
509,-0.0426995945268017,0.0
510,0.04866329276898419,0.0
511,0.0004171512926257042,0.0
512,0.06983657006159145,0.0
513,-0.08556192054112026,0.0
514,-0.03014870364270068,0.0
515,0.011085390298818247,0.0
516,-0.0936730202700762,0.0
517,0.01658622665008671,0.0
518,-0.0805156698310557,0.0
519,-0.05454814178511689,0.0
520,0.2525920615279176,0.0
521,3.661845646926104,0.0
522,6.847972894842792,0.0
523,-0.30529115129601225,0.0
524,-1.8945336363221963,0.0
525,1.511337862483171,0.0
526,-0.6883231133193093,0.0
527,0.06372789549417783,0.0
528,-0.0082720788146625,0.0
529,0.007341135398241876,0.0
530,0.020612943837004197,0.0
531,0.02212349239642953,0.0
532,0.063941612492377,0.0
533,0.01550031503953863,0.0
534,-0.052688820689418256,0.0
535,-0.0031509486805797095,0.0
536,-0.05601786499182152,0.0
537,0.09755623190501678,0.0
538,0.11153307828620312,0.0
539,0.044156327986625984,0.0
540,0.36694131627396476,0.0
541,3.679469995693439,0.0
542,6.835522603913938,0.0
543,-0.28469995161694606,0.0
544,-1.8030668107279413,0.0
545,1.5198252167536093,0.0
546,-0.750176553896822,0.0
547,0.15673930667286318,0.0
548,0.08264423204001092,0.0
549,-0.08574869094414156,0.0
550,0.02268429327724704,0.0
551,0.012346230200673686,0.0
552,0.10468632799720926,0.0
553,0.010449896146862786,0.0
554,0.09461090936364239,0.0
555,0.07591945421605448,0.0
556,0.03545597606480261,0.0
557,0.15015516232891093,0.0
558,0.020233400291153864,0.0
559,0.0409995083715616,0.0
560,0.2432686390215458,0.0
561,3.648008244157109,0.0
562,6.905734388242321,0.0
563,-0.33048729523637543,0.0
564,-1.7606574403484392,0.0
565,1.5561211155112349,0.0
566,-0.725472788012551,0.0
567,0.10676891981917017,0.0
568,0.08665286122435174,0.0
569,-0.11662661782184305,0.0
570,0.028236109220028702,0.0
571,0.06478081473256536,0.0
572,-0.01106935417152604,0.0
573,-0.026054585140982037,0.0
574,-0.01193503478413974,0.0
575,0.024345508917015563,0.0
576,-0.10387860705764769,0.0
577,0.048924486590893615,0.0
578,0.03904071252796486,0.0
579,0.07238799340497942,0.0
580,0.3765033339082715,0.0
581,3.646503368351276,0.0
582,6.8733803959235225,0.0
583,-0.41343691320205644,0.0
584,-1.816775541108809,0.0
585,1.577820219445524,0.0
586,-0.6471185135350181,0.0
587,0.15413329636743073,0.0
588,0.05462461829825963,0.0
589,0.026301488881028984,0.0
590,0.030066757613744874,0.0
591,0.001225890637107964,0.0
592,0.11213233910284302,0.0
593,0.07244184147309951,0.0
594,0.06805887094416832,0.0
595,0.043089016773134085,0.0
596,-0.0023193649475425934,0.0
597,-0.017647442228943096,0.0
598,-0.07746122805442564,0.0
599,-0.028657018591717234,0.0
600,0.3238403640153753,0.0
601,3.674001268855536,0.0
602,6.816986629345652,0.0
603,-0.4841598043128757,0.0
604,-1.8596954090090336,0.0
605,1.4781349333771112,0.0
606,-0.7758229119773741,0.0
607,0.12743878455559077,0.0
608,-0.017777554388166826,0.0
609,-0.09487059001778529,0.0
610,0.010522764646162445,0.0
611,-0.0805510939564262,0.0
612,-0.0029217882813023562,0.0
613,-0.021063809097922354,0.0
614,0.02017013831203781,0.0
615,-0.09524890914491196,0.0
616,-0.04341071026430014,0.0
617,-0.0018348076633610535,0.0
618,-0.08541791552604838,0.0
619,0.0030460740618188063,0.0
620,0.29652916267743695,0.0
621,3.56156813342095,0.0
622,6.778761507285419,0.0
623,-0.381419563437855,0.0
624,-1.8229543255755194,0.0
625,1.5051318655270307,0.0
626,-0.6597642347723558,0.0
627,0.039237846805680696,0.0
628,0.022044105765740882,0.0
629,-0.05960069896490543,0.0
630,-0.005309506421767714,0.0
631,-0.023095526883257993,0.0
632,-0.02011805391180087,0.0
633,0.08362922778750981,0.0
634,-0.130842318491171,0.0
635,-0.038461989308851106,0.0
636,-0.0067199532487462275,0.0
637,-0.0021651053964435547,0.0
638,0.048143323441705806,0.0
639,0.05175992978428981,0.0
640,0.34930761417085043,0.0
641,3.7905882750157236,0.0
642,6.892171874535102,0.0
643,-0.3626766053531162,0.0
644,-1.8689043539593104,0.0
645,1.5547495871174206,0.0
646,-0.7473822397777052,0.0
647,0.11319998959141318,0.0
648,0.026817384785215313,0.0
649,-0.10818025448522445,0.0
650,0.1385684624729681,0.0
651,0.04797844495832328,0.0
652,-0.01165768651154074,0.0
653,0.00984534081677339,0.0
654,0.012515701266422328,0.0
655,-0.023030494494424597,0.0
656,0.01004679935638614,0.0
657,-0.11124221741981936,0.0
658,0.08092436246777457,0.0
659,-0.015122013256534214,0.0
660,0.37691737677171955,0.0
661,3.7214819588436416,0.0
662,6.938054422044951,0.0
663,-0.4461817110146476,0.0
664,-1.835744691593551,0.0
665,1.522927965944262,0.0
666,-0.725739915502653,0.0
667,0.1040182065141236,0.0
668,-0.03514055482444538,0.0
669,-0.01528234588121932,0.0
670,0.05580732099158691,0.0
671,0.01108316445942199,0.0
672,0.028294975977283258,0.0
673,-0.033100807131422855,0.0
674,-0.01234931048360082,0.0
675,0.054208828306614054,0.0
676,0.11383768466504873,0.0
677,0.0871953190054267,0.0
678,0.06358431626079329,0.0
679,0.01504238437070278,0.0
680,0.16127513521340894,0.0
681,3.616493946237087,0.0
682,6.870945597117285,0.0
683,-0.3602427965464784,0.0
684,-1.8904855232538496,0.0
685,1.5342033868110845,0.0
686,-0.7646988757113209,0.0
687,0.16673699568425449,0.0
688,-0.03553824885436646,0.0
689,0.04041005181318562,0.0
690,0.08545542020661648,0.0
691,0.0068372706623679655,0.0
692,0.039450255374593256,0.0
693,0.09237532912304308,0.0
694,-0.08165110878761937,0.0
695,0.04435117552713646,0.0
696,0.05098326861070722,0.0
697,0.09207829942627979,0.0
698,0.01841098361396267,0.0
699,0.02679795608829169,0.0
700,0.2260445523234888,0.0
701,3.5814718035554702,0.0
702,6.812424459281176,0.0
703,-0.40458676751538114,0.0
704,-1.82879974870116,0.0
705,1.4667372904879594,0.0
706,-0.7677732851394125,0.0
707,0.039991356796860195,0.0
708,-0.07752006698041691,0.0
709,0.07409276062077572,0.0
710,-0.07955739299543908,0.0
711,0.014294526578567307,0.0
712,-0.021543508040900532,0.0
713,0.007076339659065362,0.0
714,-0.08845707900195017,0.0
715,-0.013899004132064375,0.0
716,-0.04039363405968041,0.0
717,0.11026566985126227,0.0
718,0.058362493465491425,0.0
719,-0.0878851617478756,0.0
720,0.3251989853185625,0.0
721,3.5811426765831507,0.0
722,6.772048836677119,0.0
723,-0.5303273169004634,0.0
724,-1.8492678294174731,0.0
725,1.5622960108451462,0.0
726,-0.659824673522537,0.0
727,0.18960248323302492,0.0
728,-0.0007826373371857508,0.0
729,-0.08862963981106436,0.0
730,0.09548520766331868,0.0
731,0.02081540468289199,0.0
732,0.08154985933736225,0.0
733,-0.005080981455367756,0.0
734,-0.05714919303005497,0.0
735,0.04526102288442451,0.0
736,0.06962386599242522,0.0
737,-0.13194944844516535,0.0
738,0.010770901756747563,0.0
739,-0.02799582656019597,0.0
740,0.3093254782404159,0.0
741,3.590276385047121,0.0
742,6.856108228523536,0.0
743,-0.3898734337180866,0.0
744,-1.8310145057077392,0.0
745,1.4774834581590617,0.0
746,-0.7464095281621992,0.0
747,0.18352716534988825,0.0
748,-0.04902122897342946,0.0
749,-0.03754179106536099,0.0
750,0.056503995124965484,0.0
751,-0.015352459190157564,0.0
752,0.017392347250153747,0.0
753,-0.05099978335457322,0.0
754,-0.03919373093457114,0.0
755,-0.09240290569095819,0.0
756,-0.03625388162549324,0.0
757,-0.07463964329872848,0.0
758,-0.08943592519320723,0.0
759,-0.02902924493223051,0.0
760,0.2489113197156546,0.0
761,3.5675867767047924,0.0
762,6.813194095449504,0.0
763,-0.49177598871863965,0.0
764,-1.8784102917509882,0.0
765,1.5612730556944154,0.0
766,-0.596304555604354,0.0
767,0.13502178614119653,0.0
768,0.1319088441069526,0.0
769,-0.07647039536024813,0.0
770,0.14921463849611832,0.0
771,0.03247560329270978,0.0
772,0.034208215273178036,0.0
773,0.04571654150136722,0.0
774,-0.028455518543925994,0.0
775,0.038165675560888984,0.0
776,0.03905260692449225,0.0
777,0.045003619811722184,0.0
778,-0.011995157485936481,0.0
779,0.04122650087461233,0.0
780,0.24740113151416152,0.0
781,3.591028020029671,0.0
782,6.909338497324238,0.0
783,-0.5180987339194684,0.0
784,-1.8354790574989257,0.0
785,1.5355777958413384,0.0
786,-0.702561463540779,0.0
787,0.0900619250383059,0.0
788,-0.007408846286763828,0.0
789,-0.03761302748260213,0.0
790,0.028576145213807462,0.0
791,0.06400305925356317,0.0
792,0.04460529688528227,0.0
793,0.029727730046213673,0.0
794,-0.031020029014623356,0.0
795,-0.010783170284930635,0.0
796,-0.034533241922066873,0.0
797,-0.09092293508385392,0.0
798,0.08126711684060413,0.0
799,-0.03797857877012209,0.0
800,0.3608070008456895,0.0
801,3.6874575553574362,0.0
802,6.822013120204773,0.0
803,-0.4997818040689941,0.0
804,-1.8522694510071263,0.0
805,1.4126661899872588,0.0
806,-0.6497657280700382,0.0
807,0.14965982719961402,0.0
808,0.03194048381033674,0.0
809,-0.000423289893089214,0.0
810,0.02898399685988041,0.0
811,0.006040982016751061,0.0
812,0.015301560392377647,0.0
813,0.0781074193635074,0.0
814,-0.034858061747481836,0.0
815,0.06441675782781421,0.0
816,0.021085950449752054,0.0
817,-0.1221549229966981,0.0
818,-0.029010393892339635,0.0
819,0.03657520927848032,0.0
820,0.30300412458556153,0.0
821,3.5843012387382815,0.0
822,6.858210528392208,0.0
823,-0.3734730153098719,0.0
824,-1.867217574317925,0.0
825,1.5580945873084784,0.0
826,-0.7996338855817452,0.0
827,0.182147471170953,0.0
828,0.10508485702689896,0.0
829,-0.03400601394122858,0.0
830,0.11865156870850768,0.0
831,0.029240320969273058,0.0
832,0.023669268369365264,0.0
833,-0.04195817423183458,0.0
834,0.08417777619270402,0.0
835,-0.04743116290367923,0.0
836,0.04363895951691833,0.0
837,0.06984390710896983,0.0
838,0.041314430855733844,0.0
839,-0.02728205044128595,0.0
840,0.3376077356464062,0.0
841,3.725973642425742,0.0
842,6.808924166667722,0.0
843,-0.4390957132691588,0.0
844,-1.779498418804446,0.0
845,1.5164568850380828,0.0
846,-0.8510147599634035,0.0
847,0.025017955812698486,0.0
848,0.005178200847440465,0.0
849,0.009170186362463945,0.0
850,0.05267822636139685,0.0
851,-0.0225057647433258,0.0
852,-0.03250987796897577,0.0
853,-0.024478596262470228,0.0
854,0.027912350043241232,0.0
855,0.007502295286830173,0.0
856,0.07443201102647443,0.0
857,0.018332413502148835,0.0
858,0.006892056895914746,0.0
859,-0.030726621520004854,0.0
860,0.3583701132561473,0.0
861,3.6974006512525746,0.0
862,6.917138454381577,0.0
863,-0.3530868781733915,0.0
864,-1.7273649923136465,0.0
865,1.6722347194007443,0.0
866,-0.5729413150818925,0.0
867,0.19505536705562493,0.0
868,0.03370210420859949,0.0
869,-0.1515760948711607,0.0
870,-0.06440020434137954,0.0
871,-0.15212718571734393,0.0
872,-0.08735194135758058,0.0
873,-0.005819564850664372,0.0
874,-0.03733994215223058,0.0
875,-0.0059734194707831804,0.0
876,0.0329450011773713,0.0
877,0.03647961533521751,0.0
878,-0.051704583778881597,0.0
879,-0.00554453396867458,0.0
880,0.2908186853543496,0.0
881,3.6715805418216534,0.0
882,6.9367191391869625,0.0
883,-0.4774371937451864,0.0
884,-1.804085463564082,0.0
885,1.4578272394540566,0.0
886,-0.7007559714667719,0.0
887,0.15719309709707294,0.0
888,0.08669716080108131,0.0
889,-0.06270000910756175,0.0
890,0.042481949648911,0.0
891,0.08875293626016717,0.0
892,0.048770634649176525,0.0
893,-0.017186970654532494,0.0
894,-0.03515891473284078,0.0
895,0.010851152863270033,0.0
896,-0.08904284712359177,0.0
897,0.01709447162645003,0.0
898,-0.015280837629325854,0.0
899,0.06567719020393645,0.0
900,0.3625800165751636,0.0
901,3.7493478352619625,0.0
902,6.912971611973536,0.0
903,-0.4039137246797881,0.0
904,-1.8917330638028382,0.0
905,1.5738444571821435,0.0
906,-0.7587554546206005,0.0
907,0.20149368283877664,0.0
908,-0.0232835750422693,0.0
909,-0.012738974006487172,0.0
910,0.09334003449075493,0.0
911,0.051913449944713905,0.0
912,-0.036890569887354605,0.0
913,-0.05627979696108758,0.0
914,-0.014838206535574909,0.0
915,0.03917624526298538,0.0
916,-0.018981951904699312,0.0
917,-0.01616499216466889,0.0
918,0.008948005385344977,0.0
919,0.032113403628895185,0.0
920,0.3187044922591354,0.0
921,3.617822089101017,0.0
922,6.81331280621601,0.0
923,-0.581987720746505,0.0
924,-1.7700542991272668,0.0
925,1.4860033492209115,0.0
926,-0.8063141956569027,0.0
927,0.1611670766851314,0.0
928,-0.05852033445013797,0.0
929,-0.07403531366145943,0.0
930,-0.04857972844274983,0.0
931,0.014357986242803749,0.0
932,-0.04496431135371033,0.0
933,0.03377368560369065,0.0
934,0.09065433994034967,0.0
935,-0.025471836952623297,0.0
936,0.06341094498571245,0.0
937,-0.021989048817782395,0.0
938,0.02511164010658079,0.0
939,-0.04874495221959588,0.0
940,0.1879556387111458,0.0
941,3.704945122371428,0.0
942,6.790754886368293,0.0
943,-0.47702015509190454,0.0
944,-1.8566486155829047,0.0
945,1.462914977422248,0.0
946,-0.6592247497682087,0.0
947,0.05122485988451764,0.0
948,-0.02439677877931767,0.0
949,-0.025900383919102328,0.0
950,0.047966475279986084,0.0
951,0.07644854776503537,0.0
952,0.05276329207095902,0.0
953,-0.06024212807375409,0.0
954,0.005942756302262122,0.0
955,0.11180389573084494,0.0
956,0.046722553026663755,0.0
957,0.022528083815203995,0.0
958,0.02564203941027125,0.0
959,-0.09561032183534174,0.0
960,0.18794626095815664,0.0
961,3.659737459129073,0.0
962,6.878851599054305,0.0
963,-0.4854042754908444,0.0
964,-1.791555616754334,0.0
965,1.6263975979132945,0.0
966,-0.7503514387449582,0.0
967,0.14619262773314318,0.0
968,-0.011820455144673052,0.0
969,-0.12162312929150546,0.0
970,0.0615504631874251,0.0
971,-0.011043656369030121,0.0
972,-0.03604583932368637,0.0
973,-0.07272358226015804,0.0
974,0.024420578428514153,0.0
975,0.08441051405664407,0.0
976,0.04121075678689068,0.0
977,0.0878115053838861,0.0
978,0.08558134533610687,0.0
979,0.025028906203249525,0.0
980,0.28005294662947267,0.0
981,3.6333955081006595,0.0
982,6.8199222185999595,0.0
983,-0.5297421868982258,0.0
984,-1.8088483480428796,0.0
985,1.612669848394164,0.0
986,-0.7619814830087595,0.0
987,0.15673085052719266,0.0
988,0.002688093831479804,0.0
989,0.010919423548440374,0.0
990,-0.08168002610946337,0.0
991,0.03958238347301642,0.0
992,-0.08518877545638558,0.0
993,0.022463970012808886,0.0
994,-0.06241132894222055,0.0
995,0.0338494293387472,0.0
996,0.014390838142201288,0.0
997,-0.03456221509922913,0.0
998,-0.005650627330507144,0.0
999,0.023263465480114716,0.0
1000,0.26493971004211536,0.0
1001,3.7253948446812917,0.0
1002,6.871758429145763,0.0
1003,-0.4875904117191805,0.0
1004,-1.7716280324323674,0.0
1005,1.6550939140892127,0.0
1006,-0.7121050357938313,0.0
1007,0.17885560720557797,0.0
1008,0.028744567411638975,0.0
1009,-0.11037939224696673,0.0
1010,0.132951486787441,0.0
1011,-0.06485307490706567,0.0
1012,0.13866733668952286,0.0
1013,-0.005268681187878866,0.0
1014,-0.02993228539905235,0.0
1015,-0.057328628018759695,0.0
1016,0.014512347691647762,0.0
1017,-0.02588723622214055,0.0
1018,-0.006051426225967518,0.0
1019,0.06114835196332423,0.0
1020,0.2762427229674257,0.0
1021,3.7035166317889594,0.0
1022,6.894312344412601,0.0
1023,-0.48907536666596896,0.0
1024,-1.8030743749438678,0.0
1025,1.4860643437127425,0.0
1026,-0.7356350857402983,0.0
1027,0.18256190862364063,0.0
1028,0.03627995389325696,0.0
1029,-0.04645759796735633,0.0
1030,-0.001520219541613875,0.0
1031,0.015052793426200906,0.0
1032,0.003611160920349064,0.0
1033,-0.087675034604,0.0
1034,0.03038551554415216,0.0
1035,-0.04620935250721782,0.0
1036,0.005525490789238637,0.0
1037,0.051074164919729104,0.0
1038,0.07056425100940494,0.0
1039,0.019506421446037654,0.0
1040,0.3730019864234306,0.0
1041,3.825654870261683,0.0
1042,6.898112129020259,0.0
1043,-0.5976507339731921,0.0
1044,-1.8111793469101587,0.0
1045,1.5075214894813467,0.0
1046,-0.7779778784193979,0.0
1047,0.1176023334025986,0.0
1048,-0.08554703693781812,0.0
1049,-0.06648717962191855,0.0
1050,0.06139009542647635,0.0
1051,0.007937123781876256,0.0
1052,0.04250690577617357,0.0
1053,-0.00934023123946275,0.0
1054,-0.021097765211845237,0.0
1055,0.016152842404732415,0.0
1056,-0.014461721812554713,0.0
1057,-0.019081131224085425,0.0
1058,-0.009130681812731469,0.0
1059,-0.1054999737764062,0.0
1060,0.23265890628573216,0.0
1061,3.758265907085329,0.0
1062,6.834265711764281,0.0
1063,-0.6673899102706745,0.0
1064,-1.7905102581595331,0.0
1065,1.4355548803473246,0.0
1066,-0.6578083115436062,0.0
1067,0.11453440134843268,0.0
1068,0.053568638443218144,0.0
1069,-0.03577441506470449,0.0
1070,0.04253251043171328,0.0
1071,0.04526972036779711,0.0
1072,-0.0520541254749111,0.0
1073,0.13009293393110588,0.0
1074,-0.06260076474468576,0.0
1075,0.03378681009037494,0.0
1076,-0.01608158224394974,0.0
1077,0.04164985005484872,0.0
1078,0.1156918209757159,0.0
1079,0.09551954027837886,0.0
1080,0.46668822512795594,0.0
1081,3.728500462078074,0.0
1082,6.785502020851398,0.0
1083,-0.4677739747542696,0.0
1084,-1.692956344560045,0.0
1085,1.5599137711207334,0.0
1086,-0.660829621606922,0.0
1087,0.17926027823811003,0.0
1088,-0.01193364514599432,0.0
1089,-0.005234592010057722,0.0
1090,-0.0029779924723905434,0.0
1091,-0.057427718853347846,0.0
1092,-0.043640077574636386,0.0
1093,-0.014263173604198261,0.0
1094,-0.0876587804592319,0.0
1095,-0.055620923024257626,0.0
1096,0.003081879117748501,0.0
1097,-0.03994790724888688,0.0
1098,-0.0766432001882901,0.0
1099,-0.1130998511712082,0.0
1100,0.2819693250221078,0.0
1101,3.741070392142137,0.0
1102,6.782058985528998,0.0
1103,-0.5396273377481261,0.0
1104,-1.8127082194577997,0.0
1105,1.5546463088239506,0.0
1106,-0.7415054643841646,0.0
1107,0.22729867994988665,0.0
1108,-0.010330424804130786,0.0
1109,-0.09155702084608852,0.0
1110,0.03732390981243232,0.0
1111,0.01747166765369418,0.0
1112,-0.09543858655837469,0.0
1113,-0.00215476718142912,0.0
1114,-0.05683617599740584,0.0
1115,0.028703056352509845,0.0
1116,-0.009933768309749083,0.0
1117,-0.053912982210957,0.0
1118,-0.07333707106857243,0.0
1119,-0.03395193228593587,0.0
1120,0.2040464678357439,0.0
1121,3.628491816611103,0.0
1122,6.756520980589079,0.0
1123,-0.5937885588648701,0.0
1124,-1.7453331484429744,0.0
1125,1.4543096461468463,0.0
1126,-0.7397543831571889,0.0
1127,0.12009814486021692,0.0
1128,-0.11245949253611806,0.0
1129,-0.10197750366283018,0.0
1130,0.06292097983670375,0.0
1131,-0.03523359552299069,0.0
1132,-0.00996550350603543,0.0
1133,-0.07391350704368102,0.0
1134,-0.12640193616252415,0.0
1135,-0.0405329742811597,0.0
1136,0.09299912956521725,0.0
1137,0.03026081404617769,0.0
1138,-0.06798636613922479,0.0
1139,0.09158881914595912,0.0
1140,0.2786341898248825,0.0
1141,3.7148492725835514,0.0
1142,6.795001833978086,0.0
1143,-0.609455218810578,0.0
1144,-1.8514292191943267,0.0
1145,1.4585492483215392,0.0
1146,-0.7462989378996732,0.0
1147,0.18488615381027096,0.0
1148,0.0031468732169397315,0.0
1149,-0.19677080654797485,0.0
1150,0.03106210579330555,0.0
1151,-0.012624445576145824,0.0
1152,-0.09409940465293509,0.0
1153,-0.07515491903169969,0.0
1154,0.010073869474203488,0.0
1155,-0.035517576714807805,0.0
1156,0.03774461049390054,0.0
1157,0.020063256048308553,0.0
1158,-0.021490651581205875,0.0
1159,-0.07478442508170545,0.0
1160,0.33125984497797817,0.0
1161,3.700800778093883,0.0
1162,6.764654307458832,0.0
1163,-0.6438666049511549,0.0
1164,-1.782934377053738,0.0
1165,1.6157183081894422,0.0
1166,-0.8666465452684744,0.0
1167,0.21452649489022557,0.0
1168,-0.022073053591498137,0.0
1169,-0.08958753152007598,0.0
1170,0.011748613657345221,0.0
1171,-0.048633936370454954,0.0
1172,0.002266037897434168,0.0
1173,-0.03808711760188919,0.0
1174,0.05358729802283539,0.0
1175,0.001482013382069828,0.0
1176,0.0015396508580957412,0.0
1177,-0.04154184892373539,0.0
1178,-0.1035133015416409,0.0
1179,0.011579162495298844,0.0
1180,0.279297791756557,0.0
1181,3.6355226297143632,0.0
1182,6.784665662086544,0.0
1183,-0.6762566049197585,0.0
1184,-1.9841866948442917,0.0
1185,1.438460837777633,0.0
1186,-0.8226198582453212,0.0
1187,0.12739835673674044,0.0
1188,-0.0332555671026322,0.0
1189,-0.1343257473034551,0.0
1190,-0.16264277907190483,0.0
1191,-0.1641722649339732,0.0
1192,-0.021575842803132114,0.0
1193,0.015800103989853043,0.0
1194,-0.14569169887386035,0.0
1195,0.00650192569491756,0.0
1196,-0.1216384008730075,0.0
1197,-0.02792018341164873,0.0
1198,-0.1415098719876206,0.0
1199,-0.1004956445838742,0.0
1200,0.3490553355827966,0.0
1201,3.5230459723067438,0.0
1202,6.760935698757096,0.0
1203,-0.587825843420915,0.0
1204,-1.8158049641893452,0.0
1205,1.638467934462181,0.0
1206,-0.8169883391402004,0.0
1207,0.1530593333055746,0.0
1208,-0.026523982253285644,0.0
1209,-0.062184505811451476,0.0
1210,-0.015617009428623273,0.0
1211,0.0008425460784219838,0.0
1212,-0.07066171380768362,0.0
1213,-0.0970843253491112,0.0
1214,-0.0396813593264858,0.0
1215,-0.046686333506976575,0.0
1216,-0.09822139407619074,0.0
1217,-0.12198956261856173,0.0
1218,-0.12034547107506577,0.0
1219,-0.041008536339495895,0.0
1220,0.2449764890028606,0.0
1221,3.607799631084305,0.0
1222,6.730005849504256,0.0
1223,-0.6141885814172203,0.0
1224,-1.8422310420183412,0.0
1225,1.4574191161541046,0.0
1226,-0.7699273314337903,0.0
1227,0.07106812763615175,0.0
1228,-0.07434531061106928,0.0
1229,-0.08961466467318754,0.0
1230,-0.033603648289822985,0.0
1231,-0.02366117189031857,0.0
1232,-0.09238012286766023,0.0
1233,-0.11972386721388173,0.0
1234,0.007761735552375575,0.0
1235,-0.08787876646378051,0.0
1236,-0.02736444509986294,0.0
1237,0.06280929736565766,0.0
1238,-0.06129802530629909,0.0
1239,-0.010505605072991558,0.0
1240,0.31150151908300294,0.0
1241,3.6810731278138706,0.0
1242,6.720522690316961,0.0
1243,-0.5922853129518821,0.0
1244,-1.8166584000522437,0.0
1245,1.4868094799335705,0.0
1246,-0.7659378868162995,0.0
1247,0.21521419100142605,0.0
1248,-0.04836420241925645,0.0
1249,-0.050339925774269156,0.0
1250,-0.005169319188471836,0.0
1251,-0.003382827250221876,0.0
1252,0.019198588946652263,0.0
1253,-0.027439230835985626,0.0
1254,0.026331410800177542,0.0
1255,-0.04665130646699827,0.0
1256,-0.05628106388883947,0.0
1257,-0.036977871052355074,0.0
1258,-0.0012438555851692068,0.0
1259,0.006271440198062493,0.0
1260,0.3393206553073522,0.0
1261,3.719302833408553,0.0
1262,6.756728639187576,0.0
1263,-0.6519273561869057,0.0
1264,-1.8298535795881012,0.0
1265,1.427717217698978,0.0
1266,-0.8584416260933664,0.0
1267,0.04559718449757098,0.0
1268,-0.13141845821887688,0.0
1269,-0.24042665467165686,0.0
1270,-0.04022194352982991,0.0
1271,-0.14846498771425268,0.0
1272,-0.11381317315397353,0.0
1273,-0.1745673404539987,0.0
1274,-0.125456385588065,0.0
1275,-0.19488580994686766,0.0
1276,-0.048553622968653835,0.0
1277,-0.10705066126901389,0.0
1278,-0.051886059736957306,0.0
1279,-0.08616786844033575,0.0
1280,0.20642252805861058,0.0
1281,3.729258629464912,0.0
1282,6.865913891984193,0.0
1283,-0.6121891828555925,0.0
1284,-1.7868371267455454,0.0
1285,1.5191674271778566,0.0
1286,-0.7551326746311731,0.0
1287,0.01088225147632886,0.0
1288,-0.024331217497036612,0.0
1289,-0.14038756251076367,0.0
1290,-0.08829095671520282,0.0
1291,-0.05938327981806979,0.0
1292,-0.09022844382090882,0.0
1293,-0.07001935091796956,0.0
1294,-0.017444275650876397,0.0
1295,-0.1065615901964356,0.0
1296,-0.08432365467636241,0.0
1297,-0.09737899090917732,0.0
1298,-0.07720703437213451,0.0
1299,-0.004076849944922252,0.0
1300,0.22283408666024462,0.0
1301,3.6320424205645265,0.0
1302,6.765692969102586,0.0
1303,-0.6829536941228251,0.0
1304,-1.8333900392557767,0.0
1305,1.5353788061750262,0.0
1306,-0.7096114532554437,0.0
1307,0.08456177399306603,0.0
1308,0.04378042156667362,0.0
1309,-0.04822406891603808,0.0
1310,0.06968006714202454,0.0
1311,-0.03495709110735488,0.0
1312,-0.0337484747030044,0.0
1313,-0.14714665842424743,0.0
1314,-0.044374638742200385,0.0
1315,-0.05302983299666658,0.0
1316,-0.07696321847978596,0.0
1317,-0.026004548666999742,0.0
1318,-0.03509533240733033,0.0
1319,-0.02654119973041876,0.0
1320,0.28567449154927677,0.0
1321,3.6739661634213117,0.0
1322,6.71002229375694,0.0
1323,-0.6209574863587461,0.0
1324,-1.758183477790321,0.0
1325,1.590659811829361,0.0
1326,-0.7540355678122209,0.0
1327,0.19699955617824708,0.0
1328,0.08040967697793847,0.0
1329,0.06019395266878103,0.0
1330,0.030397891232986658,0.0
1331,0.009435382372600368,0.0
1332,-0.012898596821829995,0.0
1333,-0.00880210578115929,0.0
1334,0.03351869254613365,0.0
1335,-0.033053519691444065,0.0
1336,-0.015989465969970418,0.0
1337,-0.056267111952166764,0.0
1338,-0.008972189682510893,0.0
1339,-0.10765060584678833,0.0
1340,0.23985254021290192,0.0
1341,3.7526142015626407,0.0
1342,6.656505547032069,0.0
1343,-0.6512629718953611,0.0
1344,-1.8486221509515595,0.0
1345,1.338631105305175,0.0
1346,-0.781873628394427,0.0
1347,0.0807789956363085,0.0
1348,-0.13122873396367124,0.0
1349,-0.10794774816940857,0.0
1350,-0.026998109234703967,0.0
1351,-0.18935449944735783,0.0
1352,-0.08852915909403157,0.0
1353,-0.07700148627734107,0.0
1354,-0.06932457076964116,0.0
1355,-0.13238972608841876,0.0
1356,-0.11737335925367384,0.0
1357,-0.10115769370931381,0.0
1358,-0.08921344033897599,0.0
1359,0.010289051317346858,0.0
1360,0.2772894247330764,0.0
1361,3.6746241759190346,0.0
1362,6.771491265503008,0.0
1363,-0.6981482800584421,0.0
1364,-1.761942456596842,0.0
1365,1.427290364786421,0.0
1366,-0.8012894697762887,0.0
1367,0.17985680893879655,0.0
1368,0.0452393077502315,0.0
1369,-0.06785199372463147,0.0
1370,-0.14037722179160178,0.0
1371,-0.049627844570947655,0.0
1372,0.04942813183636514,0.0
1373,-0.09109490382910446,0.0
1374,-0.03192652944506158,0.0
1375,-0.01531697776605598,0.0
1376,-0.02297850996728083,0.0
1377,-0.08306371253397674,0.0
1378,-0.0019251754463282117,0.0
1379,-0.05796490867135892,0.0
1380,0.35940185010266473,0.0
1381,3.7906634647843407,0.0
1382,6.806710535950929,0.0
1383,-0.6450431956130683,0.0
1384,-1.6502848713920164,0.0
1385,1.5338879974924695,0.0
1386,-0.7485097167502345,0.0
1387,0.2502182511539024,0.0
1388,0.0667587469111245,0.0
1389,-0.10849605521650413,0.0
1390,0.057390729764205416,0.0
1391,0.027948708146808755,0.0
1392,-0.02073532718585225,0.0
1393,0.010894720555029618,0.0
1394,-0.054904525489066436,0.0
1395,-0.003027889964084177,0.0
1396,-0.05986010711323182,0.0
1397,0.052016643819003214,0.0
1398,-0.07826294581258814,0.0
1399,-0.030145832927707922,0.0
1400,0.309322867852187,0.0
1401,3.7220891697324685,0.0
1402,6.760415935365768,0.0
1403,-0.5998343541130912,0.0
1404,-1.754724070865323,0.0
1405,1.5311319527047227,0.0
1406,-0.8183923407671687,0.0
1407,0.19846912574390851,0.0
1408,-0.045399044252473736,0.0
1409,-0.07938592954350622,0.0
1410,0.05736796551020284,0.0
1411,-0.0754749156876503,0.0
1412,-0.044441569176067425,0.0
1413,-0.11041048330286102,0.0
1414,-0.006581648352923712,0.0
1415,-0.0065430979781624776,0.0
1416,-0.015437729237100864,0.0
1417,-0.07650621317180037,0.0
1418,0.08265144754618611,0.0
1419,-0.023723137972657724,0.0
1420,0.3454753372397224,0.0
1421,3.740908077219249,0.0
1422,6.793237657175682,0.0
1423,-0.6624675810829267,0.0
1424,-1.718279024956184,0.0
1425,1.5037555086214354,0.0
1426,-0.8236230687030301,0.0
1427,0.265814903754772,0.0
1428,0.05076478698881909,0.0
1429,-0.0594371153754891,0.0
1430,0.0484009097304193,0.0
1431,0.00508135909965938,0.0
1432,-0.05853936650390654,0.0
1433,0.0564048853149043,0.0
1434,-0.056422142817267776,0.0
1435,-0.007963278234073196,0.0
1436,0.02936195183969724,0.0
1437,-0.0002437726357822946,0.0
1438,-0.014183760889040872,0.0
1439,-0.02180029041641163,0.0
1440,0.34658067373916046,0.0
1441,3.787826932614041,0.0
1442,6.720534625763408,0.0
1443,-0.5925464770422133,0.0
1444,-1.8102148719785598,0.0
1445,1.6570624608032538,0.0
1446,-0.7560960258216971,0.0
1447,0.2914750806722441,0.0
1448,-0.02562913947263809,0.0
1449,-0.0532095719661843,0.0
1450,0.048360225900145194,0.0
1451,0.03619374354116155,0.0
1452,0.011727234739612787,0.0
1453,0.1304043218307491,0.0
1454,-0.037855558505073786,0.0
1455,-0.000429806196773571,0.0
1456,-0.04536265192702324,0.0
1457,0.05311742124954257,0.0
1458,-0.005157004656094085,0.0
1459,0.0028230455564856333,0.0
1460,0.33501782374742617,0.0
1461,3.7544300894862617,0.0
1462,6.6715846161639805,0.0
1463,-0.6904808521569672,0.0
1464,-1.6793908117092706,0.0
1465,1.5420040074211134,0.0
1466,-0.706708188317403,0.0
1467,0.23644997220234787,0.0
1468,0.10568329958983773,0.0
1469,0.05714701280348701,0.0
1470,0.08505281948613433,0.0
1471,0.01674725295477908,0.0
1472,0.08827474087757683,0.0
1473,0.11023687534740959,0.0
1474,-0.07656318085096206,0.0
1475,-0.06494267268197505,0.0
1476,-0.022704997740235974,0.0
1477,0.12276762984335896,0.0
1478,-0.0763371269192001,0.0
1479,-0.017712548640720756,0.0
1480,0.3303095766424503,0.0
1481,3.812629267624111,0.0
1482,6.741569872815792,0.0
1483,-0.7037099683542225,0.0
1484,-1.7731384928084666,0.0
1485,1.5358191047178478,0.0
1486,-0.9238808053495917,0.0
1487,0.1898541996161799,0.0
1488,-0.03157981947899278,0.0
1489,-0.08979674303376992,0.0
1490,-0.03446872301133828,0.0
1491,-0.02048289472884958,0.0
1492,0.08797607753223471,0.0
1493,0.08559290432690811,0.0
1494,-0.0387917683718675,0.0
1495,0.0032588842444381382,0.0
1496,-0.008977531835279762,0.0
1497,0.04081810670411742,0.0
1498,0.013885267539365859,0.0
1499,-0.09043143790445209,0.0
1500,0.3613003799336771,0.0
1501,3.68730145840184,0.0
1502,6.637342120760665,0.0
1503,-0.661339958951436,0.0
1504,-1.662367471795426,0.0
1505,1.5402331614686215,0.0
1506,-0.7475409421121632,0.0
1507,0.12632620232767758,0.0
1508,0.007644594154984105,0.0
1509,-0.08962487409336771,0.0
1510,0.05757626362521748,0.0
1511,-0.049861166281904346,0.0
1512,0.05028334987284216,0.0
1513,0.008774762998713142,0.0
1514,-0.06199052705173036,0.0
1515,0.07309331138292052,0.0
1516,0.0859131576542324,0.0
1517,0.05838500983588324,0.0
1518,0.13038933985011442,0.0
1519,-0.015658637431480667,0.0
1520,0.36505091155440655,0.0
1521,3.7218098696815827,0.0
1522,6.724685001183435,0.0
1523,-0.5901235862130388,0.0
1524,-1.7479277304853447,0.0
1525,1.5431478455333385,0.0
1526,-0.7610537943696415,0.0
1527,0.20685572305629746,0.0
1528,0.025046295092468022,0.0
1529,-0.061193496592768966,0.0
1530,-0.032627393726755834,0.0
1531,-0.04405997972395126,0.0
1532,-0.06693526632439153,0.0
1533,-0.10307970913200061,0.0
1534,-0.021236196666590046,0.0
1535,0.05032616224134773,0.0
1536,-0.06307499311685875,0.0
1537,-0.036460763156763325,0.0
1538,-0.042061578685828604,0.0
1539,0.03599098122435937,0.0
1540,0.39085900343865065,0.0
1541,3.78309613931199,0.0
1542,6.827234979086874,0.0
1543,-0.7070132897500798,0.0
1544,-1.6635770011246052,0.0
1545,1.538294287529381,0.0
1546,-0.7467706701112258,0.0
1547,0.16285496265301286,0.0
1548,0.0005509594096141865,0.0
1549,-0.03186403890750085,0.0
1550,0.01640277452092887,0.0
1551,0.03181768872116829,0.0
1552,-0.12562631432542412,0.0
1553,-0.05341630007306377,0.0
1554,-0.031430040657649046,0.0
1555,-0.05825072998550372,0.0
1556,0.004184403655176379,0.0
1557,-0.023930237208374477,0.0
1558,-0.04525756957100477,0.0
1559,-0.044659079453941666,0.0
1560,0.40841040621551655,0.0
1561,3.781714306781868,0.0
1562,6.826769013973769,0.0
1563,-0.6921446566048235,0.0
1564,-1.64374753855595,0.0
1565,1.528027098890409,0.0
1566,-0.7517500154568376,0.0
1567,0.31624935113726893,0.0
1568,0.024742221686489485,0.0
1569,0.018316845560251673,0.0
1570,0.040623895365138774,0.0
1571,-0.025357893541138946,0.0
1572,0.06675463068293314,0.0
1573,0.05847912988201893,0.0
1574,0.061547919320406416,0.0
1575,-0.026670619126652678,0.0
1576,-0.02186002713146957,0.0
1577,-0.04933935795422902,0.0
1578,-0.08506971472084066,0.0
1579,0.10214060902610807,0.0
1580,0.3498435160010541,0.0
1581,3.7416628483855074,0.0
1582,6.73487468046412,0.0
1583,-0.6994256530485222,0.0
1584,-1.7014496996089563,0.0
1585,1.4737207927126053,0.0
1586,-0.7189484190282824,0.0
1587,0.18129326174486837,0.0
1588,0.009459886276795022,0.0
1589,-0.1233941397258928,0.0
1590,-0.07339853437538862,0.0
1591,-0.027798897181046757,0.0
1592,-0.11754912575653728,0.0
1593,0.0371120824721648,0.0
1594,0.0021718923451966854,0.0
1595,-0.087648992971114,0.0
1596,-0.025581542235858415,0.0
1597,-0.0545443434174659,0.0
1598,0.056459281896567404,0.0
1599,-0.01376158866845359,0.0
1600,0.20945307955494089,0.0
1601,3.5965197401361753,0.0
1602,6.7134385294609915,0.0
1603,-0.788742662163626,0.0
1604,-1.808191340829741,0.0
1605,1.4045640077233619,0.0
1606,-0.8532954984121504,0.0
1607,0.06467185082621384,0.0
1608,-0.062182298625905796,0.0
1609,-0.15109021753794552,0.0
1610,0.12381758986970648,0.0
1611,-0.023356567830661163,0.0
1612,0.016903021176733226,0.0
1613,-0.01468539962728314,0.0
1614,0.01216217451267307,0.0
1615,-0.08872226458554774,0.0
1616,0.013604896574837218,0.0
1617,0.03529726343854194,0.0
1618,-0.04931761839924693,0.0
1619,0.025850605094720407,0.0
1620,0.33749594744963646,0.0
1621,3.819351974664828,0.0
1622,6.748965037987299,0.0
1623,-0.68619138129192,0.0
1624,-1.6946194089702342,0.0
1625,1.472114475447189,0.0
1626,-0.7814611355286161,0.0
1627,0.16732006029429305,0.0
1628,-0.04758661443828847,0.0
1629,-0.12274392858734834,0.0
1630,0.0023426577771426516,0.0
1631,0.008041431760034348,0.0
1632,-0.06991961864564704,0.0
1633,0.007768829158325955,0.0
1634,-0.0931811858496975,0.0
1635,0.05963721670330097,0.0
1636,-0.03544400688294248,0.0
1637,0.014157280268038365,0.0
1638,-0.007475250069823245,0.0
1639,0.024115447728977005,0.0
1640,0.3671258365998794,0.0
1641,3.8148437936179813,0.0
1642,6.804829562324601,0.0
1643,-0.6897727766385688,0.0
1644,-1.739814375271706,0.0
1645,1.5917646989209142,0.0
1646,-0.7520053797483925,0.0
1647,0.2698749583963975,0.0
1648,0.014327863436876438,0.0
1649,-0.15041140934759498,0.0
1650,-0.0007431273640856016,0.0
1651,0.037399532214509215,0.0
1652,-0.016104258786499296,0.0
1653,-0.009266905544912378,0.0
1654,0.000260161770492158,0.0
1655,0.09319300282184591,0.0
1656,0.019038755841163907,0.0
1657,-0.035142994928183915,0.0
1658,0.05311741061414648,0.0
1659,-0.10826197569366591,0.0
1660,0.3257857672866029,0.0
1661,3.7339374735764466,0.0
1662,6.726277833763789,0.0
1663,-0.6443073555035395,0.0
1664,-1.6434620480718007,0.0
1665,1.495167753973932,0.0
1666,-0.7334257928844169,0.0
1667,0.06775506402797497,0.0
1668,-0.1054325024927169,0.0
1669,-0.11134538475181585,0.0
1670,0.023308443761942934,0.0
1671,-0.04406943142223988,0.0
1672,-0.0957545252293076,0.0
1673,-0.08022870954265617,0.0
1674,-0.16437874215293224,0.0
1675,-0.11504104229066978,0.0
1676,-0.0785679808258828,0.0
1677,-0.006455508289946149,0.0
1678,0.0077769950504077215,0.0
1679,-0.03423491038617493,0.0
1680,0.30915987942552203,0.0
1681,3.706137217233115,0.0
1682,6.72440426144727,0.0
1683,-0.6069343509183867,0.0
1684,-1.7434933305696152,0.0
1685,1.476113178459193,0.0
1686,-0.8064735109148709,0.0
1687,0.23742950844160987,0.0
1688,-0.04293686909018735,0.0
1689,0.08530136687626644,0.0
1690,-0.07243894588522647,0.0
1691,0.02875280602236072,0.0
1692,0.08940764343772814,0.0
1693,-0.06087170076072668,0.0
1694,-0.01387823768675316,0.0
1695,0.008220183490683559,0.0
1696,-0.014598728862198127,0.0
1697,-0.061434591052865965,0.0
1698,-0.09195279874862511,0.0
1699,-0.04510270029049177,0.0
1700,0.1792033050468539,0.0
1701,3.776255572306309,0.0
1702,6.627196404462627,0.0
1703,-0.6708070390529315,0.0
1704,-1.7081259256653032,0.0
1705,1.5179934302751281,0.0
1706,-0.8699731202776247,0.0
1707,0.1848881995614254,0.0
1708,0.041535934430141155,0.0
1709,-0.10909008290014696,0.0
1710,0.039761618945076814,0.0
1711,0.012193530672025322,0.0
1712,-0.08823546794763988,0.0
1713,0.015534675600312544,0.0
1714,0.00438807028643947,0.0
1715,-0.011719217483941117,0.0
1716,0.01663581514450564,0.0
1717,0.0547809550366467,0.0
1718,0.005661482986339981,0.0
1719,-0.03802197616703893,0.0
1720,0.2732701978242354,0.0
1721,3.8073356207260587,0.0
1722,6.788318667226767,0.0
1723,-0.7372027906329294,0.0
1724,-1.7468701983543582,0.0
1725,1.377444301217768,0.0
1726,-0.7780720082691271,0.0
1727,0.11641954519534758,0.0
1728,-0.017527076998827225,0.0
1729,-0.02895714946506736,0.0
1730,-0.10112646892546805,0.0
1731,-0.028097539709632025,0.0
1732,-0.05386842426430105,0.0
1733,-0.05573675604628717,0.0
1734,-0.013498971213950411,0.0
1735,-0.03238470230030871,0.0
1736,-0.023027397097042244,0.0
1737,-0.1470645154207501,0.0
1738,-0.09323333268800829,0.0
1739,-0.09940953900187322,0.0
1740,0.2748080815184421,0.0
1741,3.757058666106676,0.0
1742,6.709217994410432,0.0
1743,-0.8208232700403872,0.0
1744,-1.7271568365403946,0.0
1745,1.434024412551403,0.0
1746,-0.819186415506394,0.0
1747,0.13248092350145288,0.0
1748,-0.032760537851229996,0.0
1749,-0.07492301540270366,0.0
1750,-0.0171514614096435,0.0
1751,0.07579145972197297,0.0
1752,-0.04166681665746551,0.0
1753,-0.07146540114238234,0.0
1754,-0.05863511844521238,0.0
1755,-0.09793409537990416,0.0
1756,-0.06309271213111066,0.0
1757,-0.09985259252017029,0.0
1758,-0.16997260050375923,0.0
1759,-0.09308783462833456,0.0
1760,0.1591957898471995,0.0
1761,3.682673316842143,0.0
1762,6.66283902351938,0.0
1763,-0.9053679734199229,0.0
1764,-1.745043523430569,0.0
1765,1.3814154747362268,0.0
1766,-0.8340954425496879,0.0
1767,0.09656907738753882,0.0
1768,-0.005140122669597496,0.0
1769,0.0007750022743074,0.0
1770,-0.09926797717142173,0.0
1771,-0.0644272934256913,0.0
1772,0.044346865788812924,0.0
1773,-0.058372954132896844,0.0
1774,0.029909664485085627,0.0
1775,-0.003324311211571491,0.0
1776,-0.016634012532501245,0.0
1777,0.011219294851054905,0.0
1778,-0.08723292192244858,0.0
1779,-0.08223507266668237,0.0
1780,0.34414687949087513,0.0
1781,3.7964465523119255,0.0
1782,6.704943067142099,0.0
1783,-0.808338136325509,0.0
1784,-1.7242165018728701,0.0
1785,1.427665799133607,0.0
1786,-0.806262510752833,0.0
1787,0.17758640543053786,0.0
1788,-0.07684581333777049,0.0
1789,-0.04005675797517818,0.0
1790,-0.0807977820040372,0.0
1791,0.07944165072754412,0.0
1792,0.0745785907007114,0.0
1793,-0.05072124124542607,0.0
1794,0.022851259725146046,0.0
1795,0.020283648050603814,0.0
1796,0.011141721854218956,0.0
1797,-0.07384235483954998,0.0
1798,2.522044405300211e-05,0.0
1799,-0.014621848374335188,0.0
1800,0.2796890492386169,0.0
1801,3.7596638645338207,0.0
1802,6.658216643140167,0.0
1803,-0.8523462754994581,0.0
1804,-1.7947310207702525,0.0
1805,1.300637539282009,0.0
1806,-0.9315389995680968,0.0
1807,0.16922520896866483,0.0
1808,-0.14138990190914769,0.0
1809,-0.1609960378270998,0.0
1810,-0.134386073589081,0.0
1811,-0.07204634256900581,0.0
1812,-0.1077344332488975,0.0
1813,-0.007212566732915961,0.0
1814,-0.10272203950998351,0.0
1815,-0.051959388388865456,0.0
1816,0.02293666491486282,0.0
1817,-0.079206063226861,0.0
1818,0.015684614443830736,0.0
1819,-0.01583725005305459,0.0
1820,0.3425030791037817,0.0
1821,3.8481177239335116,0.0
1822,6.783568088904038,0.0
1823,-0.6550497624398537,0.0
1824,-1.605721675327262,0.0
1825,1.4537838604906868,0.0
1826,-0.7476840554678649,0.0
1827,0.21292331365667128,0.0
1828,0.056225757503410155,0.0
1829,0.00884610217842486,0.0
1830,0.03369019028930201,0.0
1831,-0.0021771564410243416,0.0
1832,0.0028622021600513484,0.0
1833,-0.04534080646114645,0.0
1834,-0.007879317533521397,0.0
1835,0.02045035557450682,0.0
1836,0.007875900576786062,0.0
1837,-0.05817739253429221,0.0
1838,-0.044714621807005035,0.0
1839,0.00587037481213061,0.0
1840,0.2564130648387727,0.0
1841,3.8426886750270097,0.0
1842,6.616537004771404,0.0
1843,-0.8528278174395806,0.0
1844,-1.6378503777145523,0.0
1845,1.4801776777880853,0.0
1846,-0.8991390159067292,0.0
1847,0.09284888105554548,0.0
1848,-0.1519922069450479,0.0
1849,-0.09168389521248323,0.0
1850,-0.08095003152752434,0.0
1851,-0.05380160307525487,0.0
1852,-0.06208245897664384,0.0
1853,-0.01812843916179159,0.0
1854,-0.029555972561878925,0.0
1855,0.0032343735905573934,0.0
1856,-0.11437390500700653,0.0
1857,0.0054177950185378895,0.0
1858,-0.03159820221863775,0.0
1859,-0.0753615136422785,0.0
1860,0.3468817032881402,0.0
1861,3.789856025289572,0.0
1862,6.692525909340967,0.0
1863,-0.7930741149699908,0.0
1864,-1.6957805012273188,0.0
1865,1.4234183375883678,0.0
1866,-0.8062833270527955,0.0
1867,0.10608351021096965,0.0
1868,-0.0007680289323812872,0.0
1869,-0.0745369338668384,0.0
1870,-0.033954084695142085,0.0
1871,-0.10941242192980496,0.0
1872,-0.020090866182114784,0.0
1873,-0.029810211123326127,0.0
1874,-0.07412120537942717,0.0
1875,-0.018036779375864672,0.0
1876,-0.022417078700276413,0.0
1877,-0.012604185543380384,0.0
1878,-0.04430999953945477,0.0
1879,-0.006983992955486961,0.0
1880,0.26695657045672316,0.0
1881,3.815957848584739,0.0
1882,6.713850590512607,0.0
1883,-0.7941448981708965,0.0
1884,-1.6697737354618134,0.0
1885,1.4438527716238798,0.0
1886,-0.8083285944678608,0.0
1887,0.2100906767322241,0.0
1888,-0.03190643791723495,0.0
1889,-0.08762173098099657,0.0
1890,-0.006622645034039776,0.0
1891,-0.11175968709992808,0.0
1892,-0.08065921117463438,0.0
1893,0.009592838935586736,0.0
1894,-0.013491564222248714,0.0
1895,-0.021446867327831496,0.0
1896,-0.10985940840750075,0.0
1897,-0.005740343009566166,0.0
1898,0.013850385648297724,0.0
1899,-0.007906611846701994,0.0
1900,0.3552428736890695,0.0
1901,3.8448408089686037,0.0
1902,6.726444176880704,0.0
1903,-0.9064726093840315,0.0
1904,-1.590832689495146,0.0
1905,1.5638924203640814,0.0
1906,-0.7824116566932139,0.0
1907,0.14896963328079627,0.0
1908,0.06158207060083945,0.0
1909,-0.05652934734568981,0.0
1910,0.15502637297576827,0.0
1911,0.03281947362722855,0.0
1912,-0.007850469102726907,0.0
1913,0.0049221468721648174,0.0
1914,-0.050064970558899954,0.0
1915,0.04278356577394174,0.0
1916,0.09468734926425673,0.0
1917,-0.0009264022321630316,0.0
1918,0.03416624881758869,0.0
1919,-0.05692373826915591,0.0
1920,0.3556346136638305,0.0
1921,3.881584367259836,0.0
1922,6.70622202769966,0.0
1923,-0.7568615621995831,0.0
1924,-1.6804861679867487,0.0
1925,1.5522944221162767,0.0
1926,-0.7946652594571741,0.0
1927,0.15398369016894442,0.0
1928,0.0505564817417825,0.0
1929,-0.05810461909928211,0.0
1930,0.005347601379354999,0.0
1931,-0.05820172756806497,0.0
1932,-0.009022483406600001,0.0
1933,-0.012588215706141534,0.0
1934,0.049128683856432195,0.0
1935,0.09944184622500996,0.0
1936,0.026749792959302795,0.0
1937,-0.01430815765326194,0.0
1938,0.0914332694767171,0.0
1939,0.08402105976755231,0.0
1940,0.3344751106468105,0.0
1941,3.8237620612870873,0.0
1942,6.749043405140996,0.0
1943,-0.7370487117023607,0.0
1944,-1.7097194480647795,0.0
1945,1.5622653429975069,0.0
1946,-0.6968242446195267,0.0
1947,0.17631101158332224,0.0
1948,-0.011313274384264507,0.0
1949,-0.11037100881707705,0.0
1950,0.08088417374403872,0.0
1951,0.04959126437608166,0.0
1952,0.024556447034680868,0.0
1953,0.002050308870481286,0.0
1954,-0.012861108812263142,0.0
1955,-0.056559927528814495,0.0
1956,-0.04203134733988202,0.0
1957,-0.08384998281670256,0.0
1958,0.0007003907043763302,0.0
1959,-0.083852098102206,0.0
1960,0.3076258609989141,0.0
1961,3.77666815760219,0.0
1962,6.799353922967578,0.0
1963,-0.7913164830112734,0.0
1964,-1.569982783173562,0.0
1965,1.469456434391101,0.0
1966,-0.7560002874016185,0.0
1967,0.1756402320396946,0.0
1968,-0.04489866528151717,0.0
1969,-0.03944705136540489,0.0
1970,0.014358409322097573,0.0
1971,0.0004831489586036991,0.0
1972,-0.03648531948970658,0.0
1973,0.0036658343063118437,0.0
1974,-0.006909512981556867,0.0
1975,0.006040405798505375,0.0
1976,0.030575263496709765,0.0
1977,-0.02340682666835086,0.0
1978,-0.04106832308067278,0.0
1979,-0.04695704108097892,0.0
1980,0.3216419171169752,0.0
1981,3.8551943972101332,0.0
1982,6.633954890056227,0.0
1983,-0.7649530650155565,0.0
1984,-1.602470310143833,0.0
1985,1.5470493557852811,0.0
1986,-0.7081250900480653,0.0
1987,0.1590758164148488,0.0
1988,0.014990254384618349,0.0
1989,-0.05690244854418326,0.0
1990,0.03108089585984121,0.0
1991,0.014510388636412514,0.0
1992,0.10166749421607006,0.0
1993,-0.11296536862141636,0.0
1994,0.050716721295043274,0.0
1995,-0.007438793302259364,0.0
1996,0.07095036073858212,0.0
1997,-0.0247263087874723,0.0
1998,-0.06141160057455055,0.0
1999,-0.0350201224309699,0.0
2000,0.3322783438207892,0.0
2001,3.784892276918146,0.0
2002,6.712905506284895,0.0
2003,-0.7912146052312579,0.0
2004,-1.6797521111484675,0.0
2005,1.4260622594458432,0.0
2006,-0.7045789300933338,0.0
2007,0.17960370831224653,0.0
2008,0.008633336205735552,0.0
2009,-0.037708441312818815,0.0
2010,-0.06777548803093024,0.0
2011,-0.1940365443452044,0.0
2012,-0.006773963787026278,0.0
2013,0.03682978800758961,0.0
2014,-0.06235952776966,0.0
2015,-0.060559463045272974,0.0
2016,-0.09495366383751858,0.0
2017,0.02825228784728505,0.0
2018,-0.03656385339209747,0.0
2019,0.019634801642645375,0.0
2020,0.4107807057466887,0.0
2021,3.85857998791446,0.0
2022,6.733191656884978,0.0
2023,-0.750539440471228,0.0
2024,-1.6360943208788208,0.0
2025,1.431751170775421,0.0
2026,-0.7090065676957006,0.0
2027,0.160357226337927,0.0
2028,-0.09499534789614619,0.0
2029,-0.020874852103725257,0.0
2030,0.0796593316104681,0.0
2031,0.11986419158308168,0.0
2032,-0.078712104388528,0.0
2033,0.007447586730244475,0.0
2034,0.06283011396856275,0.0
2035,-0.051030508561979986,0.0
2036,-0.042180193455612275,0.0
2037,0.0022091930168477297,0.0
2038,-0.02718317680559715,0.0
2039,-0.12096164011102217,0.0
2040,0.35769403161758795,0.0
2041,3.74098596416388,0.0
2042,6.641379066391684,0.0
2043,-0.84258272954135,0.0
2044,-1.6834178730325924,0.0
2045,1.429349168001253,0.0
2046,-0.7934026002649986,0.0
2047,0.24089479446157253,0.0
2048,0.035699207954755396,0.0
2049,-0.033791128716229586,0.0
2050,0.015133961242463606,0.0
2051,-0.03893796448209688,0.0
2052,-0.008753332633507492,0.0
2053,-0.03605258119893537,0.0
2054,-0.07331669963173384,0.0
2055,-0.016364666567488684,0.0
2056,0.013749657300645202,0.0
2057,0.07056711374817701,0.0
2058,-0.043203689011419036,0.0
2059,-0.03002923882546528,0.0
2060,0.25960999755845476,0.0
2061,3.781510458516221,0.0
2062,6.593850057947572,0.0
2063,-0.9206509018620161,0.0
2064,-1.7516555181471665,0.0
2065,1.4016730572254639,0.0
2066,-0.9051940049020569,0.0
2067,0.08539097865302134,0.0
2068,-0.060923074789710596,0.0
2069,-0.09078611793890878,0.0
2070,-0.05148883136695008,0.0
2071,-0.010527193296046594,0.0
2072,-0.0995512975893876,0.0
2073,-0.08894786087498117,0.0
2074,-0.07172784075428063,0.0
2075,-0.06364989074038566,0.0
2076,-0.08839905839391832,0.0
2077,-0.05201880975010201,0.0
2078,-0.07887608619900721,0.0
2079,-0.08339835909440657,0.0
2080,0.264878458931896,0.0
2081,3.841012922394998,0.0
2082,6.68970672873114,0.0
2083,-0.8137159226814732,0.0
2084,-1.669271786682985,0.0
2085,1.477147786524453,0.0
2086,-0.890005230894126,0.0
2087,0.13923347465250802,0.0
2088,0.0027896118163194122,0.0
2089,-0.05336391104598402,0.0
2090,-0.12337084740176396,0.0
2091,-0.026853494846194814,0.0
2092,-0.1424679455477426,0.0
2093,-0.028682111058146345,0.0
2094,-0.09639073289107516,0.0
2095,-0.10779221330491906,0.0
2096,-0.14671742991079795,0.0
2097,-0.12423008683673845,0.0
2098,0.002834700143020598,0.0
2099,0.015147530422877614,0.0
2100,0.3871572437225993,0.0
2101,3.856556911679351,0.0
2102,6.631973879194554,0.0
2103,-0.8401448688440432,0.0
2104,-1.6183099227150475,0.0
2105,1.433538215617545,0.0
2106,-0.848206746392407,0.0
2107,0.1475026947289081,0.0
2108,-0.04788475455838985,0.0
2109,-0.10259383689577711,0.0
2110,-0.06888016477288181,0.0
2111,-0.16044393745386437,0.0
2112,-0.10538479066888976,0.0
2113,0.0017915798827421447,0.0
2114,-0.1885867752279415,0.0
2115,-0.3143282900229499,0.0
2116,-0.09728732388792698,0.0
2117,-0.08546586286856855,0.0
2118,-0.05567988541177481,0.0
2119,-0.08347708908239433,0.0
2120,0.30346858408606336,0.0
2121,3.846867132851841,0.0
2122,6.664878507701085,0.0
2123,-0.9000105972448822,0.0
2124,-1.7638750665362881,0.0
2125,1.5075743937456687,0.0
2126,-0.7702069590516547,0.0
2127,0.1383019386711887,0.0
2128,-0.10477652440054751,0.0
2129,-0.046384046069803654,0.0
2130,-0.08092470957839057,0.0
2131,-0.09924646713764912,0.0
2132,0.04056019507015653,0.0
2133,0.013358935143719188,0.0
2134,0.056346422441654845,0.0
2135,0.06160558265772499,0.0
2136,-0.024256184076022383,0.0
2137,-0.11475371485788219,0.0
2138,-0.0212826550773295,0.0
2139,-0.026377217010707506,0.0
2140,0.3141975565813062,0.0
2141,3.876643813755392,0.0
2142,6.645969236863176,0.0
2143,-0.907925707292993,0.0
2144,-1.6829130789735098,0.0
2145,1.42392055830466,0.0
2146,-0.8381563009134451,0.0
2147,0.1545071416506369,0.0
2148,-0.07948775887934927,0.0
2149,-0.21195885717200952,0.0
2150,-0.06778936205703164,0.0
2151,-0.022859547877165792,0.0
2152,-0.10042556299513913,0.0
2153,-0.10948593426189754,0.0
2154,-0.10071587448859508,0.0
2155,-0.049232818581677634,0.0
2156,-0.09118935260065557,0.0
2157,-0.07167013087451725,0.0
2158,-0.10427719138548269,0.0
2159,-0.09887326288554374,0.0
2160,0.31444499209304205,0.0
2161,3.8531046956622674,0.0
2162,6.652213281947952,0.0
2163,-0.8614862170117618,0.0
2164,-1.7105110163546815,0.0
2165,1.3760468707247906,0.0
2166,-0.7662793971838038,0.0
2167,0.1686620595269976,0.0
2168,-0.038204688190373384,0.0
2169,-0.14708970589095016,0.0
2170,-0.037030397805618426,0.0
2171,-0.05806802259603441,0.0
2172,-0.09313245329413673,0.0
2173,-0.06389933629518785,0.0
2174,-0.02364593871922982,0.0
2175,0.029041325187992094,0.0
2176,-0.016146982860735085,0.0
2177,-0.057294675970238615,0.0
2178,-0.036721853190414974,0.0
2179,-0.07402027694388023,0.0
2180,0.24620989198436916,0.0
2181,3.906072306385421,0.0
2182,6.719953147847766,0.0
2183,-0.7712139495437051,0.0
2184,-1.6328532925869355,0.0
2185,1.360778791676998,0.0
2186,-0.7908195474749449,0.0
2187,0.1031202306328948,0.0
2188,0.0620024551976423,0.0
2189,-0.06169999268862475,0.0
2190,-0.0005911345091989262,0.0
2191,-0.1436373092319554,0.0
2192,-0.08162385656307554,0.0
2193,-0.12676368606481708,0.0
2194,-0.07834028030826419,0.0
2195,0.013208863838102873,0.0
2196,-0.1165211215327748,0.0
2197,-0.03382751877288096,0.0
2198,0.015340353722790058,0.0
2199,-0.053108491899703195,0.0
2200,0.3146708953631273,0.0
2201,3.9266866303506767,0.0
2202,6.685023744966468,0.0
2203,-0.9500187443656823,0.0
2204,-1.578777273278278,0.0
2205,1.4069092619437367,0.0
2206,-0.8041281061961804,0.0
2207,0.0897814423494665,0.0
2208,-0.0705157988048691,0.0
2209,-0.0029359514193402214,0.0
2210,-0.020785623911015738,0.0
2211,-0.051909205736606,0.0
2212,0.01525086670778323,0.0
2213,-0.04944097863293789,0.0
2214,-0.10516500012628188,0.0
2215,-0.09531388875148374,0.0
2216,-0.0309714389433361,0.0
2217,0.002553987887781946,0.0
2218,-0.05344659733151415,0.0
2219,-0.048160724642244065,0.0
2220,0.3351109309302255,0.0
2221,3.8236575349455557,0.0
2222,6.668037831906976,0.0
2223,-0.8780536789718448,0.0
2224,-1.6000981939641974,0.0
2225,1.484621210329866,0.0
2226,-0.7038564414393925,0.0
2227,0.11274897812785718,0.0
2228,0.051002991286420066,0.0
2229,-0.08350133622053042,0.0
2230,0.04212734561766661,0.0
2231,-0.0359519298289946,0.0
2232,-0.056213567546432766,0.0
2233,0.013892798973660312,0.0
2234,-0.03735004956647675,0.0
2235,0.00724172712792848,0.0
2236,-0.015392453250606869,0.0
2237,0.02853119955726569,0.0
2238,-0.02197694232302556,0.0
2239,-0.029798430804471976,0.0
2240,0.3444814578258124,0.0
2241,3.9176064721879884,0.0
2242,6.688908135022954,0.0
2243,-0.9313752442443676,0.0
2244,-1.6002422355943928,0.0
2245,1.4105054050722665,0.0
2246,-0.7553737171751741,0.0
2247,0.17648726211667526,0.0
2248,0.004118698437306542,0.0
2249,0.027720131287881943,0.0
2250,0.02515455018279069,0.0
2251,0.010831731461403659,0.0
2252,0.009908174615845039,0.0
2253,-0.03229254509707061,0.0
2254,-0.005042020631557991,0.0
2255,-0.010902723767874383,0.0
2256,0.058618967193745763,0.0
2257,-0.07812008559343561,0.0
2258,0.03886167213150543,0.0
2259,-0.12675095759242988,0.0
2260,0.4678742791147468,0.0
2261,3.974387693800035,0.0
2262,6.6958990180273865,0.0
2263,-0.9243164228956421,0.0
2264,-1.6492377054731537,0.0
2265,1.4724773156823365,0.0
2266,-0.7027054876802254,0.0
2267,0.18444535755529515,0.0
2268,0.019875748771000557,0.0
2269,0.08979064943976778,0.0
2270,-0.04309160783927548,0.0
2271,0.014703218330819553,0.0
2272,-0.0412851828715161,0.0
2273,0.01173262728361819,0.0
2274,-0.05158794417970243,0.0
2275,-0.06724552019894456,0.0
2276,0.01376527596981341,0.0
2277,-0.009652629280800924,0.0
2278,-0.03453606262730255,0.0
2279,0.047303343828727154,0.0
2280,0.3507728771737301,0.0
2281,3.852047034568134,0.0
2282,6.619806969675334,0.0
2283,-0.9412455658439207,0.0
2284,-1.5653181955395534,0.0
2285,1.478743316908463,0.0
2286,-0.6868495204432168,0.0
2287,0.18437771696825817,0.0
2288,0.05034063793672489,0.0
2289,0.055333495172241384,0.0
2290,0.08497607157810531,0.0
2291,0.07323452319607629,0.0
2292,0.004530001677504919,0.0
2293,0.03494947709643327,0.0
2294,0.008773905113198269,0.0
2295,0.051892630599362846,0.0
2296,0.09208849823705255,0.0
2297,0.04046854142722903,0.0
2298,0.03408212946116701,0.0
2299,-0.018445509197014133,0.0
2300,0.3917990353377441,0.0
2301,3.958812225954059,0.0
2302,6.7197499408531804,0.0
2303,-0.8509904450855406,0.0
2304,-1.4394672629568797,0.0
2305,1.4896271842482434,0.0
2306,-0.8219935575964213,0.0
2307,0.16625174024380862,0.0
2308,-0.03952949529099736,0.0
2309,-0.0526905392029502,0.0
2310,0.0764993059786376,0.0
2311,0.06208056497328034,0.0
2312,0.08193256530724816,0.0
2313,0.13861632320459893,0.0
2314,0.040286879317438226,0.0
2315,0.006693038062757655,0.0
2316,0.020633527052587763,0.0
2317,-0.000775040226790466,0.0
2318,-0.0657915402609916,0.0
2319,-0.013531247022071178,0.0
2320,0.4602495228293618,0.0
2321,3.870613331742364,0.0
2322,6.6816652661876015,0.0
2323,-0.8178312401540649,0.0
2324,-1.627026600333899,0.0
2325,1.414501278693278,0.0
2326,-0.7860738453897872,0.0
2327,0.23709596287058654,0.0
2328,-0.07192684465280483,0.0
2329,0.009557893139193873,0.0
2330,0.03578410246000854,0.0
2331,0.06526439388741975,0.0
2332,-0.03450829017961214,0.0
2333,0.033801506828124606,0.0
2334,-0.028505759900500506,0.0
2335,-0.09334017385700194,0.0
2336,-0.05506855365902708,0.0
2337,0.011730087682612635,0.0
2338,0.07798129005046818,0.0
2339,-0.02584832195613957,0.0
2340,0.315457537914551,0.0
2341,3.905182372109409,0.0
2342,6.5994646005320865,0.0
2343,-0.8549760764397084,0.0
2344,-1.6066501045504242,0.0
2345,1.5389939791965161,0.0
2346,-0.7867123598455745,0.0
2347,0.22565176491257938,0.0
2348,-0.07149067965491093,0.0
2349,-0.004241656493425255,0.0
2350,-0.006899458433770213,0.0
2351,-0.03757759786053472,0.0
2352,-0.0442031579919291,0.0
2353,-0.05815923833351354,0.0
2354,0.011041097272741726,0.0
2355,-0.008479078459964533,0.0
2356,0.003563260024748135,0.0
2357,0.028826504871465743,0.0
2358,0.09916110523213037,0.0
2359,-0.06163131694743326,0.0
2360,0.3649150664789096,0.0
2361,3.985283710529581,0.0
2362,6.770549774389606,0.0
2363,-0.8513275389042844,0.0
2364,-1.5550126941679414,0.0
2365,1.5018435275954432,0.0
2366,-0.8034519847831894,0.0
2367,0.17143133771117056,0.0
2368,0.03902563796436215,0.0
2369,-0.04789065241849697,0.0
2370,-0.01959077301842816,0.0
2371,0.019317670990868552,0.0
2372,0.05606042068748791,0.0
2373,0.021636484726951358,0.0
2374,0.04795669882524326,0.0
2375,0.015357341336070337,0.0
2376,0.057351015309783926,0.0
2377,0.033495893294563296,0.0
2378,0.05707401041402481,0.0
2379,0.02287275426655849,0.0
2380,0.3654505354077894,0.0
2381,3.961812004580126,0.0
2382,6.756154892994255,0.0
2383,-0.8713659307898719,0.0
2384,-1.5381827487564925,0.0
2385,1.4933594966245227,0.0
2386,-0.8089080513119234,0.0
2387,0.19054099534048358,0.0
2388,-0.07117720991911572,0.0
2389,-0.046648367306818,0.0
2390,-0.015153414028003322,0.0
2391,-0.03657202699383324,0.0
2392,-0.024072517808535865,0.0
2393,0.059377158851376094,0.0
2394,0.11862820355511604,0.0
2395,0.0011159648808784506,0.0
2396,0.04607082588539843,0.0
2397,0.005522081433278061,0.0
2398,0.08739623309340971,0.0
2399,0.1071408257231945,0.0
2400,0.425298256334541,0.0
2401,3.916370594230036,0.0
2402,6.796726492401839,0.0
2403,-0.7391883050679151,0.0
2404,-1.5308626027136356,0.0
2405,1.5326035573448153,0.0
2406,-0.7567342306784589,0.0
2407,0.25457689772144576,0.0
2408,0.06642276369228782,0.0
2409,-0.047403489684025725,0.0
2410,0.11448537333307122,0.0
2411,0.06062715880682833,0.0
2412,-0.011932683516433638,0.0
2413,-0.0661327510239003,0.0
2414,0.11470830631747457,0.0
2415,0.06917491100278278,0.0
2416,-0.029966592558239996,0.0
2417,-0.05337541581740804,0.0
2418,0.15989826932324586,0.0
2419,-0.057935776951812915,0.0
2420,0.36990092926438994,0.0
2421,3.9584346008391047,0.0
2422,6.723923700748613,0.0
2423,-0.9137293324091306,0.0
2424,-1.5609314956080524,0.0
2425,1.4777185258266068,0.0
2426,-0.7135794489814893,0.0
2427,0.16693269964173046,0.0
2428,-0.10829439447709571,0.0
2429,0.033058621999282126,0.0
2430,0.06787370501330216,0.0
2431,-0.035068348618378514,0.0
2432,-0.03176652281101364,0.0
2433,0.026335419086799604,0.0
2434,-0.05776282659655831,0.0
2435,-0.11002665988035927,0.0
2436,-0.01153610150150795,0.0
2437,0.021700120624850133,0.0
2438,0.0043017271537568345,0.0
2439,-0.02772185264945278,0.0
2440,0.4028193666483833,0.0
2441,3.979188657169594,0.0
2442,6.638098983648021,0.0
2443,-0.9588955620642503,0.0
2444,-1.5366059376613446,0.0
2445,1.4680382370040168,0.0
2446,-0.7890241183086223,0.0
2447,0.18588721750976336,0.0
2448,0.01267117442538486,0.0
2449,0.02486873511736029,0.0
2450,-0.036654007550559524,0.0
2451,-0.045001576624736694,0.0
2452,-0.028384165894960445,0.0
2453,-0.0017420216312664868,0.0
2454,-2.1735099323495766e-05,0.0
2455,0.007496396756789814,0.0
2456,-0.04057557612099719,0.0
2457,-0.06336767754947685,0.0
2458,0.00631131466474745,0.0
2459,-0.08003412691022385,0.0
2460,0.2602203766199717,0.0
2461,3.915960595639192,0.0
2462,6.494993815278211,0.0
2463,-0.885314653619989,0.0
2464,-1.5212880072140433,0.0
2465,1.4281490325101747,0.0
2466,-0.8831099608183696,0.0
2467,0.16346300726441562,0.0
2468,-0.03618126915891074,0.0
2469,0.012974638279159553,0.0
2470,0.04895082872314574,0.0
2471,-0.08380870223997725,0.0
2472,0.0013128923878283037,0.0
2473,0.024182928508960262,0.0
2474,-0.011053210910837236,0.0
2475,0.0401325465895061,0.0
2476,0.02186867826841255,0.0
2477,-0.1151330664054525,0.0
2478,-0.014254203983842011,0.0
2479,-0.004817115477640181,0.0
2480,0.30897590584603973,0.0
2481,3.9205833505413654,0.0
2482,6.632378110501726,0.0
2483,-0.8951969866490026,0.0
2484,-1.5695270505068217,0.0
2485,1.3669644038077198,0.0
2486,-0.7587243320633703,0.0
2487,0.16869058743472592,0.0
2488,-0.03208350184213119,0.0
2489,0.010637814338015507,0.0
2490,-0.023006157541196705,0.0
2491,-0.10185234221911876,0.0
2492,0.01918954174726074,0.0
2493,0.0376176546601047,0.0
2494,-0.01058594308970776,0.0
2495,0.05151006805186901,0.0
2496,0.011164450258006275,0.0
2497,0.09402947060907804,0.0
2498,-0.06445277057054133,0.0
2499,-0.012625885303576964,0.0
2500,0.32130352758263947,0.0
2501,3.896163336067935,0.0
2502,6.686362701319792,0.0
2503,-1.023269568165315,0.0
2504,-1.6263918834802138,0.0
2505,1.4460752497085174,0.0
2506,-0.8200623243911808,0.0
2507,0.058396121262045866,0.0
2508,-0.03649137780160294,0.0
2509,-0.12781050358821544,0.0
2510,-0.10340640036088303,0.0
2511,-0.058104589899632346,0.0
2512,-0.013023896628064933,0.0
2513,-0.03811274617273006,0.0
2514,-0.05871270375964823,0.0
2515,0.031697087856890814,0.0
2516,-0.17952712679964683,0.0
2517,-0.012218207722411334,0.0
2518,0.006310361383108223,0.0
2519,-0.039402493222889065,0.0
2520,0.321314608198704,0.0
2521,3.9316417978110785,0.0
2522,6.654206795583307,0.0
2523,-0.8388487789668955,0.0
2524,-1.5624940624766526,0.0
2525,1.4410688183603129,0.0
2526,-0.8332036349811376,0.0
2527,0.11801856905373034,0.0
2528,-0.05154135432000918,0.0
2529,-0.1438784702305757,0.0
2530,0.059686872940255264,0.0
2531,-0.07994758063004072,0.0
2532,-0.08719340957649113,0.0
2533,-0.026058806493646433,0.0
2534,-0.17590600177334803,0.0
2535,-0.12436706788247703,0.0
2536,-0.039295211685331725,0.0
2537,0.006384390393404271,0.0
2538,-0.05171163518419221,0.0
2539,-0.04494374840104586,0.0
2540,0.3095051037620579,0.0
2541,3.949344469620338,0.0
2542,6.703611009778176,0.0
2543,-0.9979252861124671,0.0
2544,-1.6827365850235105,0.0
2545,1.4916972411048959,0.0
2546,-0.8035863840875924,0.0
2547,0.1738923852369521,0.0
2548,-0.10092901285222355,0.0
2549,-0.06363149346012376,0.0
2550,0.08020752556623223,0.0
2551,0.005109413105591273,0.0
2552,0.059430529711639715,0.0
2553,-0.010738033240927338,0.0
2554,-0.035692694117239694,0.0
2555,0.04841821188401794,0.0
2556,-0.030114367459274274,0.0
2557,-0.012342706294504993,0.0
2558,-0.08331719079851643,0.0
2559,-0.05975717129708945,0.0
2560,0.23068619217268269,0.0
2561,3.958455806049425,0.0
2562,6.663830662902357,0.0
2563,-0.9711708790269201,0.0
2564,-1.5954154345218274,0.0
2565,1.4301691884568488,0.0
2566,-0.8171500347790361,0.0
2567,0.15695415446213232,0.0
2568,-0.07547057903810964,0.0
2569,0.054011346543085946,0.0
2570,0.020478153774575618,0.0
2571,-0.09848297184369458,0.0
2572,-0.00564815398597966,0.0
2573,0.0028602311288408763,0.0
2574,-0.024475281887810105,0.0
2575,-0.0003456195072126366,0.0
2576,0.028309512068110658,0.0
2577,0.014368518379324985,0.0
2578,-0.03595725553643035,0.0
2579,-0.06153650094134379,0.0
2580,0.4086328054980134,0.0
2581,3.841234341544356,0.0
2582,6.5626291601520705,0.0
2583,-1.0638290397748444,0.0
2584,-1.6180312647633175,0.0
2585,1.4668158868016976,0.0
2586,-0.8273344857046627,0.0
2587,0.14644414881068832,0.0
2588,-0.050100085638685565,0.0
2589,0.028400059621832535,0.0
2590,0.06527278807921225,0.0
2591,-0.017538025802494306,0.0
2592,-0.10224529809835159,0.0
2593,-0.02209692654245448,0.0
2594,-0.0028523810405668183,0.0
2595,-0.014495092132897913,0.0
2596,-0.03917163871816562,0.0
2597,-0.03820790593877354,0.0
2598,-0.050248737727498924,0.0
2599,-0.010203078749687872,0.0
2600,0.36567782488206046,0.0
2601,3.9608455149469197,0.0
2602,6.669700264901794,0.0
2603,-1.1108025253729161,0.0
2604,-1.5517262508468392,0.0
2605,1.3945911219819274,0.0
2606,-0.8044764643576593,0.0
2607,0.17815898828077964,0.0
2608,0.017869595954637614,0.0
2609,-0.04355326099776219,0.0
2610,-0.0015970440633209099,0.0
2611,-0.1375299625032163,0.0
2612,-0.10203413900243581,0.0
2613,0.01739073510415476,0.0
2614,0.04130832483207187,0.0
2615,-0.06882443448421419,0.0
2616,-0.059334834543074796,0.0
2617,-0.10506959073505909,0.0
2618,0.06172862528804678,0.0
2619,-0.09146705509250297,0.0
2620,0.337296442002042,0.0
2621,4.020397309068852,0.0
2622,6.740773517334778,0.0
2623,-1.0623405517607347,0.0
2624,-1.4294103293986842,0.0
2625,1.4118206784446925,0.0
2626,-0.8041818045007748,0.0
2627,0.09236841806162316,0.0
2628,-0.0034436128973703295,0.0
2629,0.0016979685288982665,0.0
2630,-0.025508286660813555,0.0
2631,-0.017373040562036663,0.0
2632,-0.005985881461057746,0.0
2633,0.015180252946722626,0.0
2634,-0.08149863370352581,0.0
2635,-0.053240977092725995,0.0
2636,0.025059256775035045,0.0
2637,-0.04916452444596254,0.0
2638,-0.09992451889141551,0.0
2639,-0.056962685521874605,0.0
2640,0.33964922849720197,0.0
2641,3.843461879503811,0.0
2642,6.605132266516365,0.0
2643,-1.0021891824089686,0.0
2644,-1.645478622715851,0.0
2645,1.3811248068703454,0.0
2646,-0.7877857943135338,0.0
2647,0.10716321455288179,0.0
2648,-0.08275238737724769,0.0
2649,-0.09528163185531599,0.0
2650,-0.08487347216082325,0.0
2651,-0.15167190357032584,0.0
2652,-0.11288189992681119,0.0
2653,-0.08752043959806301,0.0
2654,-0.09204283306226262,0.0
2655,-0.06820970422772983,0.0
2656,-0.053167639424801155,0.0
2657,-0.08037568347160301,0.0
2658,-0.07910408577441373,0.0
2659,-0.042875847894915435,0.0
2660,0.3086388184775522,0.0
2661,3.969032337983035,0.0
2662,6.572718748462708,0.0
2663,-1.0463736423167356,0.0
2664,-1.4967302879676518,0.0
2665,1.4141106868605084,0.0
2666,-0.7868421454905372,0.0
2667,0.21245062163559772,0.0
2668,-0.05525585471419649,0.0
2669,-0.11572297007236791,0.0
2670,-0.07389361388374394,0.0
2671,-0.01283448811732956,0.0
2672,-0.08898906988110634,0.0
2673,-0.06619821634328132,0.0
2674,-0.020453374546188313,0.0
2675,-0.14890703482818574,0.0
2676,-0.04935890941065396,0.0
2677,-0.1671836983915953,0.0
2678,-0.06088236864631288,0.0
2679,0.019790216654362487,0.0
2680,0.370566892140083,0.0
2681,3.9864959646353393,0.0
2682,6.60021554929322,0.0
2683,-1.048749905322373,0.0
2684,-1.641839554615554,0.0
2685,1.3683904196696997,0.0
2686,-0.7172000182994429,0.0
2687,0.2623057987086165,0.0
2688,-0.019036244681216372,0.0
2689,-0.054214678625675645,0.0
2690,-0.05010774554160458,0.0
2691,0.05057230276893121,0.0
2692,0.011614201551760748,0.0
2693,0.04293090333234579,0.0
2694,-0.038863904229613326,0.0
2695,-0.031828767165648884,0.0
2696,0.04975193605137597,0.0
2697,-0.04294135594704222,0.0
2698,0.005828844820131133,0.0
2699,0.024186696994886975,0.0
2700,0.31000231637093895,0.0
2701,3.9177393933724955,0.0
2702,6.627953812413956,0.0
2703,-1.1346023115740551,0.0
2704,-1.6443386346964335,0.0
2705,1.3955466957067066,0.0
2706,-0.750895046350682,0.0
2707,0.15876679478400976,0.0
2708,-0.09491584733349787,0.0
2709,-0.07771820627981933,0.0
2710,-0.0016717226093692777,0.0
2711,-0.11541864613136509,0.0
2712,-0.03162111402716531,0.0
2713,-0.14046384579468246,0.0
2714,-0.08312868055609635,0.0
2715,-0.07604149740806247,0.0
2716,-0.10299037285651574,0.0
2717,-0.13124798233136442,0.0
2718,0.0006746380048695474,0.0
2719,-0.05445233844519598,0.0
2720,0.2964258883581703,0.0
2721,3.958156724572771,0.0
2722,6.640600727442449,0.0
2723,-0.9698442089994906,0.0
2724,-1.5754820099627003,0.0
2725,1.4322467018627847,0.0
2726,-0.8935160390095069,0.0
2727,0.22195812348964672,0.0
2728,0.00039443676077241877,0.0
2729,-0.07683715280390696,0.0
2730,0.053149748215251244,0.0
2731,-0.018540766467642217,0.0
2732,0.018956931101695877,0.0
2733,-0.049224804348553024,0.0
2734,0.014743726657767582,0.0
2735,0.034573230101809904,0.0
2736,0.05180499046230167,0.0
2737,-0.057342661729095634,0.0
2738,0.007677728612592929,0.0
2739,-0.03657229824858691,0.0
2740,0.4054129213415457,0.0
2741,4.092192142389257,0.0
2742,6.614221336680203,0.0
2743,-0.9278527500325153,0.0
2744,-1.5160584250772817,0.0
2745,1.3846838892166662,0.0
2746,-0.8215441231939101,0.0
2747,0.20376266086424816,0.0
2748,0.013966586548637656,0.0
2749,-0.08320383513549104,0.0
2750,0.0719189774198638,0.0
2751,-0.03490514187116775,0.0
2752,0.06285083672865147,0.0
2753,-0.01110180552295938,0.0
2754,-0.06948101436120577,0.0
2755,-0.0738825868720805,0.0
2756,-0.13864888128354863,0.0
2757,-0.007820882483054691,0.0
2758,0.0018371849545452297,0.0
2759,-0.09310961391097372,0.0
2760,0.3716815473431264,0.0
2761,4.055415380683213,0.0
2762,6.565565167619959,0.0
2763,-1.0902624962081298,0.0
2764,-1.57722009935409,0.0
2765,1.4133930127349474,0.0
2766,-0.8502464204466221,0.0
2767,0.1755256330470712,0.0
2768,0.023767797859431974,0.0
2769,0.023419987668006667,0.0
2770,0.037245698525437146,0.0
2771,0.03560094666110201,0.0
2772,0.08483347874495686,0.0
2773,-0.014108601201115786,0.0
2774,0.0790991700922853,0.0
2775,-0.009734683413362174,0.0
2776,-0.022881575986037937,0.0
2777,0.031315997063510785,0.0
2778,0.030978549696528804,0.0
2779,-0.03458184211296791,0.0
2780,0.38691693754705964,0.0
2781,4.118682864444251,0.0
2782,6.585410049433256,0.0
2783,-1.0709748356092472,0.0
2784,-1.4741134534768368,0.0
2785,1.4962001543280974,0.0
2786,-0.7920913576169167,0.0
2787,0.1791935960764447,0.0
2788,-0.08090382506719497,0.0
2789,0.01683990879881951,0.0
2790,0.0032408863208957294,0.0
2791,-0.03454463365620776,0.0
2792,0.022005172495755888,0.0
2793,0.006658672625144902,0.0
2794,-0.024270534740263965,0.0
2795,0.08579979475203778,0.0
2796,0.01495421330669131,0.0
2797,-0.005809880276604109,0.0
2798,-0.0021254367302877665,0.0
2799,-0.06005138994934678,0.0
2800,0.3655459089156315,0.0
2801,4.0834353925137705,0.0
2802,6.637076253610304,0.0
2803,-1.0649314313899938,0.0
2804,-1.4650654591904466,0.0
2805,1.4459035255105983,0.0
2806,-0.7869093926803614,0.0
2807,0.32231063453787195,0.0
2808,-0.006046373253604489,0.0
2809,0.02192104951341928,0.0
2810,0.044194482945215156,0.0
2811,-0.010481737084617155,0.0
2812,0.009450819080600071,0.0
2813,0.07890672269546689,0.0
2814,-0.020763551410149083,0.0
2815,0.014845947465270357,0.0
2816,0.06035118516832823,0.0
2817,0.0077997063542768336,0.0
2818,0.06750180550132409,0.0
2819,0.025156895497425176,0.0
2820,0.4147487279918711,0.0
2821,4.003289979553036,0.0
2822,6.6379779329294,0.0
2823,-1.0025184253427937,0.0
2824,-1.5691769192145755,0.0
2825,1.4437039347151506,0.0
2826,-0.8045134336859404,0.0
2827,0.31663533596487975,0.0
2828,0.002756305110103316,0.0
2829,0.011309278937059068,0.0
2830,0.010223513868399745,0.0
2831,0.08691321464867949,0.0
2832,0.08402135866550674,0.0
2833,0.0050036211207090675,0.0
2834,0.019307131869759173,0.0
2835,0.020642374667907144,0.0
2836,0.04231001380732328,0.0
2837,0.01329455406986612,0.0
2838,0.14566340204642608,0.0
2839,0.004151876551773501,0.0
2840,0.41306992909145057,0.0
2841,4.037494673402975,0.0
2842,6.653780504443858,0.0
2843,-0.923391936050026,0.0
2844,-1.383944334894367,0.0
2845,1.4413387766001766,0.0
2846,-0.7875567153494697,0.0
2847,0.2289698048211588,0.0
2848,-0.016536397770419042,0.0
2849,-0.004328760548434574,0.0
2850,0.03762636741548832,0.0
2851,-0.0013404107708708257,0.0
2852,-0.03165659252043951,0.0
2853,0.058638390829582554,0.0
2854,-0.04972610722486526,0.0
2855,-0.03885717051777256,0.0
2856,0.07007669150579693,0.0
2857,-0.01407495744039463,0.0
2858,0.09757485339165375,0.0
2859,0.14309548492224566,0.0
2860,0.4650286316753273,0.0
2861,3.9966855477614125,0.0
2862,6.723363470005893,0.0
2863,-0.9410963951556482,0.0
2864,-1.4811263838787012,0.0
2865,1.559168310733083,0.0
2866,-0.8440828414722384,0.0
2867,0.22434933342027127,0.0
2868,-0.044086468959495986,0.0
2869,-0.018718453063130577,0.0
2870,0.05043950141136462,0.0
2871,0.058012556745964186,0.0
2872,0.0366297037436359,0.0
2873,0.01146864319519025,0.0
2874,0.09977487192909415,0.0
2875,0.025352717436018867,0.0
2876,-0.07576359771636787,0.0
2877,-0.040225770265576735,0.0
2878,0.029479320378631442,0.0
2879,-0.009572153828341277,0.0
2880,0.48779804751934286,0.0
2881,4.086994983888139,0.0
2882,6.674367954206732,0.0
2883,-0.9769182762841914,0.0
2884,-1.3922500329315384,0.0
2885,1.4367917465619031,0.0
2886,-0.7432929810049375,0.0
2887,0.23498071095769463,0.0
2888,-0.02785947289131479,0.0
2889,0.07491468867091312,0.0
2890,0.020535165503612084,0.0
2891,0.031845004902427414,0.0
2892,0.07578751791556292,0.0
2893,0.00692447668873006,0.0
2894,0.05079925634589801,0.0
2895,0.06519167279823765,0.0
2896,-0.011033388152782472,0.0
2897,-0.0048070236586664344,0.0
2898,0.08204534737972166,0.0
2899,0.09103691650557537,0.0
2900,0.4733074401472527,0.0
2901,4.127359857451548,0.0
2902,6.6579789200503825,0.0
2903,-0.9549363470876867,0.0
2904,-1.436403549847861,0.0
2905,1.4453037440440664,0.0
2906,-0.7377613423616641,0.0
2907,0.23905180735654086,0.0
2908,0.11712232753177176,0.0
2909,-0.06629415134554426,0.0
2910,0.08354244305527952,0.0
2911,0.04935123968039891,0.0
2912,0.03150388878416853,0.0
2913,0.02963725140605317,0.0
2914,0.1026463089330685,0.0
2915,-0.0036893805044976927,0.0
2916,0.026561677806379826,0.0
2917,0.035766324040965,0.0
2918,0.12643905580820713,0.0
2919,0.12050278607373352,0.0
2920,0.42244953207953484,0.0
2921,4.170468232381604,0.0
2922,6.7240362088215635,0.0
2923,-1.0301742372880964,0.0
2924,-1.3304098378264282,0.0
2925,1.5031690671249096,0.0
2926,-0.7207207394772749,0.0
2927,0.28667052227189693,0.0
2928,0.03788390994555545,0.0
2929,0.10847361969561528,0.0
2930,0.1050255892123525,0.0
2931,0.10325787691362223,0.0
2932,0.07451065752090294,0.0
2933,0.06297287644400756,0.0
2934,0.07897685074774521,0.0
2935,0.002783329014998729,0.0
2936,0.04939304657880614,0.0
2937,-0.05492598355229271,0.0
2938,-0.0367977313529353,0.0
2939,0.06899850383390826,0.0
2940,0.47096670883036224,0.0
2941,4.042513680877827,0.0
2942,6.589815831256486,0.0
2943,-0.9224189429130587,0.0
2944,-1.4232033556060906,0.0
2945,1.4898314291653942,0.0
2946,-0.7203651394619096,0.0
2947,0.17942209545671958,0.0
2948,0.041706295472060256,0.0
2949,0.12329645835917194,0.0
2950,0.08726182574714238,0.0
2951,0.11325909368710088,0.0
2952,-0.011719535233947823,0.0
2953,0.021808248808739196,0.0
2954,0.07451333357946263,0.0
2955,0.10498805522351598,0.0
2956,0.09294764924669108,0.0
2957,0.12062605863232023,0.0
2958,0.11635090635755123,0.0
2959,0.1425172037805161,0.0
2960,0.4475232973070114,0.0
2961,4.168966608696215,0.0
2962,6.690083780679999,0.0
2963,-0.9550618499094837,0.0
2964,-1.3119275978009162,0.0
2965,1.45999754340893,0.0
2966,-0.6574089929518186,0.0
2967,0.256610706908883,0.0
2968,0.030693924504721297,0.0
2969,0.10250801226784317,0.0
2970,0.10965235458305428,0.0
2971,0.10584487462832831,0.0
2972,0.170915758199003,0.0
2973,-0.022072965144125087,0.0
2974,0.027734628779814308,0.0
2975,0.11162965496007327,0.0
2976,0.12414627082194467,0.0
2977,0.15376340538710306,0.0
2978,0.19118003072047007,0.0
2979,0.06315268754748062,0.0
2980,0.45427140291291135,0.0
2981,4.180806305701357,0.0
2982,6.749343953318274,0.0
2983,-1.0309431021414268,0.0
2984,-1.4378624736123653,0.0
2985,1.5131050744460415,0.0
2986,-0.6644963481712494,0.0
2987,0.19038700981175863,0.0
2988,0.043214491661097615,0.0
2989,0.08055120504456985,0.0
2990,-0.012348415643712723,0.0
2991,0.1603472324518678,0.0
2992,0.05637097308782154,0.0
2993,0.11356889686607509,0.0
2994,0.09390810842694602,0.0
2995,0.01577100719325096,0.0
2996,0.01874013082635076,0.0
2997,0.058071740566240315,0.0
2998,0.09034465878640996,0.0
2999,0.0938628474362337,0.0
3000,0.3768006616097174,0.0
3001,4.090267365871126,0.0
3002,6.777294567426676,0.0
3003,-1.0033928529281289,0.0
3004,-1.4138512198219908,0.0
3005,1.4759822064068044,0.0
3006,-0.735727194572145,0.0
3007,0.2921522982658021,0.0
3008,0.003832972176258595,0.0
3009,0.012790588137718942,0.0
3010,0.08316295577807857,0.0
3011,0.021027770319770392,0.0
3012,0.0810724242747075,0.0
3013,0.017571225606565544,0.0
3014,0.0788554606166856,0.0
3015,0.07654590099570793,0.0
3016,0.1356936861947048,0.0
3017,0.08826925095244678,0.0
3018,0.11105537508940957,0.0
3019,0.08929628777637225,0.0
3020,0.4483818750240336,0.0
3021,4.116314589994664,0.0
3022,6.719206679356064,0.0
3023,-0.943477423543783,0.0
3024,-1.4089116914856021,0.0
3025,1.5388797854148828,0.0
3026,-0.6935295817201167,0.0
3027,0.3280122077347968,0.0
3028,0.0010621908589961149,0.0
3029,0.1889349780645217,0.0
3030,0.12061476664672625,0.0
3031,0.018376304258479983,0.0
3032,0.09093979091204335,0.0
3033,0.13457324753335836,0.0
3034,0.12399057659913962,0.0
3035,0.2075815586463502,0.0
3036,0.09019520378052505,0.0
3037,0.06408660162804208,0.0
3038,0.11587784934620551,0.0
3039,0.11591082888016588,0.0
3040,0.43338102032701886,0.0
3041,4.044266149425138,0.0
3042,6.622221483215041,0.0
3043,-1.0729053479993347,0.0
3044,-1.3642182000283978,0.0
3045,1.464249883857027,0.0
3046,-0.6690206130605106,0.0
3047,0.1450081487089601,0.0
3048,0.06188257630547957,0.0
3049,-0.028847337867177324,0.0
3050,0.16130526036577844,0.0
3051,0.12408279028657655,0.0
3052,0.03788535794057928,0.0
3053,0.045799925985415366,0.0
3054,0.14714247973242361,0.0
3055,0.1275641351669614,0.0
3056,0.056819889293569625,0.0
3057,0.1272220183699768,0.0
3058,0.06139430493226672,0.0
3059,-0.03413723859810336,0.0
3060,0.528750665373645,0.0
3061,4.123659427459869,0.0
3062,6.6626155526055815,0.0
3063,-1.002325198802547,0.0
3064,-1.330539543422301,0.0
3065,1.5046261720276009,0.0
3066,-0.7134225368589913,0.0
3067,0.3590555232211458,0.0
3068,0.002306056531525838,0.0
3069,0.05967409087806956,0.0
3070,0.06726731050337535,0.0
3071,0.06144432699860638,0.0
3072,0.08436397801924503,0.0
3073,0.02531717990000859,0.0
3074,-0.04217207223073029,0.0
3075,0.032503362504429915,0.0
3076,0.1508342904423587,0.0
3077,-0.08816907067044324,0.0
3078,-0.02264347520290924,0.0
3079,0.013988853532230661,0.0
3080,0.45744416134058924,0.0
3081,4.1071095855442,0.0
3082,6.66261933125498,0.0
3083,-1.119370147818254,0.0
3084,-1.326804254860925,0.0
3085,1.4108029995933289,0.0
3086,-0.7887326436296742,0.0
3087,0.1560792907908794,0.0
3088,0.08939741683948993,0.0
3089,0.11257235425340198,0.0
3090,0.11404014803931126,0.0
3091,0.03869932565238547,0.0
3092,0.042605493336850216,0.0
3093,0.08759271845541326,0.0
3094,0.08821345493306892,0.0
3095,0.06505906709622729,0.0
3096,0.009222452922148072,0.0
3097,0.04886838757524206,0.0
3098,0.060310032476574335,0.0
3099,0.03509945798305353,0.0
3100,0.5004937823630223,0.0
3101,4.216045570322156,0.0
3102,6.648443310667394,0.0
3103,-1.0431250915969343,0.0
3104,-1.433428613825298,0.0
3105,1.530006659265288,0.0
3106,-0.7529094840422066,0.0
3107,0.24305902318964467,0.0
3108,-0.07306828529253068,0.0
3109,0.010347869355382386,0.0
3110,0.036348674250588936,0.0
3111,-0.0063343336523389825,0.0
3112,-0.04238690585534551,0.0
3113,-0.03782206541214652,0.0
3114,-0.08285441692556934,0.0
3115,-0.11384888937108348,0.0
3116,-0.038293447961450185,0.0
3117,-0.025945763131979663,0.0
3118,-0.04700973730270415,0.0
3119,-0.004318094813530172,0.0
3120,0.4307249112696604,0.0
3121,4.0367992616103985,0.0
3122,6.71001139960301,0.0
3123,-1.121013381918918,0.0
3124,-1.5264368263991719,0.0
3125,1.41197482241575,0.0
3126,-0.7249890392486157,0.0
3127,0.2190258187306997,0.0
3128,0.06575148656988629,0.0
3129,0.047695198317437515,0.0
3130,-0.031067686505953318,0.0
3131,0.04941832773913893,0.0
3132,0.015929904013231317,0.0
3133,0.0010684725343596078,0.0
3134,-0.07192732029008025,0.0
3135,0.022208889285444237,0.0
3136,0.06778820931886861,0.0
3137,0.0002041347616407868,0.0
3138,0.018190261451877757,0.0
3139,-0.0055345269765959965,0.0
3140,0.4369231889582728,0.0
3141,4.046021428287407,0.0
3142,6.534560337290284,0.0
3143,-1.1689905760828045,0.0
3144,-1.5568680287059418,0.0
3145,1.4382995414623885,0.0
3146,-0.7766902071029309,0.0
3147,0.09439126215090796,0.0
3148,-0.0363568709319518,0.0
3149,-0.0963183017295628,0.0
3150,-0.0032770950976052753,0.0
3151,-0.08731559341834998,0.0
3152,-0.020756860589482427,0.0
3153,-0.05801568535584622,0.0
3154,-0.03227659716578554,0.0
3155,-0.029896561259299716,0.0
3156,-0.06654889992228051,0.0
3157,-0.01723759772916861,0.0
3158,-0.007566900568790449,0.0
3159,-0.038454126184156834,0.0
3160,0.3464612525845884,0.0
3161,4.024189677571049,0.0
3162,6.635830563333451,0.0
3163,-1.1501352621623058,0.0
3164,-1.5418525600762532,0.0
3165,1.4174826746461087,0.0
3166,-0.7613907073633246,0.0
3167,0.13117212395689637,0.0
3168,-0.17161328518141183,0.0
3169,-0.06758647822534333,0.0
3170,-0.09067570157853672,0.0
3171,-0.07432132812913031,0.0
3172,-0.11656202138546279,0.0
3173,-0.11260185330906307,0.0
3174,0.04139946026025443,0.0
3175,-0.07620233761035335,0.0
3176,-0.036452934158689505,0.0
3177,-0.0075535286689168285,0.0
3178,-0.10506365371765455,0.0
3179,-0.0689059247162929,0.0
3180,0.4484495542218089,0.0
3181,4.077638179952335,0.0
3182,6.571706463068349,0.0
3183,-1.1550832114963536,0.0
3184,-1.4204375206386088,0.0
3185,1.3865795674855448,0.0
3186,-0.8066491976151547,0.0
3187,0.2096410321683394,0.0
3188,-0.03823807861135073,0.0
3189,-0.02190918292279391,0.0
3190,-0.0026888754686637054,0.0
3191,-0.08852393382410884,0.0
3192,-0.07251814093302367,0.0
3193,-0.06410525308361617,0.0
3194,0.014972073968738297,0.0
3195,-0.044634913653103195,0.0
3196,0.056943269372177446,0.0
3197,0.03668244414255535,0.0
3198,0.018735874632700527,0.0
3199,0.026118015525620784,0.0
3200,0.416857530563837,0.0
3201,4.126596203069161,0.0
3202,6.545003660651276,0.0
3203,-1.1042782974576484,0.0
3204,-1.463386873405688,0.0
3205,1.4275443919918611,0.0
3206,-0.8308539169839237,0.0
3207,0.28599349149129194,0.0
3208,-0.0067909577341086595,0.0
3209,-0.11156496404882135,0.0
3210,0.015689114520674022,0.0
3211,-0.04829239914325641,0.0
3212,0.042878730975407335,0.0
3213,-0.03460315445906625,0.0
3214,-0.030453163988232175,0.0
3215,0.06098685756407879,0.0
3216,-0.14608361176244045,0.0
3217,-0.012795745594595046,0.0
3218,-0.022294668186099806,0.0
3219,0.007751539364287484,0.0
3220,0.4889033832305708,0.0
3221,4.107461145031821,0.0
3222,6.529082825101385,0.0
3223,-1.1738860470103827,0.0
3224,-1.4033685318376776,0.0
3225,1.360646001064444,0.0
3226,-0.8392341953925249,0.0
3227,0.2713203711765791,0.0
3228,-0.007537430065076463,0.0
3229,-0.05967508269028949,0.0
3230,0.007097931828326831,0.0
3231,0.0224630066526469,0.0
3232,-0.004645880258719202,0.0
3233,0.07264716824068132,0.0
3234,-0.017915841956452315,0.0
3235,-0.06967153899419559,0.0
3236,-0.048779124978365514,0.0
3237,-0.09876467469225371,0.0
3238,-0.11122044426510824,0.0
3239,0.0054523184564371704,0.0
3240,0.39002007938290467,0.0
3241,4.044325271688849,0.0
3242,6.491601474665754,0.0
3243,-1.1219910779278945,0.0
3244,-1.431907048980584,0.0
3245,1.3194957393117577,0.0
3246,-0.8402523477303202,0.0
3247,0.2457330670115713,0.0
3248,0.035218722710454065,0.0
3249,0.03790971963482093,0.0
3250,0.023886271685383095,0.0
3251,-0.03885869459256752,0.0
3252,0.00543022535870509,0.0
3253,0.07770710036163661,0.0
3254,0.07229028770187196,0.0
3255,0.0030517436083027163,0.0
3256,0.04147757894389974,0.0
3257,-0.006702626425926159,0.0
3258,-0.019891095218150186,0.0
3259,-0.08427843419624502,0.0
3260,0.49184207045858336,0.0
3261,3.963419033975305,0.0
3262,6.579137391364324,0.0
3263,-1.1603065222334146,0.0
3264,-1.4411143875908061,0.0
3265,1.450516801719226,0.0
3266,-0.8398611685929429,0.0
3267,0.12518827519773684,0.0
3268,-0.12950927302236728,0.0
3269,0.025904174192094703,0.0
3270,-0.1079174151657454,0.0
3271,-0.02239026366095074,0.0
3272,-0.02493615478893943,0.0
3273,-0.028975486956908183,0.0
3274,-0.03858200549172052,0.0
3275,0.001412068551669688,0.0
3276,0.02494431674095007,0.0
3277,-0.01586014350852346,0.0
3278,-0.02651871715787982,0.0
3279,-0.050488334257072054,0.0
3280,0.35308678354133394,0.0
3281,4.122040314574393,0.0
3282,6.573886702210302,0.0
3283,-1.1530303941265831,0.0
3284,-1.4163698059384213,0.0
3285,1.4497203319491982,0.0
3286,-0.8729682316660402,0.0
3287,0.08833231030094676,0.0
3288,-0.052745486274426476,0.0
3289,0.02097853305426261,0.0
3290,0.03922646081093377,0.0
3291,0.00021992267339848975,0.0
3292,-0.025843606516408532,0.0
3293,0.03223355616767291,0.0
3294,0.09636728276575447,0.0
3295,0.09748430009757254,0.0
3296,0.03382395493162639,0.0
3297,-0.00273884437821768,0.0
3298,0.013519563971466532,0.0
3299,-0.06061932742873015,0.0
3300,0.42430720477685235,0.0
3301,4.13258091746606,0.0
3302,6.588550718352557,0.0
3303,-1.1887813281022404,0.0
3304,-1.4001443708981824,0.0
3305,1.462839896655353,0.0
3306,-0.8588282188196468,0.0
3307,0.1923402408456484,0.0
3308,-0.06371785847405505,0.0
3309,-0.03610519155636116,0.0
3310,-0.03770817859314793,0.0
3311,-0.01595498099167635,0.0
3312,-0.09679326414462071,0.0
3313,0.021244716215682788,0.0
3314,-0.04876700671985269,0.0
3315,0.02533998148802547,0.0
3316,0.01810423426927322,0.0
3317,-0.08660463590218484,0.0
3318,-0.017267563320618212,0.0
3319,-0.11310952901785123,0.0
3320,0.3399762285355695,0.0
3321,4.048627189388068,0.0
3322,6.6236506957236,0.0
3323,-1.0781090428216302,0.0
3324,-1.4701504884220444,0.0
3325,1.3511533479594857,0.0
3326,-0.7724320105865139,0.0
3327,0.21544064296074522,0.0
3328,-0.02791673970326445,0.0
3329,-0.056324259253757156,0.0
3330,0.10367686972944219,0.0
3331,0.03215027188546666,0.0
3332,0.04292279586466442,0.0
3333,-0.0007882047106259112,0.0
3334,0.001412216496010081,0.0
3335,-0.047505692167573034,0.0
3336,0.007969886892710054,0.0
3337,-0.010504173026532594,0.0
3338,0.0012869602515317483,0.0
3339,0.02951309128923342,0.0
3340,0.3193258323355897,0.0
3341,4.060046674626913,0.0
3342,6.5368491898983905,0.0
3343,-1.0938616993733163,0.0
3344,-1.4207039063552236,0.0
3345,1.5072082646559812,0.0
3346,-0.6410236615390126,0.0
3347,0.2459093480199017,0.0
3348,0.0012115411063800437,0.0
3349,0.020305996743332888,0.0
3350,0.10321911078658816,0.0
3351,0.006861588322375427,0.0
3352,-7.986093510840842e-05,0.0
3353,0.04710732750186698,0.0
3354,-0.019465237761249643,0.0
3355,0.07485860481805848,0.0
3356,0.0007689453008095301,0.0
3357,0.08423636068365478,0.0
3358,0.06906305580494178,0.0
3359,-0.07761960052101484,0.0
3360,0.3336813658960355,0.0
3361,4.104383473175771,0.0
3362,6.5867000603037145,0.0
3363,-1.154222326572153,0.0
3364,-1.3755225416628398,0.0
3365,1.369328531423183,0.0
3366,-0.7892193532042321,0.0
3367,0.13736873394063376,0.0
3368,-0.020259047960906502,0.0
3369,-0.002814630017845675,0.0
3370,0.07026098118334141,0.0
3371,-0.03637025989020726,0.0
3372,0.026723160731212777,0.0
3373,0.07409176737404506,0.0
3374,0.07374514633115886,0.0
3375,0.11395312798102869,0.0
3376,0.09417019794954415,0.0
3377,0.08310496747392179,0.0
3378,0.009841518108673394,0.0
3379,0.0659720330514572,0.0
3380,0.4624676177486103,0.0
3381,4.169330939425107,0.0
3382,6.580109542874775,0.0
3383,-1.122062254514181,0.0
3384,-1.489148544188064,0.0
3385,1.4624951832036257,0.0
3386,-0.769852368949978,0.0
3387,0.1904794259280984,0.0
3388,-0.005120130976654721,0.0
3389,-0.03660865787984316,0.0
3390,-0.008610621207446472,0.0
3391,0.03316950358012275,0.0
3392,-0.004947930733859336,0.0
3393,-0.0020475395911652714,0.0
3394,-0.09455850143460001,0.0
3395,-0.006014112044062072,0.0
3396,-0.023907569146848228,0.0
3397,-0.021545088162854414,0.0
3398,-0.05394501884357975,0.0
3399,-0.0191568276227182,0.0
3400,0.4009463690668684,0.0
3401,4.141776070427129,0.0
3402,6.518902719432635,0.0
3403,-1.1636031943702239,0.0
3404,-1.4761099584816717,0.0
3405,1.38867703581728,0.0
3406,-0.7140195078525031,0.0
3407,0.20355720896233032,0.0
3408,0.019245272072394293,0.0
3409,-0.057521644311305783,0.0
3410,-0.03309664603657507,0.0
3411,0.026225539690859945,0.0
3412,-4.485894171531862e-05,0.0
3413,0.009327942608365409,0.0
3414,-0.02988416997508809,0.0
3415,-0.07338727273678164,0.0
3416,0.0112575683834127,0.0
3417,0.04103145160049738,0.0
3418,-0.03601360117427775,0.0
3419,-0.004076417473119949,0.0
3420,0.41117646424291404,0.0
3421,4.095239402545711,0.0
3422,6.571094198810476,0.0
3423,-1.1111207478862828,0.0
3424,-1.4310312314864784,0.0
3425,1.4880067111768274,0.0
3426,-0.7969447726871977,0.0
3427,0.23901822495636982,0.0
3428,-0.01490995919264691,0.0
3429,-0.04948785225520977,0.0
3430,-0.045687793484632214,0.0
3431,-0.010036567417698362,0.0
3432,0.03427369110486875,0.0
3433,0.0023437828454422414,0.0
3434,-0.0318262884154011,0.0
3435,-0.06904142247134458,0.0
3436,-0.024227405488840247,0.0
3437,-0.08301241114230366,0.0
3438,0.06792571027081046,0.0
3439,-0.05530988042112969,0.0
3440,0.3290819741831265,0.0
3441,4.099419632344011,0.0
3442,6.553484233912657,0.0
3443,-1.121269383233538,0.0
3444,-1.4592647286680123,0.0
3445,1.4950104835941262,0.0
3446,-0.72674460422906,0.0
3447,0.2187136897045566,0.0
3448,-0.10471878485600106,0.0
3449,-0.016141200748439957,0.0
3450,-0.003088403186062091,0.0
3451,0.04207552735450039,0.0
3452,-0.03858731694652885,0.0
3453,-0.03198597529880235,0.0
3454,0.026618728935563427,0.0
3455,0.026828720710660062,0.0
3456,0.048445662767851005,0.0
3457,-0.06330890842668398,0.0
3458,0.018010360179774806,0.0
3459,0.0596670934650039,0.0
3460,0.42578040146927587,0.0
3461,4.260964202314432,0.0
3462,6.590187018064255,0.0
3463,-1.137919431195096,0.0
3464,-1.3650178708967522,0.0
3465,1.418212084305389,0.0
3466,-0.7404051296242935,0.0
3467,0.23492747327410837,0.0
3468,0.03546837556885109,0.0
3469,0.01414899647989959,0.0
3470,0.04120268015467639,0.0
3471,0.01200398792968729,0.0
3472,-0.022940967678615046,0.0
3473,-0.04651304090352349,0.0
3474,0.008847244123053311,0.0
3475,-0.046536839413364145,0.0
3476,-0.04873635468568022,0.0
3477,-0.056342812804521095,0.0
3478,0.014514243976769623,0.0
3479,-0.04279276121588149,0.0
3480,0.34831062749197683,0.0
3481,4.155326712786185,0.0
3482,6.551273284001764,0.0
3483,-1.1852687627144403,0.0
3484,-1.4207704744927137,0.0
3485,1.3871229359928574,0.0
3486,-0.7816235650978205,0.0
3487,0.08147052716089664,0.0
3488,-0.0017602233405196177,0.0
3489,-0.019775479717344363,0.0
3490,0.03122544443957096,0.0
3491,-0.10666532253295646,0.0
3492,0.03874552918618622,0.0
3493,-0.011861238557117182,0.0
3494,-0.06457348012067925,0.0
3495,-0.022488244638528936,0.0
3496,-0.06268674152181099,0.0
3497,0.05133767201987446,0.0
3498,0.007140038433778011,0.0
3499,-0.1028691471175191,0.0
3500,0.38765301508582595,0.0
3501,4.097256625483749,0.0
3502,6.57457480197433,0.0
3503,-1.2159097044352454,0.0
3504,-1.3248012783744507,0.0
3505,1.3828668418748136,0.0
3506,-0.7694991205146885,0.0
3507,0.32601890644573883,0.0
3508,-0.02828219576985592,0.0
3509,-0.10798385482313658,0.0
3510,0.017952634267787166,0.0
3511,0.0614889123557668,0.0
3512,0.04631312500971394,0.0
3513,-0.0007501137996146117,0.0
3514,0.0209726004059133,0.0
3515,0.0346300369186688,0.0
3516,-0.07492707779811192,0.0
3517,-0.06255553399869519,0.0
3518,-0.010237802007878969,0.0
3519,-0.055132132534909825,0.0
3520,0.32133467362126666,0.0
3521,4.063998637816946,0.0
3522,6.46793183196591,0.0
3523,-1.2538321123619824,0.0
3524,-1.425967095038495,0.0
3525,1.3539635931217429,0.0
3526,-0.781700946039591,0.0
3527,0.23167965439521307,0.0
3528,-0.08748405045982607,0.0
3529,-0.1297826681527745,0.0
3530,0.10572433064832246,0.0
3531,0.00020862841077837375,0.0
3532,-0.01359338458287911,0.0
3533,-0.1163853468561901,0.0
3534,0.015511764854121894,0.0
3535,0.031366449848899094,0.0
3536,0.05728695192962453,0.0
3537,-0.03930673702859072,0.0
3538,0.04846419346484687,0.0
3539,0.03625301761270424,0.0
3540,0.4667182698628829,0.0
3541,4.1578547994213,0.0
3542,6.577472937000526,0.0
3543,-1.1759266779629156,0.0
3544,-1.3261382234005918,0.0
3545,1.3991055053761305,0.0
3546,-0.8608441006717423,0.0
3547,0.31794457374503904,0.0
3548,-0.03199154352689121,0.0
3549,-0.036463517531307554,0.0
3550,0.010700170606713019,0.0
3551,0.03842505670398277,0.0
3552,-0.03292526246620397,0.0
3553,-0.012706966042145546,0.0
3554,-0.04400102661327813,0.0
3555,0.02362082357819274,0.0
3556,3.597496798073141e-05,0.0
3557,0.06296534088730288,0.0
3558,-0.04056264686883038,0.0
3559,0.0019142609981212116,0.0
3560,0.4343923576594106,0.0
3561,4.189679972646864,0.0
3562,6.5462521211792,0.0
3563,-1.1203360309636186,0.0
3564,-1.3781273438758472,0.0
3565,1.453026729748931,0.0
3566,-0.7140189603829548,0.0
3567,0.2268546494732406,0.0
3568,-0.014179733703601528,0.0
3569,-0.022744988675396455,0.0
3570,0.045796505852710785,0.0
3571,-0.05671613645429807,0.0
3572,-0.03212117987877728,0.0
3573,-0.13823564839244507,0.0
3574,0.032110966735279384,0.0
3575,0.005398595047122859,0.0
3576,0.040477092747409196,0.0
3577,0.0019558086782791584,0.0
3578,0.04234054740121618,0.0
3579,-0.09075506575584852,0.0
3580,0.43443116834713635,0.0
3581,4.118912963393328,0.0
3582,6.646468115862358,0.0
3583,-1.1548177548891183,0.0
3584,-1.2213489897941088,0.0
3585,1.4966382936364944,0.0
3586,-0.7405064513314854,0.0
3587,0.3191795180515283,0.0
3588,-0.055953719175748075,0.0
3589,0.031213142263556037,0.0
3590,0.17028332992013637,0.0
3591,0.1337959643421645,0.0
3592,0.020700645151807213,0.0
3593,0.04504723763194662,0.0
3594,0.020842315085904128,0.0
3595,0.018576371794483203,0.0
3596,-0.06679368478575373,0.0
3597,-0.031104860710028517,0.0
3598,0.030569269819992757,0.0
3599,0.03457864002338561,0.0
3600,0.4348451103339033,0.0
3601,4.114822742324084,0.0
3602,6.486493151673694,0.0
3603,-1.2108068705637858,0.0
3604,-1.4873716218498734,0.0
3605,1.4181961064081,0.0
3606,-0.7793263541376279,0.0
3607,0.22141880897400662,0.0
3608,-0.10696614364043316,0.0
3609,-0.07034100066497997,0.0
3610,0.08785160271323819,0.0
3611,0.026652390106032257,0.0
3612,-0.05447024590597162,0.0
3613,0.0017669616560591888,0.0
3614,-0.02879556737939471,0.0
3615,-0.042041305692648315,0.0
3616,0.040897191144428656,0.0
3617,-0.011722384212513155,0.0
3618,-0.004057572652522705,0.0
3619,-0.018913219482346397,0.0
3620,0.44727164078663434,0.0
3621,4.157982879822095,0.0
3622,6.543822257074856,0.0
3623,-1.2318692056883465,0.0
3624,-1.3353039355813017,0.0
3625,1.3751900037390863,0.0
3626,-0.7930773652398324,0.0
3627,0.2537628023156615,0.0
3628,-0.04740688064748108,0.0
3629,-0.015227399632111373,0.0
3630,0.009206065151730333,0.0
3631,0.00651664467787879,0.0
3632,-0.029399121299248515,0.0
3633,-0.07108927284507381,0.0
3634,-0.06132645050636253,0.0
3635,-0.039937387597919205,0.0
3636,-0.03516947840324035,0.0
3637,0.006112290095854907,0.0
3638,-0.04804833482545132,0.0
3639,-0.01418294910319452,0.0
3640,0.4275840877441765,0.0
3641,4.166521587637259,0.0
3642,6.560998658662824,0.0
3643,-1.2333033340319872,0.0
3644,-1.2770431625395464,0.0
3645,1.5012895357592617,0.0
3646,-0.7764596373635833,0.0
3647,0.2953135254903506,0.0
3648,0.03202720143254214,0.0
3649,0.005118735599848111,0.0
3650,0.12848770958760028,0.0
3651,0.03633911437862182,0.0
3652,-0.033539743395577616,0.0
3653,0.046244318246416075,0.0
3654,0.04210223490390271,0.0
3655,0.023214839486006653,0.0
3656,0.02527885347579232,0.0
3657,0.0216204873118234,0.0
3658,0.05255238702490442,0.0
3659,0.03815486613513822,0.0
3660,0.3953989337646888,0.0
3661,4.202090318647143,0.0
3662,6.593862889218371,0.0
3663,-1.2634385127013101,0.0
3664,-1.394612488247996,0.0
3665,1.3703039780305577,0.0
3666,-0.8047363309835164,0.0
3667,0.13786607499541761,0.0
3668,-0.02053362004523645,0.0
3669,-0.12216010016790321,0.0
3670,0.02872568348010843,0.0
3671,-0.05217878538148855,0.0
3672,0.01710284476726456,0.0
3673,0.0410916975919296,0.0
3674,0.06604625612370944,0.0
3675,-0.058059684188628786,0.0
3676,0.012359426684710604,0.0
3677,0.03186486569497711,0.0
3678,-0.010861987292791416,0.0
3679,-0.0075176470573062835,0.0
3680,0.3801205334934684,0.0
3681,4.181034848816886,0.0
3682,6.611317172241684,0.0
3683,-1.2513566979450168,0.0
3684,-1.3509932241112903,0.0
3685,1.4095624433879725,0.0
3686,-0.8303940454520938,0.0
3687,0.26992155701976456,0.0
3688,-0.03874096738295352,0.0
3689,-0.07544489324505416,0.0
3690,0.0659678054113272,0.0
3691,0.07293390642465604,0.0
3692,0.002819009684204824,0.0
3693,-0.05197914206162363,0.0
3694,-0.014650875397428473,0.0
3695,0.04304929910848824,0.0
3696,-0.09305996425361317,0.0
3697,-0.09367511376970049,0.0
3698,-0.03251938679992827,0.0
3699,-0.030946107602037448,0.0
3700,0.38352929821938697,0.0
3701,4.13611304007078,0.0
3702,6.603960647519189,0.0
3703,-1.3037685910373968,0.0
3704,-1.4246783158215681,0.0
3705,1.4411006810547307,0.0
3706,-0.8376723995206135,0.0
3707,0.23681954300874766,0.0
3708,0.043929819374429274,0.0
3709,-0.0037584410097879074,0.0
3710,0.0901947871700157,0.0
3711,0.04405329092410038,0.0
3712,0.07309055215279789,0.0
3713,0.004125034396315043,0.0
3714,0.07397680132458687,0.0
3715,0.040103603151493805,0.0
3716,0.0685333897234245,0.0
3717,0.031691966848503894,0.0
3718,0.13181684782306385,0.0
3719,0.0007357338974072342,0.0
3720,0.38948973020655403,0.0
3721,4.2426292232467215,0.0
3722,6.528247378052309,0.0
3723,-1.1547746681516766,0.0
3724,-1.3986678164216182,0.0
3725,1.496485857479517,0.0
3726,-0.7141358155119658,0.0
3727,0.31362836092342067,0.0
3728,0.03559196786810457,0.0
3729,0.016991951022737282,0.0
3730,0.1468884849362408,0.0
3731,0.10851491940365829,0.0
3732,0.0014224478790820921,0.0
3733,0.04998721550474573,0.0
3734,0.10714530987772464,0.0
3735,0.03997348514992951,0.0
3736,0.021685950587410196,0.0
3737,-0.003992614709605637,0.0
3738,-0.07880551361001292,0.0
3739,0.0177911095472616,0.0
3740,0.4008098247017245,0.0
3741,4.117530243245234,0.0
3742,6.5794135079163025,0.0
3743,-1.2000180345357228,0.0
3744,-1.307737244724861,0.0
3745,1.434270994749815,0.0
3746,-0.8364311626990716,0.0
3747,0.21982489427803276,0.0
3748,0.01218945785550583,0.0
3749,-0.04409563467247625,0.0
3750,0.10900014082732312,0.0
3751,0.17821099947094748,0.0
3752,0.10908399812874148,0.0
3753,0.007228698555012972,0.0
3754,0.014723325981285729,0.0
3755,0.07167291377342178,0.0
3756,0.01377773001454758,0.0
3757,0.05641752270086799,0.0
3758,0.05849799946805376,0.0
3759,0.13393124451944427,0.0
3760,0.5152639072098409,0.0
3761,4.205296880002065,0.0
3762,6.590678772240654,0.0
3763,-1.2074361278893486,0.0
3764,-1.2986711351191749,0.0
3765,1.4687566858417325,0.0
3766,-0.7198980260850271,0.0
3767,0.2579141690601875,0.0
3768,0.08849290971082646,0.0
3769,-0.04374876956047674,0.0
3770,0.047103213371474315,0.0
3771,-0.01997973120324361,0.0
3772,0.003549567509261102,0.0
3773,0.06685462022370363,0.0
3774,0.08154384773227079,0.0
3775,0.12581013686909698,0.0
3776,0.04247991413522684,0.0
3777,0.06501644626072121,0.0
3778,0.05200181616363195,0.0
3779,0.08046246311403302,0.0
3780,0.5290514901651955,0.0
3781,4.206928701736242,0.0
3782,6.577401528100175,0.0
3783,-1.1118057966467292,0.0
3784,-1.2696193537688256,0.0
3785,1.4519189997467536,0.0
3786,-0.6922236891080105,0.0
3787,0.2852487792580461,0.0
3788,-0.0537671279695375,0.0
3789,0.0836867590330923,0.0
3790,0.0018953413274490905,0.0
3791,0.0018380872713119403,0.0
3792,0.11278392636767233,0.0
3793,0.07966414796157427,0.0
3794,0.10049948012822894,0.0
3795,0.11594379286620143,0.0
3796,0.06896744430107116,0.0
3797,0.07056684042981622,0.0
3798,0.0735378605835148,0.0
3799,0.04467274325432877,0.0
3800,0.4809616155920489,0.0
3801,4.256887396693674,0.0
3802,6.678784818821752,0.0
3803,-1.2004603797447382,0.0
3804,-1.2395630878796915,0.0
3805,1.5711318136402648,0.0
3806,-0.663608173564409,0.0
3807,0.3368160187884496,0.0
3808,0.011482808678784727,0.0
3809,0.051536744838927534,0.0
3810,0.11950333983007179,0.0
3811,0.11658316182996192,0.0
3812,0.11619181475705245,0.0
3813,0.16410562463604536,0.0
3814,0.001813266741416318,0.0
3815,0.0496824143672474,0.0
3816,0.11128230181380003,0.0
3817,0.016218231714912545,0.0
3818,0.13517271894219351,0.0
3819,0.08727221626617056,0.0
3820,0.4450667572400641,0.0
3821,4.176433094079583,0.0
3822,6.524639697856185,0.0
3823,-1.2865300484838735,0.0
3824,-1.3622429392043727,0.0
3825,1.4239792731357865,0.0
3826,-0.7847316580542719,0.0
3827,0.13997389342459776,0.0
3828,-0.05645833047723825,0.0
3829,0.0004825188619754575,0.0
3830,0.02793187908496018,0.0
3831,-0.0036383475802012587,0.0
3832,-0.014211688490901885,0.0
3833,-0.055036419531680286,0.0
3834,0.016060195273687856,0.0
3835,-0.01498525013392928,0.0
3836,0.031402354540722946,0.0
3837,0.022136552693864477,0.0
3838,0.02120298034054956,0.0
3839,0.06925313278025741,0.0
3840,0.5640977651988938,0.0
3841,4.281371930354697,0.0
3842,6.580056641294761,0.0
3843,-1.25525522886253,0.0
3844,-1.2653137069041294,0.0
3845,1.4814254407428804,0.0
3846,-0.6949561221095463,0.0
3847,0.3731087790587227,0.0
3848,0.09524619818201556,0.0
3849,0.08969957050110205,0.0
3850,0.15766658939564804,0.0
3851,-0.00771840960926571,0.0
3852,0.07315495199863561,0.0
3853,-0.016284053123560925,0.0
3854,-0.04218068979220144,0.0
3855,0.05730696971939355,0.0
3856,0.011283536723453568,0.0
3857,-0.04519878747750804,0.0
3858,0.09974977263411378,0.0
3859,-0.025906369448276907,0.0
3860,0.511254449785042,0.0
3861,4.204003029887389,0.0
3862,6.452741952282863,0.0
3863,-1.2501528979229035,0.0
3864,-1.3498175488003976,0.0
3865,1.4070192606327074,0.0
3866,-0.8159464524467696,0.0
3867,0.3202604061347458,0.0
3868,-0.059521171425208984,0.0
3869,0.05530273434011901,0.0
3870,0.018397739358535364,0.0
3871,0.0017866980557782602,0.0
3872,0.04654594498114091,0.0
3873,0.020987797813013118,0.0
3874,0.0726209703697078,0.0
3875,0.10029183580935713,0.0
3876,0.08868627001005461,0.0
3877,0.07890491530352015,0.0
3878,0.10018519877879017,0.0
3879,0.14413933242532495,0.0
3880,0.46375367589220046,0.0
3881,4.291318639007736,0.0
3882,6.595434471016588,0.0
3883,-1.099482905124302,0.0
3884,-1.1557401368076294,0.0
3885,1.4697610015920932,0.0
3886,-0.7320403885777723,0.0
3887,0.38462959632686833,0.0
3888,-0.010733695577521768,0.0
3889,0.0498688924864475,0.0
3890,0.11100316640704865,0.0
3891,0.04714981777057524,0.0
3892,0.06080138171944678,0.0
3893,0.020642424154129473,0.0
3894,-0.06531004353359976,0.0
3895,-0.005367078573239072,0.0
3896,0.05409272692185579,0.0
3897,-0.026650042092925763,0.0
3898,0.11771423953451994,0.0
3899,0.029122590720941408,0.0
3900,0.4508688683957696,0.0
3901,4.217288003479709,0.0
3902,6.498451860483945,0.0
3903,-1.2689174151508171,0.0
3904,-1.2256198391194195,0.0
3905,1.405682224502428,0.0
3906,-0.7629395363422228,0.0
3907,0.27430318389277797,0.0
3908,0.0053338745070955484,0.0
3909,0.0436294907706481,0.0
3910,0.1225750819046129,0.0
3911,0.14982736626859677,0.0
3912,0.10497110033870247,0.0
3913,0.11483483558242089,0.0
3914,0.13623115066498714,0.0
3915,0.044270784511981506,0.0
3916,0.18023310130053094,0.0
3917,0.19157100901877844,0.0
3918,0.13810083020156977,0.0
3919,0.1627676646897826,0.0
3920,0.5469519780143666,0.0
3921,4.247244178392733,0.0
3922,6.5988388538812535,0.0
3923,-1.1276224884419517,0.0
3924,-1.17717487104232,0.0
3925,1.448320505420252,0.0
3926,-0.7166733775524666,0.0
3927,0.23851862501927057,0.0
3928,0.0559065770358507,0.0
3929,0.02753781665035219,0.0
3930,0.15308863940202092,0.0
3931,-0.014504442157995644,0.0
3932,0.017541849923785394,0.0
3933,0.07311003912138882,0.0
3934,0.06938068306106443,0.0
3935,0.021233558090616302,0.0
3936,-0.05466695326398794,0.0
3937,0.11343399209561597,0.0
3938,0.06554901955149575,0.0
3939,0.11813997488446823,0.0
3940,0.4881994868745152,0.0
3941,4.23414864605853,0.0
3942,6.4943657740067815,0.0
3943,-1.3029431207562514,0.0
3944,-1.2617686182772867,0.0
3945,1.4379065195715726,0.0
3946,-0.8158226522567318,0.0
3947,0.3650555158688737,0.0
3948,0.00464828522715865,0.0
3949,-0.022633751341996352,0.0
3950,0.04659929568126779,0.0
3951,0.10064813743094361,0.0
3952,0.0071467469914047455,0.0
3953,0.0940681671921448,0.0
3954,0.10027069147832067,0.0
3955,0.03393102481465167,0.0
3956,0.09140959328711654,0.0
3957,0.03446840508032373,0.0
3958,-0.006788863397521931,0.0
3959,0.0730500890534463,0.0
3960,0.5344779725867782,0.0
3961,4.303091077500543,0.0
3962,6.574428250494628,0.0
3963,-1.151167528301138,0.0
3964,-1.2564066213817058,0.0
3965,1.3422391669094451,0.0
3966,-0.7072127482381806,0.0
3967,0.24522035528491623,0.0
3968,-0.021466573983328685,0.0
3969,-0.0028972609732245656,0.0
3970,0.04098567517816441,0.0
3971,0.1325951808773232,0.0
3972,0.08178074165870991,0.0
3973,0.014641625905543784,0.0
3974,0.04486647987817993,0.0
3975,-0.010607634092602576,0.0
3976,0.053358112588991466,0.0
3977,0.009477840573517408,0.0
3978,0.06667446599162866,0.0
3979,0.08800467782293134,0.0
3980,0.5758678387481131,0.0
3981,4.336831244025477,0.0
3982,6.45295664116909,0.0
3983,-1.2734020834687987,0.0
3984,-1.2335124583506458,0.0
3985,1.362080526651708,0.0
3986,-0.769556986240043,0.0
3987,0.25896953201971146,0.0
3988,0.018182902631615445,0.0
3989,0.018497745892597676,0.0
3990,0.024571892167655613,0.0
3991,0.014023467446399492,0.0
3992,0.019559971796585134,0.0
3993,-0.015228016251620558,0.0
3994,-0.026275170747216255,0.0
3995,-0.030376602736751277,0.0
3996,0.04343892062200861,0.0
3997,0.01871600918583871,0.0
3998,0.029703634986113177,0.0
3999,-0.0045469940071618566,0.0
4000,0.5098070987891048,0.0
4001,4.227972383877879,0.0
4002,6.562016588604144,0.0
4003,-1.2300456285653394,0.0
4004,-1.2321749102193313,0.0
4005,1.4765477663236717,0.0
4006,-0.7804653658546492,0.0
4007,0.3981683181939307,0.0
4008,0.05110072026007277,0.0
4009,0.1106945737293805,0.0
4010,0.16250545403832833,0.0
4011,0.06179007424166263,0.0
4012,0.039410448324029845,0.0
4013,-0.01046455959216893,0.0
4014,0.06903523891682446,0.0
4015,0.05713795845474808,0.0
4016,-0.0019781983930363192,0.0
4017,0.11851190345319822,0.0
4018,0.03024911699952548,0.0
4019,-0.02785462419833655,0.0
4020,0.5245309526223852,0.0
4021,4.242762170499636,0.0
4022,6.614699031340589,0.0
4023,-1.3026583373845622,0.0
4024,-1.2434227852989757,0.0
4025,1.4874639797556584,0.0
4026,-0.6439507638955382,0.0
4027,0.38156853229507576,0.0
4028,0.023588043471239585,0.0
4029,0.07444346037769242,0.0
4030,0.18660679580057726,0.0
4031,0.15283728853419415,0.0
4032,-0.05026344706250459,0.0
4033,0.15292601634680775,0.0
4034,0.06928385461912956,0.0
4035,0.16636866045321075,0.0
4036,0.13446603825608405,0.0
4037,0.12437359975166612,0.0
4038,0.08922478048438101,0.0
4039,0.07682589027015488,0.0
4040,0.5840560285258649,0.0
4041,4.299076488888423,0.0
4042,6.571458132736777,0.0
4043,-1.2732772604120015,0.0
4044,-1.2584259310895254,0.0
4045,1.475359494038169,0.0
4046,-0.7849339987134863,0.0
4047,0.30127536393226073,0.0
4048,0.08652465773897278,0.0
4049,-0.08201408875675228,0.0
4050,-0.03846785503589446,0.0
4051,-0.05379636911018022,0.0
4052,0.028691769787840896,0.0
4053,0.02346060559572876,0.0
4054,0.013416581198601087,0.0
4055,-0.0314266888079812,0.0
4056,0.006016556500495602,0.0
4057,0.02145727068770379,0.0
4058,0.08055343048603199,0.0
4059,0.0874233409901944,0.0
4060,0.4810254874664869,0.0
4061,4.189408128710506,0.0
4062,6.497016633168161,0.0
4063,-1.20014073609393,0.0
4064,-1.3060554910896223,0.0
4065,1.3782953541237075,0.0
4066,-0.7642392597044989,0.0
4067,0.29960503626570995,0.0
4068,0.00728684554084574,0.0
4069,0.043394926010842105,0.0
4070,0.011216791848357437,0.0
4071,0.06586250800365018,0.0
4072,-0.03343121995932626,0.0
4073,-0.02136602567059525,0.0
4074,-0.07139672086082213,0.0
4075,0.019135005511430367,0.0
4076,-0.06437130134255276,0.0
4077,-0.006795037279261656,0.0
4078,-0.051619831608657255,0.0
4079,-0.05197325156397318,0.0
4080,0.3759004041844748,0.0
4081,4.147378953723892,0.0
4082,6.317534974865345,0.0
4083,-1.390799941742876,0.0
4084,-1.3305581411906016,0.0
4085,1.3534572656452957,0.0
4086,-0.8848091025245977,0.0
4087,0.2518388806645496,0.0
4088,-0.1094827779011588,0.0
4089,-0.08152101879204392,0.0
4090,-0.08669510283376963,0.0
4091,-0.01378022359284322,0.0
4092,0.012832865181026838,0.0
4093,0.010600535910467902,0.0
4094,0.03739373932978879,0.0
4095,0.04796950473505059,0.0
4096,-0.004511853895630816,0.0
4097,0.012103652317863572,0.0
4098,0.06660518841056061,0.0
4099,0.09463401756147496,0.0
4100,0.4308433591693834,0.0
4101,4.24193759703694,0.0
4102,6.519877663781221,0.0
4103,-1.371484070048176,0.0
4104,-1.283154709830786,0.0
4105,1.292058063481106,0.0
4106,-0.748468664600402,0.0
4107,0.24373190713808257,0.0
4108,-0.0068613177228755325,0.0
4109,0.03560155665970072,0.0
4110,0.03960683406045573,0.0
4111,-0.041663390752486096,0.0
4112,-0.03944412765087581,0.0
4113,-0.013170435033103441,0.0
4114,0.06321538455380547,0.0
4115,-0.04191516108713455,0.0
4116,-0.09434920759232272,0.0
4117,0.039404716050906556,0.0
4118,-0.05394594838160806,0.0
4119,-0.02642046005353533,0.0
4120,0.41903789657400037,0.0
4121,4.222762493679793,0.0
4122,6.4006527454902145,0.0
4123,-1.3391449332613328,0.0
4124,-1.2594635911491214,0.0
4125,1.3303459655549084,0.0
4126,-0.7851726714913253,0.0
4127,0.21629723376911297,0.0
4128,-0.05563320510296969,0.0
4129,-0.008879841589268814,0.0
4130,-0.029734884730063388,0.0
4131,-0.0749312922809363,0.0
4132,0.051852690874182164,0.0
4133,-0.033872374736216924,0.0
4134,-0.05157339400434928,0.0
4135,-0.017191419824645494,0.0
4136,-0.12662605115236125,0.0
4137,0.03266764556859425,0.0
4138,0.048825783105544154,0.0
4139,0.01570667272573799,0.0
4140,0.34113462167834446,0.0
4141,4.220564605215247,0.0
4142,6.422753096355092,0.0
4143,-1.3911840157019366,0.0
4144,-1.2518816639770904,0.0
4145,1.2666908676696471,0.0
