timestamp,value-0,is_anomaly
0,0.25814372493587945,0.0
1,4.589685547563004,0.0
2,5.012569787069626,0.0
3,-3.0514838703560327,0.0
4,1.421866666175913,0.0
5,-0.6704531510558985,0.0
6,0.22043424932560407,0.0
7,-0.05090526635206899,0.0
8,-0.059448996577622114,0.0
9,-0.013928005758864995,0.0
10,0.024493128074166703,0.0
11,-0.03001523983756392,0.0
12,-0.015656346240767696,0.0
13,0.02666004121097956,0.0
14,-0.00789565350355629,0.0
15,0.017926754829641185,0.0
16,0.07296944088839281,0.0
17,1.0406486574617395,0.0
18,6.5218667546440665,0.0
19,1.5781471858210017,0.0
20,-1.9981732976190663,0.0
21,1.1359261448305031,0.0
22,-0.6820572281079449,0.0
23,0.27840292112635084,0.0
24,-0.016714930362703495,0.0
25,-0.02076902627310017,0.0
26,-0.012855430757476305,0.0
27,0.02629119471967624,0.0
28,0.0640290562902137,0.0
29,0.05794185927996333,0.0
30,0.03298478702272855,0.0
31,-0.002524540069842162,0.0
32,0.03215042855101342,0.0
33,-0.008438447294951884,0.0
34,2.4677307981654186,0.0
35,6.913608498918265,0.0
36,-1.8076941657232675,0.0
37,0.13435526439492307,0.0
38,0.2141066334565662,0.0
39,-0.10498263167846177,0.0
40,0.08014830372936041,0.0
41,0.012979771528457855,0.0
42,0.026073850498211766,0.0
43,-0.04747475085570411,0.0
44,-0.008452565610559406,0.0
45,0.0446694656791146,0.0
46,-0.07702952564918258,0.0
47,-0.046342603118979975,0.0
48,-0.0449008224956729,0.0
49,-0.025834746225274794,0.0
50,0.29975877386920496,0.0
51,4.596650938187885,0.0
52,4.992985618134888,0.0
53,-3.1093612600406573,0.0
54,1.504031711774451,0.0
55,-0.7035860943589817,0.0
56,0.2685884460827076,0.0
57,-0.13839428988946018,0.0
58,-0.013293841151678015,0.0
59,-0.046215938806847885,0.0
60,0.03317318986118496,0.0
61,-0.07569621495856929,0.0
62,-0.03704441365815645,0.0
63,0.03566079359343653,0.0
64,-0.03874581125650156,0.0
65,-0.025435392023335886,0.0
66,0.005797572905405085,0.0
67,0.8258482162271432,0.0
68,6.468910250181015,0.0
69,1.5044352706346853,0.0
70,-2.021727979149429,0.0
71,1.137706872520891,0.0
72,-0.6809885649223499,0.0
73,0.2624678677839007,0.0
74,-0.04939326104352658,0.0
75,-0.01972018180673816,0.0
76,-0.037114985867040616,0.0
77,0.06756475947242063,0.0
78,0.030111414196124828,0.0
79,-0.062032064809292575,0.0
80,0.008071206405748087,0.0
81,-0.002522065331342832,0.0
82,0.06438599940092057,0.0
83,0.06253887991718664,0.0
84,2.561398743892661,0.0
85,6.968145780885116,0.0
86,-1.868801628823237,0.0
87,0.14872921237517223,0.0
88,0.2069408203517728,0.0
89,0.010063164744515928,0.0
90,0.01430784957785211,0.0
91,0.12020043302847425,0.0
92,0.0877903762463296,0.0
93,0.0413426798690948,0.0
94,-0.013809112888270313,0.0
95,-0.060787589769156575,0.0
96,-0.1196835582869408,0.0
97,-0.06489828760019242,0.0
98,-0.0680191529008369,0.0
99,-0.01658431806737328,0.0
100,0.19245993664752725,0.0
101,4.588361997784995,0.0
102,4.970122207781692,0.0
103,-3.1008517046382678,0.0
104,1.5507930240886607,0.0
105,-0.7805083322375581,0.0
106,0.2028991394864105,0.0
107,-0.05717457191631792,0.0
108,0.05269518110178534,0.0
109,-0.019755899276013088,0.0
110,-0.09243616341235478,0.0
111,0.045066360292853797,0.0
112,-0.047488772935068466,0.0
113,0.11018217139674624,0.0
114,-0.1417759153305544,0.0
115,-0.004647330125417405,0.0
116,0.005713969900766674,0.0
117,1.0361874670072997,0.0
118,6.355267105424793,0.0
119,1.4421691442602003,0.0
120,-1.8674120599271302,0.0
121,1.2602284310768788,0.0
122,-0.7907030152707774,0.0
123,0.14963514927315238,0.0
124,-0.028679068193047316,0.0
125,0.009863065229243616,0.0
126,-0.061067118505764635,0.0
127,-0.015453194504063177,0.0
128,-0.04318048090821737,0.0
129,0.02960723356640156,0.0
130,-0.03843969724855715,0.0
131,0.01635517212725752,0.0
132,-0.016430114861849636,0.0
133,0.027635655547828777,0.0
134,2.4537789150882854,0.0
135,6.759865037049157,0.0
136,-1.9135387884423498,0.0
137,0.18356750967264288,0.0
138,0.11993932842064571,0.0
139,-0.11326708787814244,0.0
140,-0.047741146181766246,0.0
141,-0.004077592150466332,0.0
142,0.021661309132628863,0.0
143,0.013083567399118347,0.0
144,-0.02711582386882569,0.0
145,0.02912160836401819,0.0
146,-0.027196284567270936,0.0
147,-0.0714211631890868,0.0
148,0.006719310276887883,0.0
149,0.007834055463162112,0.0
150,0.26925779375095693,0.0
151,4.62872504803804,0.0
152,5.027962988618083,0.0
153,-3.0260094551156604,0.0
154,1.4841363797670681,0.0
155,-0.7174847635389987,0.0
156,0.31217225342640403,0.0
157,-0.19104375266244628,0.0
158,0.0824127506257592,0.0
159,-0.10686972611408095,0.0
160,-0.027272632620423287,0.0
161,-0.03530328280795174,0.0
162,-0.07370185671437052,0.0
163,0.03233677516595407,0.0
164,-0.026900725627654443,0.0
165,-0.06942025590562874,0.0
166,0.009574275411289076,0.0
167,1.023425978706081,0.0
168,6.506405989885252,0.0
169,1.475184077188634,0.0
170,-1.9470306817436944,0.0
171,1.1612091169108945,0.0
172,-0.6905428917715649,0.0
173,0.1979677044398504,0.0
174,-0.1318113106687969,0.0
175,0.14166911380863767,0.0
176,0.01965549269668008,0.0
177,0.010754614814416544,0.0
178,-0.01269358122221701,0.0
179,0.13249279396281227,0.0
180,0.07483978875829352,0.0
181,-0.007935107341488275,0.0
182,-0.06906227655639674,0.0
183,0.10444739323997217,0.0
184,2.6197377422855617,0.0
185,6.950834891911192,0.0
186,-1.812661586363706,0.0
187,0.3827924144958578,0.0
188,0.17075428904886103,0.0
189,-0.053482280835624986,0.0
190,0.06929936465725317,0.0
191,0.08059134718839482,0.0
192,0.03178773223515498,0.0
193,0.06317701416718105,0.0
194,-0.019867270765000958,0.0
195,0.08357148696419515,0.0
196,-0.015683721862476643,0.0
197,0.14404952649136432,0.0
198,0.03195942977604525,0.0
199,0.02407523734714751,0.0
200,0.2983429841580078,0.0
201,4.6684142115915686,0.0
202,4.878151327532956,0.0
203,-2.9729204340751143,0.0
204,1.5259305124723683,0.0
205,-0.7240355165093664,0.0
206,0.265912456639303,0.0
207,-0.15977025964867062,0.0
208,0.01927348829764395,0.0
209,0.011549538299141422,0.0
210,0.012919431043157893,0.0
211,-0.03335795254833533,0.0
212,-0.015708183256640182,0.0
213,0.011335980267220495,0.0
214,-0.050530637038028736,0.0
215,-0.056165934109287594,0.0
216,-0.012364597713950718,0.0
217,1.0629585249547557,0.0
218,6.498447038519859,0.0
219,1.4791537869438685,0.0
220,-1.8787239231616932,0.0
221,1.06344604744691,0.0
222,-0.6404010789852888,0.0
223,0.3764242185606799,0.0
224,-0.10873151448606413,0.0
225,0.12706285408370155,0.0
226,0.07890638904408512,0.0
227,-0.06938029159206535,0.0
228,0.05610374857074027,0.0
229,0.03760544492143182,0.0
230,-0.0151305242348257,0.0
231,0.017607019674191603,0.0
232,-0.04099399763538406,0.0
233,0.028029760886022357,0.0
234,2.59130343872305,0.0
235,6.824865083176864,0.0
236,-1.812832318399521,0.0
237,0.2618218923864951,0.0
238,0.09079890327834073,0.0
239,-0.07565847573942114,0.0
240,-0.009821444662826986,0.0
241,0.012521979473449109,0.0
242,0.045623796169008565,0.0
243,0.11057216525682632,0.0
244,0.07960974908611855,0.0
245,0.10073583836431527,0.0
246,0.06476142157526744,0.0
247,0.10561241706890603,0.0
248,0.17830751379702112,0.0
249,0.0787165752552226,0.0
250,0.39400382065748796,0.0
251,4.725144225320567,0.0
252,4.923704469774288,0.0
253,-2.9391117600527936,0.0
254,1.5680356923104157,0.0
255,-0.7357124064391003,0.0
256,0.3515272863071392,0.0
257,-0.09250244726429484,0.0
258,0.14830071478311188,0.0
259,0.06350886703165844,0.0
260,-0.08183895995311452,0.0
261,0.0257300426723462,0.0
262,0.0031506035264890833,0.0
263,0.029703575464403907,0.0
264,0.036224878996554126,0.0
265,0.04412124721912143,0.0
266,-0.015189340103141113,0.0
267,0.9633049985004328,0.0
268,6.545182714144178,0.0
269,1.5359883386803506,0.0
270,-1.8848996613998477,0.0
271,1.1920479152544903,0.0
272,-0.6367081303029103,0.0
273,0.21724567754485247,0.0
274,-0.1032069501038658,0.0
275,0.05973370864111372,0.0
276,-0.006006069388549539,0.0
277,-0.016826494402809075,0.0
278,0.0010611743853743884,0.0
279,-0.05060371492960837,0.0
280,0.08759012710225064,0.0
281,0.06045092150768219,0.0
282,0.05633952138702979,0.0
283,0.12091656877425297,0.0
284,2.507581780414016,0.0
285,6.8621749994165295,0.0
286,-1.7715460649018895,0.0
287,0.3024547162212714,0.0
288,0.17552047680969565,0.0
289,0.007881736971910164,0.0
290,-0.0765566140637444,0.0
291,0.09019285747163058,0.0
292,0.09531872605386894,0.0
293,0.00023534264036035799,0.0
294,0.12317527644793269,0.0
295,-0.10789111408056778,0.0
296,0.10219398755283352,0.0
297,-0.03404440950806741,0.0
298,0.02787964282274656,0.0
299,0.017735010072485423,0.0
300,0.3289223383695876,0.0
301,4.833205883952413,0.0
302,4.88166625250502,0.0
303,-3.0513945315060957,0.0
304,1.6196041401047503,0.0
305,-0.6412062671975723,0.0
306,0.34990811089984597,0.0
307,-0.09619139735480199,0.0
308,0.14489587136521537,0.0
309,0.0538641582900288,0.0
310,0.06379395215430708,0.0
311,0.07357002447833368,0.0
312,0.1188064441232869,0.0
313,0.07724988564766941,0.0
314,0.03883060697813325,0.0
315,0.018857560235686417,0.0
316,0.04076950445343519,0.0
317,0.9913096205231975,0.0
318,6.465373180918956,0.0
319,1.3533416753068794,0.0
320,-1.8651916141635498,0.0
321,1.1238391402951577,0.0
322,-0.5869839527181308,0.0
323,0.2583954905643969,0.0
324,-0.04989750809613033,0.0
325,0.09205810446251461,0.0
326,0.024840146412465985,0.0
327,0.05802291458814487,0.0
328,0.015812350401715036,0.0
329,0.08905188753782603,0.0
330,-0.00268086856286754,0.0
331,0.013286212242773886,0.0
332,0.04602453805858124,0.0
333,0.011582908156984616,0.0
334,2.581464931397738,0.0
335,6.909715980655715,0.0
336,-1.8848810036995407,0.0
337,0.26872773185601057,0.0
338,0.10014130107821212,0.0
339,-0.09415608494954192,0.0
340,-0.02233101989370437,0.0
341,-0.020835916050247493,0.0
342,0.059340052040326066,0.0
343,0.016312484986729568,0.0
344,-0.027151775790556616,0.0
345,-0.011782741749896642,0.0
346,0.008775095238908426,0.0
347,0.05157936374411158,0.0
348,0.0416620601456621,0.0
349,0.06411993348228362,0.0
350,0.3107428267125995,0.0
351,4.714045830848561,0.0
352,4.903171684290888,0.0
353,-2.957592097924181,0.0
354,1.531674643194357,0.0
355,-0.7655436318535505,0.0
356,0.25119072570688916,0.0
357,-0.09172656966056843,0.0
358,0.09690932724835499,0.0
359,0.06359899158933467,0.0
360,0.0684441288741224,0.0
361,0.04225376740029026,0.0
362,-0.05928196530587147,0.0
363,0.07572133636248188,0.0
364,0.050107715645162795,0.0
365,-0.027405125943377268,0.0
366,0.1014584863166576,0.0
367,1.0927646868091476,0.0
368,6.573601318510303,0.0
369,1.4641003697068906,0.0
370,-1.7410859547671198,0.0
371,1.237683120177482,0.0
372,-0.6240321396714504,0.0
373,0.2906952539421414,0.0
374,-0.15961406297115854,0.0
375,0.057022647479579844,0.0
376,0.07144531598706176,0.0
377,-0.02089631110751588,0.0
378,0.0853808354599786,0.0
379,-0.03797290628008615,0.0
380,0.009092008943659382,0.0
381,0.04564582363509777,0.0
382,0.0034209927042910294,0.0
383,0.14505663725497264,0.0
384,2.6054479864566003,0.0
385,6.810157717898656,0.0
386,-2.0003757909438895,0.0
387,0.2349577599870299,0.0
388,0.14092820434899747,0.0
389,-0.05374418941335478,0.0
390,-0.03643237619458778,0.0
391,0.005779221691376935,0.0
392,0.00346807917136141,0.0
393,-0.037881765848580475,0.0
394,0.007300021247758376,0.0
395,0.025499528569952645,0.0
396,0.026602539963855996,0.0
397,0.10028742147502037,0.0
398,-0.06502036240580883,0.0
399,0.0008520681391383546,0.0
400,0.28258767541512,0.0
401,4.611626283959695,0.0
402,4.96249979491312,0.0
403,-2.9541747308482775,0.0
404,1.5646457529570486,0.0
405,-0.6403859696314467,0.0
406,0.28191345090891456,0.0
407,-0.054319414345559015,0.0
408,0.06575251594806658,0.0
409,-0.009007326155925432,0.0
410,-0.04806530561682678,0.0
411,0.09540999243591478,0.0
412,0.04365680272538385,0.0
413,0.060027802309132294,0.0
414,0.028302384639544733,0.0
415,0.02423794569841814,0.0
416,0.00972290091767242,0.0
417,1.0597947930422005,0.0
418,6.597157787659529,0.0
419,1.3784680909284268,0.0
420,-1.9934279550232286,0.0
421,1.1689836129387834,0.0
422,-0.5797403213269495,0.0
423,0.27322410491849697,0.0
424,-0.02112113309613719,0.0
425,0.06656626000176646,0.0
426,0.0596788150314458,0.0
427,0.018118270522262385,0.0
428,-0.07217950197491861,0.0
429,0.014920816488063784,0.0
430,0.09734098297019501,0.0
431,0.07340919157783206,0.0
432,0.10074838580402756,0.0
433,-0.014875000012405035,0.0
434,2.537503755627451,0.0
435,6.800420415647135,0.0
436,-1.900208904150255,0.0
437,0.2810682842425687,0.0
438,0.13124909191846906,0.0
439,-0.09181242604744017,0.0
440,0.05422656308510877,0.0
441,0.030945044658589327,0.0
442,-0.0016451024800384455,0.0
443,-0.018678686475100764,0.0
444,0.059336080014910406,0.0
445,0.13220402847378862,0.0
446,-0.0003047037444230648,0.0
447,0.08554859303585197,0.0
448,0.038731793054233896,0.0
449,0.07192268354455708,0.0
450,0.3314720257890961,0.0
451,4.751302122337793,0.0
452,4.91677229064408,0.0
453,-2.985339200472807,0.0
454,1.56408389415227,0.0
455,-0.6705523334414201,0.0
456,0.353755878563361,0.0
457,-0.127169650871462,0.0
458,0.00035739082001282757,0.0
459,0.013984875668447624,0.0
460,-0.0486605779414801,0.0
461,0.012946116260944274,0.0
462,0.1385138829112498,0.0
463,-0.05259608259753928,0.0
464,0.07788056536431097,0.0
465,0.03511464900920365,0.0
466,-0.025162241148998905,0.0
467,1.1178087178380627,0.0
468,6.538233510819188,0.0
469,1.362227962373095,0.0
470,-1.8562663174084593,0.0
471,1.2023891009006913,0.0
472,-0.5372564212795149,0.0
473,0.277241534111355,0.0
474,0.001861209724028208,0.0
475,0.01019654471675082,0.0
476,0.12242892487618519,0.0
477,0.02504082290353457,0.0
478,-0.034307090948480605,0.0
479,-0.005609171631688881,0.0
480,-0.05640403778488047,0.0
481,0.11554289962794545,0.0
482,0.004072764123959467,0.0
483,0.08305625520605842,0.0
484,2.750914485978271,0.0
485,6.921727411108031,0.0
486,-1.8849906214204832,0.0
487,0.31736036409785057,0.0
488,0.1557474490395088,0.0
489,-0.009933992655492782,0.0
490,0.040174682613501655,0.0
491,0.021741247691774292,0.0
492,0.11594428527396362,0.0
493,0.13691425406783936,0.0
494,0.03304355829084628,0.0
495,0.12024175063052861,0.0
496,0.08464063975481954,0.0
497,0.017045912127414735,0.0
498,-0.02221526022211521,0.0
499,-0.03925534392216024,0.0
500,0.3121604214783497,0.0
501,4.781189170140172,0.0
502,4.804884456442515,0.0
503,-3.0349013608880053,0.0
504,1.5803249742404932,0.0
505,-0.7483837574818097,0.0
506,0.2877917257303656,0.0
507,-0.04993460143253622,0.0
508,0.06990088663220798,0.0
509,0.06526388631653915,0.0
510,0.05680657660018336,0.0
511,0.04032255500046342,0.0
512,0.06603149837787858,0.0
513,0.03609820985526043,0.0
514,0.03503248354411257,0.0
515,0.11370459561229516,0.0
516,-0.041835414679687044,0.0
517,1.1249830186426428,0.0
518,6.634695779751905,0.0
519,1.276195844876507,0.0
520,-1.840677707678016,0.0
521,1.1846165461073164,0.0
522,-0.5997434367653091,0.0
523,0.3689853552130208,0.0
524,-0.05306975445722428,0.0
525,-0.030183205104398484,0.0
526,0.04680826205453127,0.0
527,-0.013994727126729395,0.0
528,-0.08054135137086627,0.0
529,0.0486438529364382,0.0
530,-0.035449119946678535,0.0
531,-0.02209388391978186,0.0
532,-0.032350146166692885,0.0
533,0.10771388336529475,0.0
534,2.5280822905858438,0.0
535,6.850212227034363,0.0
536,-1.9754139527725059,0.0
537,0.28092579195797124,0.0
538,0.07332689445129009,0.0
539,-0.13683394699105028,0.0
540,0.014762850136022812,0.0
541,-0.03050763551636723,0.0
542,-0.09023450373145853,0.0
543,0.0015506150867662105,0.0
544,0.02818311888400514,0.0
545,-0.01028170325159276,0.0
546,-0.01722153701513672,0.0
547,0.03637382576493356,0.0
548,0.005502065793698257,0.0
549,0.05787173211488814,0.0
550,0.2805613047586962,0.0
551,4.814681306016282,0.0
552,4.788349402889329,0.0
553,-3.03460670856357,0.0
554,1.5368872490117802,0.0
555,-0.6925793052296729,0.0
556,0.32825090310709726,0.0
557,-0.03822223649858386,0.0
558,0.018216069506321805,0.0
559,0.04496449978559694,0.0
560,0.004963524466301241,0.0
561,0.02021204980760912,0.0
562,-0.056525319591347545,0.0
563,-0.01992929402357472,0.0
564,-0.0027585250393986904,0.0
565,0.07255667280947012,0.0
566,0.05956327361326147,0.0
567,1.2151745336484423,0.0
568,6.489778840931571,0.0
569,1.255465708288126,0.0
570,-1.8155582334071392,0.0
571,1.1712039363975233,0.0
572,-0.6000541092704655,0.0
573,0.2261298877589205,0.0
574,-0.0813360632636319,0.0
575,-0.01801524038846676,0.0
576,-0.013444294186805107,0.0
577,0.017693795316459208,0.0
578,0.08604719052964362,0.0
579,0.028071165950365202,0.0
580,0.0163151258122626,0.0
581,0.00035601266485068596,0.0
582,-0.0005103759496799878,0.0
583,0.01764979432717965,0.0
584,2.684601509450416,0.0
585,6.808684155947507,0.0
586,-1.9972805796751347,0.0
587,0.29376016916696,0.0
588,0.00707428933598396,0.0
589,-0.12918880070527922,0.0
590,-0.013041717837048128,0.0
591,0.0038383852205268743,0.0
592,0.05531704079329185,0.0
593,0.017152157190970206,0.0
594,-0.04916189640809403,0.0
595,-0.06538493745107339,0.0
596,-0.0456205585434727,0.0
597,0.03566182229839168,0.0
598,0.036917043420966404,0.0
599,0.026210819082266155,0.0
600,0.316936424497418,0.0
601,4.726155934543942,0.0
602,4.805884431385546,0.0
603,-2.9930144415950872,0.0
604,1.5920869215604179,0.0
605,-0.7208796690213307,0.0
606,0.2581774202123193,0.0
607,-0.18624875643969624,0.0
608,-0.04684709074456508,0.0
609,0.05723138790741994,0.0
610,-0.0031052050104272907,0.0
611,-0.03575260392962089,0.0
612,0.12004555863162233,0.0
613,-0.0072257750916345734,0.0
614,0.05484285411058452,0.0
615,-0.060933574728959834,0.0
616,-0.04457071920474235,0.0
617,1.094063559608684,0.0
618,6.535458135249048,0.0
619,1.351170499426501,0.0
620,-1.764665993380585,0.0
621,1.1267751942544741,0.0
622,-0.6662488365964756,0.0
623,0.25026654203444065,0.0
624,-0.11958013063199278,0.0
625,0.030603264445903763,0.0
626,-0.027757727999015165,0.0
627,0.06684280185692582,0.0
628,-0.01471707159780314,0.0
629,0.011075611555719624,0.0
630,-0.007007871248718987,0.0
631,-0.015808161992243993,0.0
632,0.027957617530335106,0.0
633,0.04994403079815406,0.0
634,2.580245897511413,0.0
635,6.78725921850611,0.0
636,-2.125286913468662,0.0
637,0.3504860077874772,0.0
638,0.07194670182857955,0.0
639,-0.07551526521643816,0.0
640,-0.07489851084488622,0.0
641,-0.09180048539903993,0.0
642,-0.017096571775820815,0.0
643,-0.10254337910335892,0.0
644,-0.09191537582016013,0.0
645,-0.04096949341523853,0.0
646,-0.08844767478466155,0.0
647,0.1252886639456874,0.0
648,-0.010425427837715199,0.0
649,0.02420018649161953,0.0
650,0.24666360767427134,0.0
651,4.714370640685653,0.0
652,4.7379222607773785,0.0
653,-2.9970286658345846,0.0
654,1.6563641397107243,0.0
655,-0.6431116397261043,0.0
656,0.3767013654950036,0.0
657,-0.1841145254232913,0.0
658,0.05617718086725165,0.0
659,-0.004024599847282435,0.0
660,-0.03134021050634818,0.0
661,0.04051003555809437,0.0
662,0.021820205227666638,0.0
663,0.014235863605583945,0.0
664,-0.0036093948667062295,0.0
665,0.012421404273225179,0.0
666,0.05137746477023251,0.0
667,1.0433719229303953,0.0
668,6.5435285103247836,0.0
669,1.2787052643575896,0.0
670,-1.827868472859436,0.0
671,1.1072311490856128,0.0
672,-0.6047391394669023,0.0
673,0.21706780567333164,0.0
674,-0.13774550698338114,0.0
675,-0.04379816049492842,0.0
676,-0.003059052760662786,0.0
677,-0.01485928182441384,0.0
678,-0.09579451312248356,0.0
679,-0.0494366464419256,0.0
680,-0.07835512098397222,0.0
681,0.01344679626588624,0.0
682,-0.10496165704484678,0.0
683,0.05562287195267588,0.0
684,2.588783765501841,0.0
685,6.772055409701762,0.0
686,-2.0461537872130515,0.0
687,0.3378593644957414,0.0
688,-0.033541256189525234,0.0
689,-0.07590382603593243,0.0
690,0.0611101843202311,0.0
691,-0.13000977943147915,0.0
692,-0.0061341621691684035,0.0
693,-0.09298903975310446,0.0
694,-0.04002989701530815,0.0
695,0.023881358128721705,0.0
696,0.09522507266310305,0.0
697,0.03670539907244304,0.0
698,-0.020442469824441784,0.0
699,0.026804915083572398,0.0
700,0.30470247460528377,0.0
701,4.757832595558847,0.0
702,4.624725694165909,0.0
703,-2.9581286812266265,0.0
704,1.475106463155865,0.0
705,-0.7942911812318324,0.0
706,0.29619728103977755,0.0
707,-0.08748416231094333,0.0
708,0.020852280790390428,0.0
709,0.03605868136642261,0.0
710,-0.017424157361736147,0.0
711,0.0581869939893431,0.0
712,-0.08785121672688859,0.0
713,-0.04788586211589545,0.0
714,-0.10724529012816972,0.0
715,-0.055222231694114186,0.0
716,0.04014329473412149,0.0
717,1.1011472764204053,0.0
718,6.554388646460653,0.0
719,1.1637611575355227,0.0
720,-1.8287890331732573,0.0
721,1.11345557206746,0.0
722,-0.7111624467317509,0.0
723,0.25271317343233535,0.0
724,-0.08513583121079679,0.0
725,-0.06331277102436238,0.0
726,-0.05648710862766365,0.0
727,0.0451794355036839,0.0
728,-0.03202613796552335,0.0
729,-0.16287760024147502,0.0
730,-0.09944237844241342,0.0
731,-0.09367705418543795,0.0
732,-0.10902794989712301,0.0
733,-0.06938015798848304,0.0
734,2.5626945597094357,0.0
735,6.758189607994533,0.0
736,-2.0212958821436273,0.0
737,0.3613895093946075,0.0
738,-0.013643476884776691,0.0
739,-0.05247326330806121,0.0
740,0.0927361027513334,0.0
741,-0.0012291073830606528,0.0
742,-0.03258593948236449,0.0
743,0.1060674884633322,0.0
744,-0.032636339074538986,0.0
745,-0.04442386479279406,0.0
746,0.0016654336519797454,0.0
747,0.03905058991990082,0.0
748,0.15955830800131013,0.0
749,-0.019453776388052853,0.0
750,0.3603471943738735,0.0
751,4.863022763823698,0.0
752,4.705375356458328,0.0
753,-2.9921972384343394,0.0
754,1.4926330595940231,0.0
755,-0.7544647945428237,0.0
756,0.22088931109674476,0.0
757,-0.12357143852896985,0.0
758,0.03988846180503143,0.0
759,-0.014102321295829922,0.0
760,-0.048734847953752984,0.0
761,-0.008486166846377551,0.0
762,0.024480313658876644,0.0
763,0.05060901108750275,0.0
764,-0.014374742960229784,0.0
765,0.030414329208226946,0.0
766,0.06303114956196518,0.0
767,1.0796947067753104,0.0
768,6.498007283048757,0.0
769,1.2079792707683987,0.0
770,-1.8153439603346215,0.0
771,1.1572840591739133,0.0
772,-0.5328525237254732,0.0
773,0.28003120958538985,0.0
774,-0.06308540594069584,0.0
775,-0.007085379400275392,0.0
776,-0.02470827823454838,0.0
777,0.028251260982134124,0.0
778,0.009768923896957667,0.0
779,0.007565249194841604,0.0
780,-0.04133519919046462,0.0
781,0.0038586585781353886,0.0
782,-0.043447394069718016,0.0
783,0.07810438900820613,0.0
784,2.6473539126730414,0.0
785,6.805401699860272,0.0
786,-2.016336931203852,0.0
787,0.35586349665672407,0.0
788,0.0032553920641125757,0.0
789,-0.012190014930764423,0.0
790,-0.024828022442804694,0.0
791,-0.022444477795105243,0.0
792,-0.03512913291616719,0.0
793,-0.04177029095370636,0.0
794,0.08318573956960908,0.0
795,0.015048707062480605,0.0
796,0.11613934495787337,0.0
797,0.08792073170868285,0.0
798,-0.007835940874787194,0.0
799,-0.02749522224189721,0.0
800,0.36616166161438096,0.0
801,4.876725493984028,0.0
802,4.709305977151733,0.0
803,-3.068825498187825,0.0
804,1.5796392782381077,0.0
805,-0.7860128873861908,0.0
806,0.29229798879200114,0.0
807,-0.11536195785289488,0.0
808,-0.03769706252460262,0.0
809,-0.005967499823787043,0.0
810,-0.015070944532016583,0.0
811,-0.05830796283569538,0.0
812,-0.08487098063529155,0.0
813,-0.05576547818479509,0.0
814,-0.04887149725200918,0.0
815,-0.011750881521597254,0.0
816,-0.09790820685379531,0.0
817,1.1346526490908437,0.0
818,6.583608807295453,0.0
819,1.1694172220381793,0.0
820,-1.7818424283765515,0.0
821,1.15210826282955,0.0
822,-0.6043149713581017,0.0
823,0.27019443065297233,0.0
824,-0.05652094176494124,0.0
825,0.0035830575100304386,0.0
826,-0.06820849271750508,0.0
827,0.038631658506479684,0.0
828,0.021193334665986368,0.0
829,0.04649533440749151,0.0
830,0.05362375105331294,0.0
831,-0.0282933053002785,0.0
832,-0.011131395750673666,0.0
833,-0.019600760587778654,0.0
834,2.635113227938123,0.0
835,6.768811049457774,0.0
836,-2.0663894942374084,0.0
837,0.44990197388423675,0.0
838,0.15962783877599873,0.0
839,-0.07941572176240694,0.0
840,0.09331590556470593,0.0
841,0.014466496999293484,0.0
842,0.06899973684373446,0.0
843,0.06856584385938416,0.0
844,0.12419566422604703,0.0
845,0.07312141134996306,0.0
846,-0.034195036679387225,0.0
847,-0.002210934662029823,0.0
848,-0.00960265768971943,0.0
849,0.0018950031210094188,0.0
850,0.2783704296705428,0.0
851,4.822108748858976,0.0
852,4.696665168829366,0.0
853,-2.9520060485217563,0.0
854,1.529598141654442,0.0
855,-0.6934531548049746,0.0
856,0.27905840923243785,0.0
857,-0.1366153585262579,0.0
858,-0.05496048668353183,0.0
859,-0.0009930495593877056,0.0
860,-0.043796850021491224,0.0
861,0.06233011930061431,0.0
862,-0.05879287875919236,0.0
863,0.003942640426874196,0.0
864,0.009398126119279347,0.0
865,0.019789399950806058,0.0
866,0.010840448734997732,0.0
867,1.1315874438608895,0.0
868,6.541542920454069,0.0
869,1.1357614474796394,0.0
870,-1.7556044807353401,0.0
871,1.1870402074739452,0.0
872,-0.5242905326552815,0.0
873,0.3376592805384976,0.0
874,-0.08339706121088288,0.0
875,-0.010681495033236357,0.0
876,-0.07823494752648512,0.0
877,-0.04461964005168403,0.0
878,0.07495076133505993,0.0
879,0.039237015213550205,0.0
880,-0.018422419988868302,0.0
881,0.006974578049351263,0.0
882,0.06789350108860231,0.0
883,0.02636411648058104,0.0
884,2.7359300920084797,0.0
885,6.827111331059188,0.0
886,-2.0687573943990065,0.0
887,0.39702130713340467,0.0
888,0.06121310026194426,0.0
889,-0.08129545530005071,0.0
890,0.025169408639599086,0.0
891,0.019383925353640186,0.0
892,-0.058395570278632916,0.0
893,0.12873117942342635,0.0
894,0.09026513768367186,0.0
895,-0.019512032319730168,0.0
896,0.07786728480701471,0.0
897,0.08077196890647105,0.0
898,0.04568087519040556,0.0
899,-0.04049787592806629,0.0
900,0.3231230921800314,0.0
901,4.811633113019587,0.0
902,4.646720940880357,0.0
903,-2.9953254865552488,0.0
904,1.5220453298999885,0.0
905,-0.8240858877128625,0.0
906,0.25401084751036895,0.0
907,-0.16849593683754804,0.0
908,-0.11978986187819642,0.0
909,-0.06279190943863593,0.0
910,-0.14597783734936084,0.0
911,-0.1119865170541309,0.0
912,-0.06602557807494754,0.0
913,-0.0772912988350729,0.0
914,-0.12905278324937464,0.0
915,0.06856112614042562,0.0
916,-0.04132295708760121,0.0
917,0.9795747033527922,0.0
918,6.638324374319171,0.0
919,1.1538008110189615,0.0
920,-1.6761936375000845,0.0
921,1.105259713774365,0.0
922,-0.5849298542097747,0.0
923,0.31514770684494925,0.0
924,-0.12085654755073036,0.0
925,0.0918575265419202,0.0
926,0.020893330390342343,0.0
927,-0.042535193889708695,0.0
928,0.01067845869117377,0.0
929,-0.017045575957403886,0.0
930,0.1617748776480101,0.0
931,-0.09369904243262064,0.0
932,-0.10246613736928062,0.0
933,0.028276277028263175,0.0
934,2.8141511344060683,0.0
935,6.791448787687814,0.0
936,-2.1608694730076334,0.0
937,0.433529255941694,0.0
938,-0.06599107834253494,0.0
939,-0.07439047506600996,0.0
940,-0.07683471299347364,0.0
941,0.012066038830936631,0.0
942,-0.0003767855438528995,0.0
943,-0.019131487712763275,0.0
944,0.08478386065373796,0.0
945,0.05060736107172456,0.0
946,-0.14975173072205497,0.0
947,-0.005597382953833772,0.0
948,0.00867843928587534,0.0
949,-0.08082941573342262,0.0
950,0.371421072964604,0.0
951,4.801604903988615,0.0
952,4.67489256757868,0.0
953,-3.0283772178450374,0.0
954,1.5352873098592963,0.0
955,-0.7090956245942356,0.0
956,0.32940061555904787,0.0
957,-0.08367551820335134,0.0
958,-0.04324797634464038,0.0
959,-0.04594845417643035,0.0
960,-0.008165087724099525,0.0
961,-0.0759065581333934,0.0
962,-0.07507291063092768,0.0
963,-0.09382992839903573,0.0
964,0.016878483417121847,0.0
965,-0.0722444822148916,0.0
966,-0.08233655527014402,0.0
967,1.1820743890750771,0.0
968,6.619301420069529,0.0
969,1.057292288672219,0.0
970,-1.7745564923829944,0.0
971,1.174513232233635,0.0
972,-0.67312613825666,0.0
973,0.3104940840803666,0.0
974,-0.01610355326871525,0.0
975,0.06536003004305968,0.0
976,0.09948328657791844,0.0
977,0.030652496579312263,0.0
978,0.05874751354435542,0.0
979,0.013773366980999936,0.0
980,0.010090286849456162,0.0
981,-0.0814728680113484,0.0
982,0.01229060449593075,0.0
983,0.0167273042335985,0.0
984,2.6865710936261222,0.0
985,6.715192651055103,0.0
986,-2.1118000338723926,0.0
987,0.4466905563024309,0.0
988,0.006062381790708845,0.0
989,0.033992997943089666,0.0
990,0.037360505222286164,0.0
991,0.03344660616366342,0.0
992,-0.033029861107251535,0.0
993,-0.06100937765332244,0.0
994,-0.0165652775306036,0.0
995,-0.0285410341681225,0.0
996,-0.026973837047742113,0.0
997,0.015153352232178195,0.0
998,0.07422467660545258,0.0
999,-0.050330300637723396,0.0
1000,0.33853590150306395,0.0
1001,4.902239327552189,0.0
1002,4.609967479996949,0.0
1003,-2.9881795751965803,0.0
1004,1.5920282679151323,0.0
1005,-0.7768020570241646,0.0
1006,0.28825669431627704,0.0
1007,-0.048937506156680674,0.0
1008,0.028100601116936977,0.0
1009,-0.06499094880847865,0.0
1010,0.011161357327247896,0.0
1011,-0.04491197471868709,0.0
1012,0.111809211794314,0.0
1013,-0.0039723317729631925,0.0
1014,-0.040110904522129884,0.0
1015,-0.08581497002517846,0.0
1016,-0.027358041086959294,0.0
1017,1.2030868657853577,0.0
1018,6.59831716310167,0.0
1019,1.1137948611224624,0.0
1020,-1.718943729018991,0.0
1021,1.1647680828863474,0.0
1022,-0.6437069108575709,0.0
1023,0.29434140455511215,0.0
1024,-0.1385852639133648,0.0
1025,0.00016933593311418277,0.0
1026,0.0170395193691538,0.0
1027,0.012908079288124381,0.0
1028,0.09500151691836486,0.0
1029,0.06316921452559003,0.0
1030,0.01615976451743182,0.0
1031,-0.06585495392900553,0.0
1032,-0.0005039802080396287,0.0
1033,-0.02139024551709856,0.0
1034,2.7007159814634942,0.0
1035,6.726452175031659,0.0
1036,-2.1448593815383368,0.0
1037,0.3675929317128476,0.0
1038,0.03402602974799879,0.0
1039,-0.0045501669483764134,0.0
1040,0.027214275689588334,0.0
1041,-0.07706567522218587,0.0
1042,0.035635737629835906,0.0
1043,-0.001174203458252556,0.0
1044,-0.017333619348437475,0.0
1045,0.06397017813412265,0.0
1046,0.04134510319372329,0.0
1047,-0.05847443111234866,0.0
1048,0.04055211996425725,0.0
1049,0.0037557547747444145,0.0
1050,0.2866133679184917,0.0
1051,4.839046429846204,0.0
1052,4.5622535171218885,0.0
1053,-2.963023076141893,0.0
1054,1.5152909437704611,0.0
1055,-0.790571292736985,0.0
1056,0.2907951943139585,0.0
1057,-0.17550088020523053,0.0
1058,0.04857505294473437,0.0
1059,-0.030310021204307765,0.0
1060,-0.0078059982293584435,0.0
1061,-0.011705092380345367,0.0
1062,-0.013507345145125464,0.0
1063,-0.0028744418429637666,0.0
1064,-0.06318185853356363,0.0
1065,-0.10697400141327562,0.0
1066,0.005876149721325739,0.0
1067,1.1760748198754043,0.0
1068,6.671052021520248,0.0
1069,1.0734268855880094,0.0
1070,-1.6752014006881837,0.0
1071,1.2534752099330722,0.0
1072,-0.6142091081644735,0.0
1073,0.24282147992935874,0.0
1074,-0.10731974433311757,0.0
1075,0.13308778988336667,0.0
1076,0.04530961197535654,0.0
1077,0.04477238395011831,0.0
1078,0.052910335190567495,0.0
1079,-0.04976432425264204,0.0
1080,-0.002321305119724057,0.0
1081,0.0520109450916587,0.0
1082,-0.01890344553670656,0.0
1083,0.13884236199453337,0.0
1084,2.868904551624282,0.0
1085,6.828916526420669,0.0
1086,-2.1506499771517964,0.0
1087,0.6097094694826132,0.0
1088,0.058298273227857064,0.0
1089,-0.057005434966787484,0.0
1090,0.026224983668629253,0.0
1091,-0.06377951956370204,0.0
1092,0.09585122052238099,0.0
1093,0.002623742311306236,0.0
1094,-0.0518348399641573,0.0
1095,-0.030682676689321533,0.0
1096,-0.008422164502544056,0.0
1097,0.03742815148677234,0.0
1098,-0.021184206838774974,0.0
1099,-0.05082337875878651,0.0
1100,0.3275982257344647,0.0
1101,4.854485182229207,0.0
1102,4.659333212909646,0.0
1103,-2.9002623717798035,0.0
1104,1.4924094312992748,0.0
1105,-0.7557017167563087,0.0
1106,0.23113126603012524,0.0
1107,-0.14356755048370676,0.0
1108,-0.010449493616754867,0.0
1109,-0.03061092838957749,0.0
1110,-0.03367343597214435,0.0
1111,-0.023424438960640313,0.0
1112,-0.10796202620095195,0.0
1113,0.10954312147778024,0.0
1114,0.056340005648697976,0.0
1115,0.04320268354845565,0.0
1116,0.00879760690075217,0.0
1117,1.1242742957167313,0.0
1118,6.540705604493519,0.0
1119,1.071872098107257,0.0
1120,-1.686996716618586,0.0
1121,1.1833289328771677,0.0
1122,-0.4614873712070622,0.0
1123,0.23752452955600556,0.0
1124,-0.07709904308470185,0.0
1125,0.016105661988489436,0.0
1126,0.016482829113031644,0.0
1127,0.02827672200040517,0.0
1128,0.03836271176886238,0.0
1129,-0.01895943500814026,0.0
1130,0.11870691254221767,0.0
1131,-0.0016476306797300055,0.0
1132,-0.06787052421666612,0.0
1133,0.06666647757602079,0.0
1134,2.8143119495291513,0.0
1135,6.796909420736383,0.0
1136,-2.2669463951130515,0.0
1137,0.5437061677009266,0.0
1138,0.006764097567308881,0.0
1139,-0.10376215645322913,0.0
1140,-0.030397628103866266,0.0
1141,0.057334945466890365,0.0
1142,-0.016972317636279474,0.0
1143,-0.08560214316788098,0.0
1144,0.00369170242972262,0.0
1145,-0.046662897512667126,0.0
1146,-0.07918947760133102,0.0
1147,-0.06762762878097792,0.0
1148,-0.018612121537546045,0.0
1149,-0.05283657528184724,0.0
1150,0.26172374448875046,0.0
1151,4.879281683352613,0.0
1152,4.550863611474131,0.0
1153,-3.057141297090005,0.0
1154,1.5044028091035029,0.0
1155,-0.8184588621767069,0.0
1156,0.3256590171040004,0.0
1157,-0.14070350621799127,0.0
1158,-0.06983278149645746,0.0
1159,-0.06354552583043936,0.0
1160,-0.08128904917684063,0.0
1161,-0.06544794218431438,0.0
1162,-0.10835875401464605,0.0
1163,-0.09674650423540603,0.0
1164,-0.01505850737925031,0.0
1165,-0.09632119145769016,0.0
1166,-0.023744646474513756,0.0
1167,1.1102855829912166,0.0
1168,6.576525818232155,0.0
1169,1.0535436024050062,0.0
1170,-1.701418067193935,0.0
1171,1.2253463460470995,0.0
1172,-0.5252759560999913,0.0
1173,0.39273476158884274,0.0
1174,-0.038401998633657466,0.0
1175,0.07829637398452347,0.0
1176,0.10683180776334661,0.0
1177,0.021583869402271208,0.0
1178,0.14874253791249406,0.0
1179,0.07133976346895114,0.0
1180,0.12955201553314014,0.0
1181,0.059834050468918945,0.0
1182,-0.030018516608447537,0.0
1183,0.0906531885088854,0.0
1184,2.783567500898956,0.0
1185,6.731621604682692,0.0
1186,-2.1464620023757335,0.0
1187,0.4372912514025204,0.0
1188,-0.08845675738496547,0.0
1189,-0.04283352041163295,0.0
1190,-0.07846990283343468,0.0
1191,-0.044150278770791855,0.0
1192,-0.12476975080002953,0.0
1193,-0.016227738510174672,0.0
1194,-0.014121808104299981,0.0
1195,-0.07404130807536834,0.0
1196,-0.008983584179545161,0.0
1197,0.018888913572201845,0.0
1198,0.04360396474406586,0.0
1199,0.023444446941250148,0.0
1200,0.34522028948445393,0.0
1201,4.904043205214227,0.0
1202,4.629129683103734,0.0
1203,-3.0067206965329283,0.0
1204,1.6768110229586815,0.0
1205,-0.6574482908343979,0.0
1206,0.4341684207300753,0.0
1207,-0.04769730830614902,0.0
1208,-0.05855447814901381,0.0
1209,0.018141486605650622,0.0
1210,0.060859889644005405,0.0
1211,-0.023358578077893318,0.0
1212,-0.008145694255388587,0.0
1213,0.06568322114473593,0.0
1214,0.006893441698801727,0.0
1215,-0.07802747264357919,0.0
1216,-0.05352130240929934,0.0
1217,1.2134374233668337,0.0
1218,6.64955032694893,0.0
1219,0.987543640363337,0.0
1220,-1.5777400338559118,0.0
1221,1.1754550700480222,0.0
1222,-0.6117482197899838,0.0
1223,0.2752193164696148,0.0
1224,0.0025917646078518625,0.0
1225,0.08802928824707923,0.0
1226,-0.014169854493877504,0.0
1227,-0.0013626962152046736,0.0
1228,-0.08316886670200291,0.0
1229,0.0609872201604019,0.0
1230,0.0019037751558784576,0.0
1231,0.0031453437738516426,0.0
1232,0.07259095597194136,0.0
1233,0.021836295969087018,0.0
1234,2.818587187293746,0.0
1235,6.68751635120598,0.0
1236,-2.169305437096683,0.0
1237,0.5071113505515922,0.0
1238,0.022437264243927574,0.0
1239,0.04592688158867088,0.0
1240,0.009520627728522829,0.0
1241,0.07753302521716923,0.0
1242,0.03711667382193047,0.0
1243,0.0688187360381871,0.0
1244,0.03467709407093161,0.0
1245,0.014012724687258657,0.0
1246,-0.013803083422764668,0.0
1247,-0.04692131021290879,0.0
1248,0.06334764128311493,0.0
1249,-0.05026329349710411,0.0
1250,0.3619276639617457,0.0
1251,4.943493337711858,0.0
1252,4.488035794598712,0.0
1253,-2.919170265081282,0.0
1254,1.6476454268679834,0.0
1255,-0.7760167418429551,0.0
1256,0.32338355109526923,0.0
1257,-0.051311256771821655,0.0
1258,-0.018342549567817043,0.0
1259,-0.09409993160712428,0.0
1260,0.07930977515300931,0.0
1261,-6.551608773782138e-05,0.0
1262,-0.024010733111531516,0.0
1263,-0.043742149601992825,0.0
1264,0.03834478069692143,0.0
1265,-0.0026128756004419485,0.0
1266,0.00016656841374443343,0.0
1267,1.155940906677234,0.0
1268,6.714823854556518,0.0
1269,0.9369128066812256,0.0
1270,-1.6847740721659294,0.0
1271,1.0112212140645072,0.0
1272,-0.6192924861728957,0.0
1273,0.22702882272453517,0.0
1274,-0.10924900931330808,0.0
1275,-0.021887365291608004,0.0
1276,-0.12208792899181506,0.0
1277,-0.02066520308046343,0.0
1278,-0.028663085993369926,0.0
1279,-0.0385870323563348,0.0
1280,-0.043390820434006785,0.0
1281,-0.047032942465387806,0.0
1282,-0.13365320535703212,0.0
1283,0.03473943297913586,0.0
1284,2.877195468907354,0.0
1285,6.673653901853519,0.0
1286,-2.2047348348674745,0.0
1287,0.5589728863748916,0.0
1288,-0.1221647901340345,0.0
1289,-0.07766423572907724,0.0
1290,0.004232649184200861,0.0
1291,-0.03801762630704107,0.0
1292,0.012706865504093771,0.0
1293,-0.10588871902148105,0.0
1294,-0.04288537454834479,0.0
1295,-0.057404717924676794,0.0
1296,-0.02903231087660847,0.0
1297,0.014630688544403412,0.0
1298,0.021859749251555337,0.0
1299,0.0042317132374863784,0.0
1300,0.3796245145662974,0.0
1301,4.9785821843589995,0.0
1302,4.545853092560911,0.0
1303,-2.9818178112623452,0.0
1304,1.6734428407373385,0.0
1305,-0.6697466057314286,0.0
1306,0.34581299812272154,0.0
1307,-0.10738200996490627,0.0
1308,0.09329352829012158,0.0
1309,0.05429483716624291,0.0
1310,-0.036156824996534546,0.0
1311,-0.014909943008036969,0.0
1312,0.11617332436337385,0.0
1313,0.021964507969740456,0.0
1314,0.0352726193773193,0.0
1315,-0.06640483742402936,0.0
1316,0.012804822648694805,0.0
1317,1.0959001044403678,0.0
1318,6.714915710913814,0.0
1319,0.8941896207233848,0.0
1320,-1.5710647087822964,0.0
1321,1.0511446946732632,0.0
1322,-0.5369233840962419,0.0
1323,0.14572121090014278,0.0
1324,-0.16553510416661188,0.0
1325,-0.0003095232431453241,0.0
1326,-0.00597387865129188,0.0
1327,-0.07047394171953274,0.0
1328,-0.03811524448253849,0.0
1329,0.012178518246622215,0.0
1330,-0.04132226883331279,0.0
1331,0.0016089592454042942,0.0
1332,0.019403825095801484,0.0
1333,0.06949470560261507,0.0
1334,2.761339256617537,0.0
1335,6.72456618501432,0.0
1336,-2.2074388034806836,0.0
1337,0.4315482201878635,0.0
1338,-0.0834907341157125,0.0
1339,-0.08205112283642418,0.0
1340,-0.001771077829538746,0.0
1341,0.019007671821734684,0.0
1342,-0.06332296617853894,0.0
1343,-0.05945021095982832,0.0
1344,-0.10326725713497062,0.0
1345,-0.14636977399453907,0.0
1346,-0.14189480764347262,0.0
1347,0.04092159633851881,0.0
1348,-0.022121705967886124,0.0
1349,-0.03786627921656171,0.0
1350,0.38662821506475575,0.0
1351,4.923350788619878,0.0
1352,4.485382617944437,0.0
1353,-3.0173682794642165,0.0
1354,1.5505510026282194,0.0
1355,-0.825840731347994,0.0
1356,0.23532882702099153,0.0
1357,-0.1240772639443371,0.0
1358,0.11576090320445209,0.0
1359,-0.0675331162811362,0.0
1360,-0.1235433517222653,0.0
1361,-0.04022008108432168,0.0
1362,-0.06566595372089731,0.0
1363,-0.17649718779915197,0.0
1364,0.05489240848017344,0.0
1365,-0.0006678112588314189,0.0
1366,-0.09397095167078828,0.0
1367,1.2039927115303104,0.0
1368,6.641388318302467,0.0
1369,0.7459654461799178,0.0
1370,-1.6555485953787983,0.0
1371,1.1373843904887975,0.0
1372,-0.5995485188115351,0.0
1373,0.21920629989465165,0.0
1374,-0.059135449382370704,0.0
1375,-0.01690057741692458,0.0
1376,0.0010841501194258502,0.0
1377,-0.07022997634265402,0.0
1378,0.0005399516154381279,0.0
1379,0.07833358154636967,0.0
1380,0.011827410870278814,0.0
1381,-0.04824544223004835,0.0
1382,-0.060484176363073426,0.0
1383,0.09362118516486803,0.0
1384,2.880724031192486,0.0
1385,6.614311154580056,0.0
1386,-2.2872832261718674,0.0
1387,0.5445091447461483,0.0
1388,0.06571490433704141,0.0
1389,0.08703696476742456,0.0
1390,-0.0022439786602508754,0.0
1391,-0.04594213274821225,0.0
1392,-0.03420503799825434,0.0
1393,0.016920450097678383,0.0
1394,0.031194603549784927,0.0
1395,-0.06629530518068177,0.0
1396,-0.03988228562012623,0.0
1397,0.06250244518427517,0.0
1398,-0.0765861909650998,0.0
1399,-0.07360100420083641,0.0
1400,0.27732679810947986,0.0
1401,4.9193616003894265,0.0
1402,4.471824889950911,0.0
1403,-2.983523455032443,0.0
1404,1.5480941309281397,0.0
1405,-0.8390343206172375,0.0
1406,0.1913565436220739,0.0
1407,-0.08641910924690537,0.0
1408,-0.02959298796257004,0.0
1409,-0.04758814090991517,0.0
1410,-0.05027309001652485,0.0
1411,-0.016372990008103005,0.0
1412,0.055426444838572446,0.0
1413,-0.05369802366200367,0.0
1414,-0.05421765468329255,0.0
1415,-0.09657310818697681,0.0
1416,0.013549290944716498,0.0
1417,1.1668873125115802,0.0
1418,6.600460791662909,0.0
1419,0.781906392982304,0.0
1420,-1.6522800774025268,0.0
1421,1.0569636047069428,0.0
1422,-0.612708520477313,0.0
1423,0.08895523491222616,0.0
1424,-0.13727374150142965,0.0
1425,0.038839124716444406,0.0
1426,-0.027097271947362035,0.0
1427,-0.0019127955467941118,0.0
1428,-0.023685773466107254,0.0
1429,-0.009268415127151958,0.0
1430,-0.09247835659351392,0.0
1431,-0.08454708521385172,0.0
1432,-0.04573512776971424,0.0
1433,-0.004351723653618949,0.0
1434,2.8173357104888255,0.0
1435,6.551709537678415,0.0
1436,-2.2648449637775263,0.0
1437,0.4253033901223689,0.0
1438,-0.08412946666182228,0.0
1439,-0.06881740472766025,0.0
1440,-0.03285097881773503,0.0
1441,-0.02554239177810715,0.0
1442,-0.03740937117718604,0.0
1443,-0.08173346703737722,0.0
1444,-0.03728478070431637,0.0
1445,-0.04901762399971176,0.0
1446,-0.00035802183521523034,0.0
1447,-0.08345793465752042,0.0
1448,-0.026066603032699594,0.0
1449,0.006060861799520645,0.0
1450,0.35317631013806894,0.0
1451,4.925898410528576,0.0
1452,4.372395704116453,0.0
1453,-2.9272645431796684,0.0
1454,1.4943883511176679,0.0
1455,-0.7756202972162465,0.0
1456,0.2938869044154183,0.0
1457,-0.08730901726678142,0.0
1458,0.018289117867385157,0.0
1459,-0.13245440252967136,0.0
1460,-0.00861052557291924,0.0
1461,-0.051498817325779066,0.0
1462,0.0010186604848688857,0.0
1463,-0.127979408844332,0.0
1464,-0.04919245684389958,0.0
1465,-0.067914109441362,0.0
1466,0.0015659118998485183,0.0
1467,1.083830074512663,0.0
1468,6.616053924101923,0.0
1469,0.8447731627989811,0.0
1470,-1.707405587042169,0.0
1471,0.940222787771368,0.0
1472,-0.6542130925443553,0.0
1473,0.17129763918109348,0.0
1474,-0.1072530184889358,0.0
1475,-0.052205634597690176,0.0
1476,-0.04879879196747215,0.0
1477,-0.08128484774202774,0.0
1478,-0.04349482498905994,0.0
1479,-0.015323637439645564,0.0
1480,-0.04962662634053016,0.0
1481,-0.12456924015513436,0.0
1482,-0.07694286606813774,0.0
1483,-0.04337201544821956,0.0
1484,2.8484814218863868,0.0
1485,6.6521543707938156,0.0
1486,-2.369930165312322,0.0
1487,0.5594896097357096,0.0
1488,-0.08312428092589694,0.0
1489,-0.09481986228549359,0.0
1490,-0.042542987498028935,0.0
1491,-0.03860167692420381,0.0
1492,-0.03068132152112761,0.0
1493,-0.017584335685097756,0.0
1494,-0.11011173406508556,0.0
1495,-0.10585592412146058,0.0
1496,-0.12159881856338259,0.0
1497,-0.0026675387938714934,0.0
1498,-0.05995487288867013,0.0
1499,-0.06353662415083876,0.0
1500,0.2825062029834936,0.0
1501,4.9315764293282545,0.0
1502,4.31786642052809,0.0
1503,-2.9619314646265273,0.0
1504,1.54242726538221,0.0
1505,-0.9469214555310297,0.0
1506,0.22177258363319396,0.0
1507,-0.10475859947294791,0.0
1508,-0.13375432807285276,0.0
1509,-0.07884043183124309,0.0
1510,-0.06428928360444305,0.0
1511,-0.04451368765868194,0.0
1512,-0.12750617171979106,0.0
1513,-0.09810195660527399,0.0
1514,-0.02933770929443911,0.0
1515,-0.06705867324966944,0.0
1516,-0.04839677190816098,0.0
1517,1.1563593685086717,0.0
1518,6.702683503549386,0.0
1519,0.7765788216289662,0.0
1520,-1.6090759882996333,0.0
1521,1.0540260785507498,0.0
1522,-0.5849874771366355,0.0
1523,0.13667305303605343,0.0
1524,-0.15503677388537387,0.0
1525,-0.035313824183573206,0.0
1526,-0.04602091333955416,0.0
1527,-0.1307071841952941,0.0
1528,-0.021082443048049668,0.0
1529,-0.09507376341904608,0.0
1530,-0.03973124147090634,0.0
1531,-0.11895730116130242,0.0
1532,-0.1077372086913714,0.0
1533,-0.07997501558317413,0.0
1534,2.7563977936083885,0.0
1535,6.575090649550236,0.0
1536,-2.416549187859486,0.0
1537,0.45855059776405904,0.0
1538,-0.14749070273999046,0.0
1539,-0.19201197490694638,0.0
1540,-0.021811185266383606,0.0
1541,-0.03785318476991425,0.0
1542,-0.051679054342430995,0.0
1543,-0.11783857292458555,0.0
1544,-0.10007514391445915,0.0
1545,-0.08885006537125945,0.0
1546,-0.10841535270064864,0.0
1547,-0.07389141763878296,0.0
1548,-0.14190754873836992,0.0
1549,0.01107959677545492,0.0
1550,0.3219425873683169,0.0
1551,4.984416357878397,0.0
1552,4.2826224923492004,0.0
1553,-3.180265023254014,0.0
1554,1.521379820364573,0.0
1555,-0.8439107445316507,0.0
1556,0.26556906188793006,0.0
1557,-0.14438836470637406,0.0
1558,-0.038653566152377965,0.0
1559,-0.12851265584037885,0.0
1560,-0.048103803572748585,0.0
1561,-0.02076063868541081,0.0
1562,-0.03527047268078578,0.0
1563,-0.05565713505644815,0.0
1564,-0.09392872487516557,0.0
1565,-0.08858921783393633,0.0
1566,-0.03743916429057239,0.0
1567,1.1589828667110043,0.0
1568,6.615176615312833,0.0
1569,0.7138189794856558,0.0
1570,-1.6558113239922765,0.0
1571,1.0454703926236086,0.0
1572,-0.5228155523558556,0.0
1573,0.2026576298255545,0.0
1574,-0.09860848239069597,0.0
1575,-0.024511345780359715,0.0
1576,-0.008159770348390251,0.0
1577,-0.042055912820807506,0.0
1578,-0.002380135645593893,0.0
1579,0.05790826294244909,0.0
1580,-0.029359127374797445,0.0
1581,-0.062376566820994184,0.0
1582,-0.07701887339550459,0.0
1583,0.00467938934370467,0.0
1584,3.008592615105398,0.0
1585,6.481737985956218,0.0
1586,-2.270603267861557,0.0
1587,0.48891613701277414,0.0
1588,-0.1576545645822938,0.0
1589,-0.14886088154148608,0.0
1590,-0.044498488832069964,0.0
1591,-0.07866790146578616,0.0
1592,-0.06994665875445084,0.0
1593,-0.045365818389880824,0.0
1594,-0.1242591817908423,0.0
1595,-0.10948496644794133,0.0
1596,-0.14079682989052555,0.0
1597,-0.09960301927314111,0.0
1598,-0.032649731401480364,0.0
1599,0.009950652901060612,0.0
1600,0.37104112997675653,0.0
1601,4.931281202410601,0.0
1602,4.266336874621346,0.0
1603,-2.9281329593344396,0.0
1604,1.6288735713607005,0.0
1605,-0.7539598992343465,0.0
1606,0.27252082916878123,0.0
1607,-0.1851838648827347,0.0
1608,0.0473079697682966,0.0
1609,-0.05986659244084349,0.0
1610,-0.09194767296996241,0.0
1611,0.014411407638618083,0.0
1612,-0.1196688816965582,0.0
1613,0.007057903349622799,0.0
1614,0.034576061672507215,0.0
1615,-0.029488910913454187,0.0
1616,0.01373472429469838,0.0
1617,1.1742747132645515,0.0
1618,6.748789707398638,0.0
1619,0.6776813853509285,0.0
1620,-1.4773449587317342,0.0
1621,1.0698244595024267,0.0
1622,-0.6492779085011762,0.0
1623,0.15647974167575934,0.0
1624,-0.061719432383525154,0.0
1625,-0.0007240312673406531,0.0
1626,-0.06352983543836022,0.0
1627,-0.07888138373139301,0.0
1628,-0.011777707466400032,0.0
1629,-0.0790632952005963,0.0
1630,-0.001135575102412429,0.0
1631,-0.036385111253227534,0.0
1632,-0.010003957915653082,0.0
1633,0.006204700340575235,0.0
1634,2.909055614041581,0.0
1635,6.779741431117394,0.0
1636,-2.2469077376604205,0.0
1637,0.640563198661148,0.0
1638,-0.19969115260879755,0.0
1639,-0.08912854228855088,0.0
1640,0.036717488922524834,0.0
1641,0.02962118654498145,0.0
1642,0.02630559683524967,0.0
1643,-0.004673320358873978,0.0
1644,-0.012335735432565473,0.0
1645,0.02572784332684483,0.0
1646,-0.028650008282123662,0.0
1647,0.019117007738352888,0.0
1648,0.013646672350511826,0.0
1649,0.04118440084356388,0.0
1650,0.3888660806318299,0.0
1651,5.110728651643196,0.0
1652,4.457740005334618,0.0
1653,-2.933551798307513,0.0
1654,1.5672494732379991,0.0
1655,-0.7355051175093843,0.0
1656,0.43454444255186264,0.0
1657,-0.06817281967134133,0.0
1658,0.04833787307232977,0.0
1659,0.09156251865747561,0.0
1660,0.10399127937048958,0.0
1661,0.004233843888929299,0.0
1662,0.06541659869403191,0.0
1663,0.05070150723126465,0.0
1664,0.017973434875548047,0.0
1665,0.06713464341342787,0.0
1666,-0.028713506705166467,0.0
1667,1.2424141005973766,0.0
1668,6.753555728767326,0.0
1669,0.8050353657281413,0.0
1670,-1.5121630772440118,0.0
1671,1.1085951742159064,0.0
1672,-0.5238593117305516,0.0
1673,0.22291177747604998,0.0
1674,-0.020933744992373673,0.0
1675,0.08522705985990048,0.0
1676,0.06599442740876432,0.0
1677,0.047261562276830024,0.0
1678,-0.003181577220957565,0.0
1679,0.02460412595815952,0.0
1680,0.01733615807639742,0.0
1681,-0.04201744395031625,0.0
1682,-0.053845138395870185,0.0
1683,0.058348834864271025,0.0
1684,2.9947657858978816,0.0
1685,6.648354965560176,0.0
1686,-2.3095338575000492,0.0
1687,0.752344734523965,0.0
1688,-0.09245771247106765,0.0
1689,-0.015374134677125525,0.0
1690,0.043307076478298664,0.0
1691,0.12367281719887417,0.0
1692,0.07998993401656722,0.0
1693,0.06656284880294512,0.0
1694,-0.02644288347147325,0.0
1695,0.011809423070754072,0.0
1696,0.056221161279395276,0.0
1697,-0.0026808831719453315,0.0
1698,0.01408587276998596,0.0
1699,0.05787674233587185,0.0
1700,0.41869120320355663,0.0
1701,5.0962164046763645,0.0
1702,4.325227779723515,0.0
1703,-2.952979098371544,0.0
1704,1.6531392541447931,0.0
1705,-0.7603866916351758,0.0
1706,0.2688802674920385,0.0
1707,-0.04542729011680784,0.0
1708,0.040520464933453904,0.0
1709,0.013219385499347296,0.0
1710,0.026420322074180554,0.0
1711,-0.00027613897979652906,0.0
1712,0.02226407864944422,0.0
1713,0.026894391456499245,0.0
1714,0.028152043964943835,0.0
1715,-0.029677682400303093,0.0
1716,0.03664458486282504,0.0
1717,1.3058992316428384,0.0
1718,6.6247195992504215,0.0
1719,0.6754380883824225,0.0
1720,-1.5092102050562917,0.0
1721,1.022762488538135,0.0
1722,-0.5800982965863496,0.0
1723,0.2909141551989287,0.0
1724,-0.04178903763570288,0.0
1725,0.03517214522022921,0.0
1726,0.1263956358678517,0.0
1727,-0.01639768576499327,0.0
1728,-0.0030999314444744106,0.0
1729,-0.02383233807595392,0.0
1730,-0.07729756941372168,0.0
1731,0.0608151217617235,0.0
1732,-0.03138581280858069,0.0
1733,0.07721367381933857,0.0
1734,2.98104815191837,0.0
1735,6.624561570771227,0.0
1736,-2.3684954023860616,0.0
1737,0.6868626272077367,0.0
1738,-0.13074480048850895,0.0
1739,0.039195553310667465,0.0
1740,0.07086489748542232,0.0
1741,0.009401589745365285,0.0
1742,0.0694363424360411,0.0
1743,0.10728679466089298,0.0
1744,0.02901708669100604,0.0
1745,0.09629911277195699,0.0
1746,0.12723158391182737,0.0
1747,0.09057171157343523,0.0
1748,0.07620304015022757,0.0
1749,-0.00466043402626138,0.0
1750,0.41375967454910384,0.0
1751,4.996623175084758,0.0
1752,4.334038759043744,0.0
1753,-2.9164363332171814,0.0
1754,1.5510289445323189,0.0
1755,-0.753969060569523,0.0
1756,0.3487185911585682,0.0
1757,-0.1661681796101701,0.0
1758,0.08209544735663787,0.0
1759,0.055416295676075956,0.0
1760,0.053420906548875186,0.0
1761,0.0045848440372268755,0.0
1762,0.06072609956670069,0.0
1763,0.06378600247266297,0.0
1764,-0.06534388028040566,0.0
1765,-0.02028585266746258,0.0
1766,0.014996753966147178,0.0
1767,1.325439635109676,0.0
1768,6.729084809585235,0.0
1769,0.7374878728545012,0.0
1770,-1.5162558903979202,0.0
1771,1.038835654331346,0.0
1772,-0.550513675552775,0.0
1773,0.19956135706241895,0.0
1774,-0.04995589457478331,0.0
1775,-0.1199732174647316,0.0
1776,0.08417699775013318,0.0
1777,0.05365842501495952,0.0
1778,0.03389174947617371,0.0
1779,-0.06904705766051782,0.0
1780,0.01955638428328507,0.0
1781,-0.03039463435229376,0.0
1782,0.0414967918855365,0.0
1783,0.09751565420207772,0.0
1784,3.0245260353888863,0.0
1785,6.649113758344459,0.0
1786,-2.225656849177412,0.0
1787,0.6090063505941586,0.0
1788,-0.08469014100220008,0.0
1789,-0.03659209024287524,0.0
1790,0.010461250087780139,0.0
1791,0.02053430720968349,0.0
1792,0.059144294761818525,0.0
1793,-0.01188764990847065,0.0
1794,0.04824589525896514,0.0
1795,0.014536598536660297,0.0
1796,0.05699892212785808,0.0
1797,-0.03285971391803717,0.0
1798,0.04347378621566104,0.0
1799,0.03440944369637697,0.0
1800,0.46250883999883635,0.0
1801,5.116264804867895,0.0
1802,4.300310655958073,0.0
1803,-2.8896642311654586,0.0
1804,1.714324688199613,0.0
1805,-0.7792279421638927,0.0
1806,0.33105163103968727,0.0
1807,-0.013253802699583261,0.0
1808,-0.049658695054263874,0.0
1809,0.04470460980884996,0.0
1810,0.016943317159197495,0.0
1811,-0.0025030563133165915,0.0
1812,-0.04593703860870304,0.0
1813,0.09347591394417822,0.0
1814,-0.026382937695607712,0.0
1815,0.03414525160692281,0.0
1816,0.1495535656336623,0.0
1817,1.2529764557927825,0.0
1818,6.624864094556822,0.0
1819,0.754075710463716,0.0
1820,-1.5926749277514227,0.0
1821,1.032998919073611,0.0
1822,-0.4449264936845048,0.0
1823,0.2757330820620367,0.0
1824,-0.0546987250351538,0.0
1825,0.07253730246645676,0.0
1826,0.11764178220625146,0.0
1827,-0.056809615148153074,0.0
1828,0.057349664881235336,0.0
1829,-0.012309089615744673,0.0
1830,0.05821587399435393,0.0
1831,0.0671390784700811,0.0
1832,0.07670304389456725,0.0
1833,0.16885970396397304,0.0
1834,3.028126903698823,0.0
1835,6.628742490674354,0.0
1836,-2.298692874523029,0.0
1837,0.6802613555247009,0.0
1838,-0.07955568141225862,0.0
1839,-0.010272937888269752,0.0
1840,0.037093061528106305,0.0
1841,-0.01945597759085066,0.0
1842,0.018614096286893703,0.0
1843,0.03772252018680496,0.0
1844,0.08814093922445701,0.0
1845,0.04739461146463686,0.0
1846,0.10398798151780683,0.0
1847,0.008418949966717139,0.0
1848,0.022342472420563274,0.0
1849,0.08041381960074637,0.0
1850,0.4818439131031703,0.0
1851,5.101959235560139,0.0
1852,4.413057381577458,0.0
1853,-2.89331752973993,0.0
1854,1.611265147158559,0.0
1855,-0.7170286831751357,0.0
1856,0.362046108613097,0.0
1857,-0.13937332541427694,0.0
1858,0.0327895255087645,0.0
1859,-0.03588907843723717,0.0
1860,-0.05157223511513395,0.0
1861,0.10389108423623726,0.0
1862,0.08886733405906777,0.0
1863,0.01406653574739318,0.0
1864,-0.006033585448786159,0.0
1865,-0.004579211320312353,0.0
1866,-0.016216505451336762,0.0
1867,1.286021637931638,0.0
1868,6.697892778086815,0.0
1869,0.6803457476794369,0.0
1870,-1.3614449471900631,0.0
1871,0.9708355073339251,0.0
1872,-0.4983966152839897,0.0
1873,0.23683627900258292,0.0
1874,-0.06393417742605133,0.0
1875,0.12424008734593767,0.0
1876,0.033018943947630795,0.0
1877,0.031275249784084976,0.0
1878,0.027680550774425577,0.0
1879,0.039483527378125334,0.0
1880,-0.022251252040728926,0.0
1881,0.08994344715971067,0.0
1882,0.06379505427927509,0.0
1883,0.04627844053618094,0.0
1884,3.0170758046891777,0.0
1885,6.701604112909883,0.0
1886,-2.2427264101161417,0.0
1887,0.7316471743487887,0.0
1888,-0.003189929552594055,0.0
1889,-0.04522287935485257,0.0
1890,0.008752687242650409,0.0
1891,0.044268758144892256,0.0
1892,0.009764154453397532,0.0
1893,0.07172963359683444,0.0
1894,0.10673608757608338,0.0
1895,0.034283675333170005,0.0
1896,0.031604571765156575,0.0
1897,0.014279433643915158,0.0
1898,0.08602642027546692,0.0
1899,0.01807918656789692,0.0
1900,0.4368790851259454,0.0
1901,5.112980520575958,0.0
1902,4.290155492978204,0.0
1903,-2.8645081002395414,0.0
1904,1.626842480813183,0.0
1905,-0.7568436634958591,0.0
1906,0.41162258315089206,0.0
1907,-0.15308674332437344,0.0
1908,0.08326362806340998,0.0
1909,0.052839984165655766,0.0
1910,-0.005175493823061247,0.0
1911,0.06616824136458249,0.0
1912,0.06309740360306805,0.0
1913,0.09267503696469175,0.0
1914,0.10418070579846708,0.0
1915,0.141632241543776,0.0
1916,0.12916790643529424,0.0
1917,1.3655859835888253,0.0
1918,6.6794450212096255,0.0
1919,0.6608903237500995,0.0
1920,-1.458453648467507,0.0
1921,1.0309455765612872,0.0
1922,-0.45620850843609545,0.0
1923,0.22683300958517502,0.0
1924,-0.030441374937815013,0.0
1925,0.03258505705062413,0.0
1926,0.073232459674915,0.0
1927,0.012960083813719225,0.0
1928,0.028756346627007025,0.0
1929,0.11122527025026999,0.0
1930,0.08314674666647065,0.0
1931,0.108157216664586,0.0
1932,0.09789459364785218,0.0
1933,0.07130618115864786,0.0
1934,2.9786776372067894,0.0
1935,6.671978426180054,0.0
1936,-2.3539278374200787,0.0
1937,0.7047422231432338,0.0
1938,-0.02067372169604098,0.0
1939,0.1380929764056864,0.0
1940,0.06865034251219836,0.0
1941,0.00731053325957778,0.0
1942,0.056725038166418364,0.0
1943,0.032473058049432235,0.0
1944,0.0795896127745769,0.0
1945,-0.013644062235697864,0.0
1946,0.05894589504517717,0.0
1947,0.0689841975929364,0.0
1948,-0.09037207902523589,0.0
1949,0.019420995520049417,0.0
1950,0.39930473706863345,0.0
1951,5.155141865996717,0.0
1952,4.249433634074062,0.0
1953,-2.9750356435926166,0.0
1954,1.5388958411662697,0.0
1955,-0.7402136522193039,0.0
1956,0.2886472397134929,0.0
1957,-0.02998221821575854,0.0
1958,0.01734155038844807,0.0
1959,-0.09609209498749784,0.0
1960,0.025582079296263594,0.0
1961,0.014435644873809791,0.0
1962,0.12616370490993153,0.0
1963,0.021879304333993543,0.0
1964,-0.06238359343083789,0.0
1965,-0.018396535923191678,0.0
1966,0.05422825486384063,0.0
1967,1.3183758483894572,0.0
1968,6.775043009690936,0.0
1969,0.6879291386673386,0.0
1970,-1.4725937997074716,0.0
1971,1.0437087086379944,0.0
1972,-0.6364371836707301,0.0
1973,0.25851249791896513,0.0
1974,-0.05790845626382636,0.0
1975,-0.01272408400334267,0.0
1976,-0.020329036136069095,0.0
1977,0.04175867519043849,0.0
1978,-0.019349321622518047,0.0
1979,0.02288408529503041,0.0
1980,-0.04406595634542659,0.0
1981,0.07726313257737008,0.0
1982,0.0925777066537142,0.0
1983,0.03937669009580529,0.0
1984,3.0372167688072387,0.0
1985,6.637199296794779,0.0
1986,-2.4271967805104935,0.0
1987,0.6922472196142107,0.0
1988,-0.10487037633977622,0.0
1989,0.01171759948722323,0.0
1990,0.060007122752262346,0.0
1991,-0.023306410641289195,0.0
1992,0.08203170641766695,0.0
1993,0.02629800204522348,0.0
1994,0.040500540699924426,0.0
1995,0.0676033731375554,0.0
1996,0.05765281423938132,0.0
1997,0.019035114511058406,0.0
1998,-0.03944148806403139,0.0
1999,-0.005771615015821222,0.0
2000,0.3457163102990327,0.0
2001,5.0690525741832655,0.0
2002,4.237902824712894,0.0
2003,-2.9544966785567395,0.0
2004,1.5703022718809898,0.0
2005,-0.8539621746111412,0.0
2006,0.25416367707691717,0.0
2007,-0.05909507257786867,0.0
2008,0.10186052673819042,0.0
2009,-0.09563806833677937,0.0
2010,-0.09110973470144071,0.0
2011,-0.014070034452938661,0.0
2012,-0.12143652281693706,0.0
2013,0.007672553396616991,0.0
2014,-0.0566594759395984,0.0
2015,0.007081351714101829,0.0
2016,-0.026531466932829467,0.0
2017,1.2503992718964139,0.0
2018,6.728133967087896,0.0
2019,0.6018969338695528,0.0
2020,-1.4691823783091695,0.0
2021,0.9805311001944914,0.0
2022,-0.5664327806381078,0.0
2023,0.24296665722983785,0.0
2024,-0.04568150288522818,0.0
2025,0.005919875078905249,0.0
2026,0.014495828488056733,0.0
2027,0.00980242468585546,0.0
2028,0.009940936023691421,0.0
2029,-0.023896399273378645,0.0
2030,0.006001907311846615,0.0
2031,0.0020434531934729466,0.0
2032,-0.06904844750097625,0.0
2033,0.08966855594065451,0.0
2034,3.026127130870922,0.0
2035,6.463221228557216,0.0
2036,-2.5237592464778253,0.0
2037,0.6952570193493406,0.0
2038,-0.06121278560681423,0.0
2039,-0.00848170645696613,0.0
2040,-0.004189947493827194,0.0
2041,-0.1064790895188592,0.0
2042,-0.08277742026156684,0.0
2043,0.0542837768506088,0.0
2044,-0.11558295727596521,0.0
2045,0.007695955463184512,0.0
2046,0.038141007372530566,0.0
2047,-0.04246430980949542,0.0
2048,0.03924662437723994,0.0
2049,-0.07361837705451786,0.0
2050,0.3613694872037817,0.0
2051,5.218585339524301,0.0
2052,4.115533893191167,0.0
2053,-2.898972813100271,0.0
2054,1.6127983574421505,0.0
2055,-0.7711714752414696,0.0
2056,0.3457198450480948,0.0
2057,-0.053451231237599636,0.0
2058,0.07996975124674657,0.0
2059,-0.0644713013676771,0.0
2060,0.07639873415169444,0.0
2061,0.005430314598042007,0.0
2062,0.015156835947523706,0.0
2063,0.004881556905212682,0.0
2064,-0.08794105641745016,0.0
2065,-0.010204659302832632,0.0
2066,0.007307165295827444,0.0
2067,1.2515991163567488,0.0
2068,6.711017161763892,0.0
2069,0.5230054362607833,0.0
2070,-1.4152064004068434,0.0
2071,1.0020638729185738,0.0
2072,-0.5187706914246892,0.0
2073,0.16522725628953244,0.0
2074,-0.06935442657995562,0.0
2075,-0.003574612242413096,0.0
2076,-0.027686277335551616,0.0
2077,-0.10239337756376155,0.0
2078,-0.040535735265979006,0.0
2079,0.05381356274515481,0.0
2080,-0.09140148314826153,0.0
2081,0.17130316510927351,0.0
2082,-0.10206973212054997,0.0
2083,0.0554778392606253,0.0
2084,3.0416703317693474,0.0
2085,6.629200463924533,0.0
2086,-2.477291253057473,0.0
2087,0.7140274851305867,0.0
2088,-0.1487617696410078,0.0
2089,-0.010586780994354783,0.0
2090,0.00708500174398833,0.0
2091,-0.026644287833907796,0.0
2092,-0.029890215659247335,0.0
2093,-0.09404420512097474,0.0
2094,-0.09333350767757498,0.0
2095,-0.0555353873566569,0.0
2096,0.018307715687324234,0.0
2097,-0.08256725998816436,0.0
2098,-0.05012242178467722,0.0
2099,0.0018844092001127797,0.0
2100,0.2963525894431951,0.0
2101,5.181027050300259,0.0
2102,4.1479646687309515,0.0
2103,-2.8958908848671405,0.0
2104,1.5018471678641079,0.0
2105,-0.798821074387587,0.0
2106,0.3638408860045478,0.0
2107,-0.15457872325251037,0.0
2108,0.008611708475068246,0.0
2109,-0.02968121780149507,0.0
2110,-0.00865777596203647,0.0
2111,-0.016590634438326736,0.0
2112,-0.06892451333227118,0.0
2113,-0.08215595874532185,0.0
2114,-0.04049792697277283,0.0
2115,0.03020012634983147,0.0
2116,-0.10054018698206046,0.0
2117,1.2922473973558446,0.0
2118,6.799744888437151,0.0
2119,0.5381297424237654,0.0
2120,-1.471526481640473,0.0
2121,0.9898375125584588,0.0
2122,-0.5345735901974298,0.0
2123,0.1826016527921066,0.0
2124,-0.029122319494653114,0.0
2125,0.11098838123281886,0.0
2126,-0.017661965249542336,0.0
2127,0.06386281398923657,0.0
2128,0.0053565018974051325,0.0
2129,0.083635155121545,0.0
2130,-0.026736272190371894,0.0
2131,-0.0434155066371806,0.0
2132,0.0010292358469099483,0.0
2133,-0.08112230447498228,0.0
2134,2.9869807488227558,0.0
2135,6.5234352768238075,0.0
2136,-2.4898496296838855,0.0
2137,0.7579948901487623,0.0
2138,-0.17111446655479673,0.0
2139,0.05878398744507875,0.0
2140,-0.0702200989538557,0.0
2141,-0.037794029339520474,0.0
2142,-0.029321077147953893,0.0
2143,-0.030571303987042563,0.0
2144,-0.03385723961578084,0.0
2145,0.008495035187954861,0.0
2146,0.03276280148780668,0.0
2147,-0.09825643649758181,0.0
2148,-0.011549666963649528,0.0
2149,-0.05381373017160989,0.0
2150,0.4105253678356005,0.0
2151,5.2431568119227725,0.0
2152,4.097454507510895,0.0
2153,-2.8290087446813152,0.0
2154,1.5307711809204219,0.0
2155,-0.8204858608478112,0.0
2156,0.18648143548445217,0.0
2157,-0.11163502911707507,0.0
2158,0.09089098140030363,0.0
2159,-0.012056585748446582,0.0
2160,0.019892830275343727,0.0
2161,0.009896715210676078,0.0
2162,0.06793863137709749,0.0
2163,0.03641885504898868,0.0
2164,0.010658091809851094,0.0
2165,-0.0422609626817848,0.0
2166,0.011745455202306306,0.0
2167,1.2844646605101075,0.0
2168,6.747619616451646,0.0
2169,0.503500148883968,0.0
2170,-1.3947040495580005,0.0
2171,0.930779530388934,0.0
2172,-0.4284325096070817,0.0
2173,0.14619898475039894,0.0
2174,-0.052726534624514945,0.0
2175,-0.06000291506198041,0.0
2176,0.02553241185890433,0.0
2177,-0.05469176290274323,0.0
2178,-0.025682570258496278,0.0
2179,0.006641524434427952,0.0
2180,-0.001709280629975567,0.0
2181,-0.0076762243729813166,0.0
2182,-0.004714159317852416,0.0
2183,0.07918368430427059,0.0
2184,3.0921106483333167,0.0
2185,6.497684277851251,0.0
2186,-2.4288963728399757,0.0
2187,0.7781633191494735,0.0
2188,-0.18887244249749988,0.0
2189,-0.15646725257438202,0.0
2190,0.06954129116321109,0.0
2191,0.06474739541216865,0.0
2192,-0.06677372597942324,0.0
2193,-0.09638243923854631,0.0
2194,-0.03357659325922543,0.0
2195,-0.06780137910894206,0.0
2196,-0.01245539553448283,0.0
2197,0.056382737737711,0.0
2198,0.07292110628383455,0.0
2199,0.04582025676453645,0.0
2200,0.5078244156575996,0.0
2201,5.197304654451039,0.0
2202,4.139120767413035,0.0
2203,-2.9602058208493847,0.0
2204,1.5873336023197733,0.0
2205,-0.7064116671555294,0.0
2206,0.29765477183500133,0.0
2207,-0.10829009367392081,0.0
2208,-0.0039016368016257796,0.0
2209,-0.04923285528199833,0.0
2210,-0.04278260130568368,0.0
2211,-0.019364277693644995,0.0
2212,0.007269861945944211,0.0
2213,0.03258226921223675,0.0
2214,-0.019352659158420334,0.0
2215,0.013367759252517868,0.0
2216,0.0037039397737553374,0.0
2217,1.2417440058544411,0.0
2218,6.739893756820228,0.0
2219,0.5097425788729251,0.0
2220,-1.396127650357382,0.0
2221,0.9609334684353171,0.0
2222,-0.5375374352537728,0.0
2223,0.2633357431174948,0.0
2224,-0.08991900234483735,0.0
2225,-0.027502466933834104,0.0
2226,-0.0994825732698141,0.0
2227,0.02354336369448313,0.0
2228,0.05116623111559842,0.0
2229,-0.0007430070556369702,0.0
2230,0.05999260247989097,0.0
2231,0.016266533429554475,0.0
2232,-0.01777389255362433,0.0
2233,0.05251584593094006,0.0
2234,3.0872014203806692,0.0
2235,6.534407138298115,0.0
2236,-2.5007417767229803,0.0
2237,0.7709656847643611,0.0
2238,-0.2802168750488535,0.0
2239,0.04352308047643759,0.0
2240,-0.042904545340298014,0.0
2241,-0.01932211437675898,0.0
2242,0.04453017575803211,0.0
2243,-0.014672625507903266,0.0
2244,-0.01436187089711809,0.0
2245,-0.012811607979844618,0.0
2246,0.022536085009352287,0.0
2247,-0.01719773724785157,0.0
2248,-0.06417767056086701,0.0
2249,-0.05628410837036674,0.0
2250,0.44520538003832155,0.0
2251,5.2534046695209815,0.0
2252,4.040350432113139,0.0
2253,-2.9024506279664024,0.0
2254,1.6368964876269885,0.0
2255,-0.723734025069684,0.0
2256,0.38719481919309423,0.0
2257,-0.09820116705715147,0.0
2258,0.11221875002176893,0.0
2259,0.038851707978109815,0.0
2260,0.04889024938212925,0.0
2261,0.005520144477447621,0.0
2262,0.04172734758227571,0.0
2263,-0.006622782981454679,0.0
2264,0.07289073164261838,0.0
2265,0.0624682805979848,0.0
2266,0.07673660969853244,0.0
2267,1.2248070093696128,0.0
2268,6.84153924654061,0.0
2269,0.39105940096274905,0.0
2270,-1.3979417666627727,0.0
2271,0.9390330946668882,0.0
2272,-0.44761452688838427,0.0
2273,0.1670014251840904,0.0
2274,-0.11095792620067756,0.0
2275,-0.0834271114707418,0.0
2276,0.03874029759227626,0.0
2277,-0.06879774618317443,0.0
2278,0.032255538551656644,0.0
2279,0.0014675103873524019,0.0
2280,-0.006350192362239413,0.0
2281,-0.07035929724860612,0.0
2282,0.06509123209147435,0.0
2283,0.08079076482835985,0.0
2284,2.986871599513185,0.0
2285,6.530246718181683,0.0
2286,-2.476978458339812,0.0
2287,0.8098535529118649,0.0
2288,-0.11700907545420125,0.0
2289,-0.019896583786926172,0.0
2290,-0.10217369399344052,0.0
2291,-0.050245898420919304,0.0
2292,-0.07734996581724735,0.0
2293,0.033344161327958304,0.0
2294,-0.03696154332952995,0.0
2295,-0.05624985723685612,0.0
2296,-0.08565186277865398,0.0
2297,-0.05433196897252289,0.0
2298,-0.09426825656691157,0.0
2299,-0.04885218818469436,0.0
2300,0.44017673893702824,0.0
2301,5.225353657164866,0.0
2302,4.02899938631525,0.0
2303,-2.8781400807831465,0.0
2304,1.6727206998634265,0.0
2305,-0.8235039658772421,0.0
2306,0.2195773121735941,0.0
2307,-0.1304080281321571,0.0
2308,-0.1260212953587696,0.0
2309,-0.124512178868613,0.0
2310,-0.014054866616880003,0.0
2311,0.0047906531495130016,0.0
2312,-0.007684205549790782,0.0
2313,-0.019231540531717817,0.0
2314,-0.06273759906311015,0.0
2315,-0.0477552875605556,0.0
2316,0.03386046265394537,0.0
2317,1.3784084728925454,0.0
2318,6.782993601485615,0.0
2319,0.4400531108197746,0.0
2320,-1.3018162524012362,0.0
2321,0.9814935584878025,0.0
2322,-0.5183340758893336,0.0
2323,0.2083515393357049,0.0
2324,0.02666054347968918,0.0
2325,0.022341789312668687,0.0
2326,-0.10346699112694648,0.0
2327,-0.05604664089368043,0.0
2328,-0.00478425710747089,0.0
2329,0.012912308542501656,0.0
2330,-0.05777791323553603,0.0
2331,-0.043824194405511815,0.0
2332,-0.032805793751735944,0.0
2333,0.002252127635559577,0.0
2334,3.1060362452074166,0.0
2335,6.523435271524033,0.0
2336,-2.457606628498681,0.0
2337,0.790263746965581,0.0
2338,-0.25206966726973556,0.0
2339,-0.0359504877650675,0.0
2340,-0.025892894872645632,0.0
2341,0.06952541526513627,0.0
2342,0.026895289143366086,0.0
2343,-0.010163290556123897,0.0
2344,-0.03903800616006538,0.0
2345,-0.03981878335251305,0.0
2346,0.031436639957441566,0.0
2347,-0.017272338868793303,0.0
2348,-0.047109613224331076,0.0
2349,-0.052065202620393415,0.0
2350,0.34746908042637037,0.0
2351,5.263109688315388,0.0
2352,3.9994338739885484,0.0
2353,-2.8909325759155635,0.0
2354,1.5592113440695803,0.0
2355,-0.7899670244172874,0.0
2356,0.320693791647156,0.0
2357,-0.18316591089794537,0.0
2358,0.08403711774987319,0.0
2359,-0.012268645455371423,0.0
2360,0.03708637207692257,0.0
2361,0.08097774589062721,0.0
2362,-0.02230931262774628,0.0
2363,-0.0436683706561612,0.0
2364,0.07299714642372195,0.0
2365,0.058683032259608844,0.0
2366,-0.05055480576113796,0.0
2367,1.3244720111541495,0.0
2368,6.7535842253990666,0.0
2369,0.3774553752733111,0.0
2370,-1.3193510675524165,0.0
2371,0.8910118746281821,0.0
2372,-0.4546223035596178,0.0
2373,0.23384787252167277,0.0
2374,-0.12890683135703807,0.0
2375,-0.039813221866126805,0.0
2376,-0.010490368927009707,0.0
2377,-0.09417127718307412,0.0
2378,0.08739287102300795,0.0
2379,0.02492194470922896,0.0
2380,0.03744570285382345,0.0
2381,-0.006217566934591473,0.0
2382,0.12229550624615393,0.0
2383,0.11477565908969672,0.0
2384,3.1749714772724382,0.0
2385,6.465796035321952,0.0
2386,-2.461804195903835,0.0
2387,0.7929051918958278,0.0
2388,-0.23730989706662614,0.0
2389,0.040916324891609845,0.0
2390,0.0067944247691840085,0.0
2391,0.022445815551187256,0.0
2392,0.08052888227102416,0.0
2393,0.003017085078382756,0.0
2394,0.036333991244905106,0.0
2395,-0.05294627492751444,0.0
2396,0.01210607514289877,0.0
2397,0.02271287755492921,0.0
2398,0.029590686642091638,0.0
2399,-0.03951457879924181,0.0
2400,0.489835461390834,0.0
2401,5.243546053378815,0.0
2402,3.9923344504011427,0.0
2403,-2.8431020798703464,0.0
2404,1.59652397581291,0.0
2405,-0.7565927514520606,0.0
2406,0.30353081872123044,0.0
2407,-0.14175606117367523,0.0
2408,-0.06848382313735364,0.0
2409,-0.08214393429272525,0.0
2410,-0.04116956114983339,0.0
2411,-0.05345981908914665,0.0
2412,-0.04937331250762495,0.0
2413,-0.07810662585993117,0.0
2414,0.005095470780237289,0.0
2415,-0.05314775169207557,0.0
2416,0.007701347118454778,0.0
2417,1.3900084092468683,0.0
2418,6.78356750825874,0.0
2419,0.37941098171435805,0.0
2420,-1.4335403270182332,0.0
2421,1.0239888151955505,0.0
2422,-0.4881694871329029,0.0
2423,0.23158659382462254,0.0
2424,-0.03949510877155919,0.0
2425,0.012374606341446045,0.0
2426,0.078120425567313,0.0
2427,0.007994952408896408,0.0
2428,-0.005864732177460613,0.0
2429,0.0715233094101558,0.0
2430,0.05057898614970526,0.0
2431,-0.012060795593105005,0.0
2432,0.061296149612038615,0.0
2433,0.08098526400887171,0.0
2434,3.199175924563096,0.0
2435,6.50861000006171,0.0
2436,-2.5221853661069504,0.0
2437,0.7525998119603334,0.0
2438,-0.23275446883789208,0.0
2439,-0.008227888162323144,0.0
2440,0.001979533125771371,0.0
2441,0.06072548997189022,0.0
2442,0.024259732299633605,0.0
2443,-0.03279971415665629,0.0
2444,-0.040365429867252715,0.0
2445,-0.012344319047859143,0.0
2446,0.07818505545631885,0.0
2447,0.041155375481267055,0.0
2448,0.07433220024474656,0.0
2449,0.09870127248793287,0.0
2450,0.5212765850587626,0.0
2451,5.30301456843916,0.0
2452,4.028228735807043,0.0
2453,-2.78445306427564,0.0
2454,1.6655907855302234,0.0
2455,-0.6746599271112882,0.0
2456,0.42078849930511253,0.0
2457,-0.08760946574783515,0.0
2458,0.002020230722704991,0.0
2459,0.0014741168467567178,0.0
2460,0.057321139912485886,0.0
2461,0.13110596331951346,0.0
2462,0.04814360713466,0.0
2463,-0.06289983091134219,0.0
2464,-0.0817973891171069,0.0
2465,0.08060488600856844,0.0
2466,0.022090621254179526,0.0
2467,1.399066247437722,0.0
2468,6.834610636211838,0.0
2469,0.4063130957361477,0.0
2470,-1.2766213475873491,0.0
2471,0.8754337862692899,0.0
2472,-0.48377501400560585,0.0
2473,0.25145660044704377,0.0
2474,-0.17974150972325406,0.0
2475,-0.027107680562168772,0.0
2476,0.023352936892550427,0.0
2477,-0.04381161167188922,0.0
2478,-0.0843007938097448,0.0
2479,-0.009024876122926295,0.0
2480,-0.05011967630879072,0.0
2481,0.004247203848985984,0.0
2482,-0.051612947400665986,0.0
2483,-0.038985545225397454,0.0
2484,3.0294956414106644,0.0
2485,6.470834679182294,0.0
2486,-2.4526501046332267,0.0
2487,0.7182931448360178,0.0
2488,-0.12500789085928882,0.0
2489,-0.051399792487671514,0.0
2490,-0.0212198039746471,0.0
2491,0.03993110948960648,0.0
2492,-0.01253341310647127,0.0
2493,-0.021081778779981342,0.0
2494,0.030476964443047032,0.0
2495,-0.04016366993294168,0.0
2496,0.027966345529182438,0.0
2497,-0.0056092903155003735,0.0
2498,0.019145572803003393,0.0
2499,0.015767378967029934,0.0
2500,0.5165710220843815,0.0
2501,5.264325995522555,0.0
2502,3.9617324635378353,0.0
2503,-2.791929449640163,0.0
2504,1.5748079902566383,0.0
2505,-0.7529135426645572,0.0
2506,0.46269042988468023,0.0
2507,-0.04114662645844937,0.0
2508,0.07399542283196747,0.0
2509,0.004879267077022811,0.0
2510,-0.025866305186805428,0.0
2511,0.06292825249333656,0.0
2512,0.09929997088592013,0.0
2513,0.05470037599932031,0.0
2514,0.009474270242863809,0.0
2515,-0.022671952818807555,0.0
2516,0.035482485607373083,0.0
2517,1.4176170871081595,0.0
2518,6.888696052919184,0.0
2519,0.3943262082597592,0.0
2520,-1.2306933029246208,0.0
2521,0.8863134119808291,0.0
2522,-0.4379807172601749,0.0
2523,0.07776922816295322,0.0
2524,-0.15591354957759196,0.0
2525,-0.008345061779799373,0.0
2526,0.010640138666782047,0.0
2527,0.047407360358114756,0.0
2528,0.06237716302921319,0.0
2529,-0.004382846709864229,0.0
2530,-0.11611660905374789,0.0
2531,0.008081983790303487,0.0
2532,-0.03564377691612878,0.0
2533,0.12595006334430275,0.0
2534,3.1353265957356617,0.0
2535,6.491345549352372,0.0
2536,-2.392527597217508,0.0
2537,0.7989491130781374,0.0
2538,-0.19517192115226514,0.0
2539,0.14029464921366191,0.0
2540,0.06547994315447606,0.0
2541,0.06610305067792968,0.0
2542,0.05379847736247813,0.0
2543,0.03380388791930295,0.0
2544,0.12125387672873486,0.0
2545,0.07663776584957116,0.0
2546,0.11103232217638229,0.0
2547,0.0490449378609928,0.0
2548,0.038360774836968016,0.0
2549,0.002639531247582736,0.0
2550,0.522651883868331,0.0
2551,5.195846147983797,0.0
2552,3.9087084142509645,0.0
2553,-2.8304716050539005,0.0
2554,1.6115872433427993,0.0
2555,-0.8480473076450377,0.0
2556,0.37745637181530356,0.0
2557,-0.10674620200217395,0.0
2558,0.06345792407004472,0.0
2559,0.09392454244047346,0.0
2560,0.07936048925549903,0.0
2561,-0.03285360881985554,0.0
2562,-0.003954756237584359,0.0
2563,0.1668683808556335,0.0
2564,0.08349275103068086,0.0
2565,0.12129733357404743,0.0
2566,0.07951946466357682,0.0
2567,1.4127803199589906,0.0
2568,6.914407970539418,0.0
2569,0.33591094006046357,0.0
2570,-1.2592070651877727,0.0
2571,0.9627576224074863,0.0
2572,-0.4304109565886268,0.0
2573,0.18874870656114812,0.0
2574,-0.0770318777579366,0.0
2575,0.1129935501726601,0.0
2576,0.07532470274440728,0.0
2577,-0.10475744222980851,0.0
2578,0.0415270653800746,0.0
2579,0.08972144963585692,0.0
2580,-0.010964437842377557,0.0
2581,0.034480305474317616,0.0
2582,-0.014400597440033969,0.0
2583,0.10533085846171729,0.0
2584,3.1710733919174525,0.0
2585,6.4956336831335575,0.0
2586,-2.4817488746816547,0.0
2587,0.8014150655252553,0.0
2588,-0.25237255421991955,0.0
2589,-0.005575841143820079,0.0
2590,0.01051238777064337,0.0
2591,0.03940968837298343,0.0
2592,0.006821314904430047,0.0
2593,0.03380731807021957,0.0
2594,0.024595503895208412,0.0
2595,-0.037814173208994446,0.0
2596,-0.026101826669527217,0.0
2597,0.036453522854436926,0.0
2598,-0.010939615941794498,0.0
2599,-0.0466387321223005,0.0
2600,0.43449488076450277,0.0
2601,5.235827335056039,0.0
2602,3.981369421859881,0.0
2603,-2.7721087704994005,0.0
2604,1.610270259225119,0.0
2605,-0.7396779832465157,0.0
2606,0.3449003516753302,0.0
2607,0.018749687261693404,0.0
2608,0.07114839557416756,0.0
2609,-0.034301746868024056,0.0
2610,0.09500196193711598,0.0
2611,0.05280249380951271,0.0
2612,0.04786863572773093,0.0
2613,0.053574691134326044,0.0
2614,0.025397727369688476,0.0
2615,0.009725038546278503,0.0
2616,0.011887772402363064,0.0
2617,1.4404440149606157,0.0
2618,6.921644335952287,0.0
2619,0.3683086474913388,0.0
2620,-1.2813469342242914,0.0
2621,0.9371433234856665,0.0
2622,-0.5763294804855378,0.0
2623,0.2391589411147548,0.0
2624,-0.02610385220989301,0.0
2625,0.05039160644966274,0.0
2626,0.019518449536481807,0.0
2627,0.08277673769886072,0.0
2628,0.04110368169191875,0.0
2629,0.028814041157134443,0.0
2630,-0.051244331956019004,0.0
2631,-0.02116517570893402,0.0
2632,-0.025195074558295158,0.0
2633,0.06209915211572971,0.0
2634,3.23181652118972,0.0
2635,6.504020810211063,0.0
2636,-2.448221291959247,0.0
2637,0.8990097064885683,0.0
2638,-0.17971209102051078,0.0
2639,0.16267683377511777,0.0
2640,0.09332893510130935,0.0
2641,0.10747267633417396,0.0
2642,0.07276717559933658,0.0
2643,0.11858718420983816,0.0
2644,0.047377635129759614,0.0
2645,0.16990354445824307,0.0
2646,0.0002399222025208994,0.0
2647,0.151202585399001,0.0
2648,-0.01508445576427591,0.0
2649,0.010001289688758824,0.0
2650,0.47164310057891384,0.0
2651,5.345326600429089,0.0
2652,3.918363358006409,0.0
2653,-2.8330538288410545,0.0
2654,1.686206235446521,0.0
2655,-0.7033676118120482,0.0
2656,0.2796062039308605,0.0
2657,-0.12998364447650873,0.0
2658,0.040816375983874796,0.0
2659,0.014043696397676636,0.0
2660,0.0446660768153339,0.0
2661,0.015395111159916807,0.0
2662,0.018191502573333185,0.0
2663,-0.07164766593223229,0.0
2664,0.02265900818531088,0.0
2665,0.14858425998045416,0.0
2666,0.060396904395953466,0.0
2667,1.403937100463017,0.0
2668,6.842565238641076,0.0
2669,0.2939876202307524,0.0
2670,-1.2260321437444217,0.0
2671,0.8941463978046311,0.0
2672,-0.47465125013379905,0.0
2673,0.2186578452128899,0.0
2674,-0.03511427970822257,0.0
2675,-0.025006523291989165,0.0
2676,-0.02737259855832644,0.0
2677,-0.07086227211213289,0.0
2678,0.038519908048355034,0.0
2679,0.07727242308802267,0.0
2680,0.02931620317440705,0.0
2681,0.025314314796670845,0.0
2682,-0.08065303051344148,0.0
2683,0.04465246313675224,0.0
2684,3.177010524931382,0.0
2685,6.477797469646506,0.0
2686,-2.5568828723335675,0.0
2687,0.8218984145353233,0.0
2688,-0.22521730337129311,0.0
2689,0.038852396757411645,0.0
2690,-0.04059527564858124,0.0
2691,0.0855686058027497,0.0
2692,-0.002245607127758796,0.0
2693,0.08725699167481837,0.0
2694,0.0005950579117562408,0.0
2695,0.051754119031600494,0.0
2696,-0.05350997917973133,0.0
2697,0.028593473363558823,0.0
2698,-0.04462302903381864,0.0
2699,0.019417548126647272,0.0
2700,0.5123811126073436,0.0
2701,5.264487741979412,0.0
2702,3.9179251374258848,0.0
2703,-2.840120218082949,0.0
2704,1.530284043289771,0.0
2705,-0.7251235768422568,0.0
2706,0.4079631696387682,0.0
2707,-0.05531932492328306,0.0
2708,0.04089284598768586,0.0
2709,0.0806799966044945,0.0
2710,0.05973259043957824,0.0
2711,-0.020733738218244528,0.0
2712,-0.020151840776367762,0.0
2713,-0.02682306291215024,0.0
2714,-0.023023170585847484,0.0
2715,0.018512347615139858,0.0
2716,-0.07867335154845889,0.0
2717,1.3827699414123646,0.0
2718,6.767346272766732,0.0
2719,0.16815948418741616,0.0
2720,-1.3396080473681624,0.0
2721,0.9198101097982776,0.0
2722,-0.4636681625737519,0.0
2723,0.1473828141974542,0.0
2724,-0.13616987362935093,0.0
2725,-0.07136060536517308,0.0
2726,-0.054016267109263466,0.0
2727,0.01991286995308231,0.0
2728,-0.09380900672101343,0.0
2729,0.001366327380335432,0.0
2730,-0.05120898442284213,0.0
2731,0.04706679564723548,0.0
2732,0.015869424954700423,0.0
2733,0.08777636745979667,0.0
2734,3.195308565193298,0.0
2735,6.451626621585911,0.0
2736,-2.5612721164110286,0.0
2737,0.8622865090494417,0.0
2738,-0.09816764198466765,0.0
2739,0.12050931695863709,0.0
2740,-0.1178492081897882,0.0
2741,0.021023169658345837,0.0
2742,0.11065510473810435,0.0
2743,-0.10190059892687943,0.0
2744,0.03302628191094393,0.0
2745,-0.037044772205735876,0.0
2746,-0.045299206250233356,0.0
2747,0.05044408803758028,0.0
2748,-0.003637680167816912,0.0
2749,0.08140398867939799,0.0
2750,0.44329309176591614,0.0
2751,5.261898673777236,0.0
2752,3.816728196406427,0.0
2753,-2.8745686453866326,0.0
2754,1.6037611623022514,0.0
2755,-0.7320194016167504,0.0
2756,0.3759902072291509,0.0
2757,-0.13270369053839626,0.0
2758,0.06690296889167542,0.0
2759,-0.0781309687004155,0.0
2760,0.02067431132772633,0.0
2761,0.026855898887502862,0.0
2762,0.07238491398539688,0.0
2763,0.0026546088678665123,0.0
2764,-0.02696447859964289,0.0
2765,0.03331189152813889,0.0
2766,0.0008738816278684274,0.0
2767,1.37933157117693,0.0
2768,6.915963157118956,0.0
2769,0.1395395078394037,0.0
2770,-1.2455825299995913,0.0
2771,0.8819730561089995,0.0
2772,-0.5509825851149391,0.0
2773,0.09484659995784309,0.0
2774,-0.07609972916765412,0.0
2775,0.002118860166370142,0.0
2776,0.0037520111756372335,0.0
2777,0.00169637023858063,0.0
2778,-0.046456310278582005,0.0
2779,-0.04498837263311863,0.0
2780,-0.03020584926922712,0.0
2781,-0.04579682538399716,0.0
2782,-0.052074504027577455,0.0
2783,-0.0362608647880171,0.0
2784,3.1632283552540112,0.0
2785,6.395559023362394,0.0
2786,-2.6055040294944254,0.0
2787,0.862550532079537,0.0
2788,-0.32649862767708004,0.0
2789,0.046255874443298026,0.0
2790,-0.0708990578405486,0.0
2791,-0.03928441888379622,0.0
2792,-0.10471575744352715,0.0
2793,-0.14228016603284596,0.0
2794,-0.12711545834895194,0.0
2795,-0.04211619731802331,0.0
2796,-0.05673322263654465,0.0
2797,0.034240618315416985,0.0
2798,-0.009732126037271107,0.0
2799,-0.07205124684033412,0.0
2800,0.47475613796263416,0.0
2801,5.259744085361322,0.0
2802,3.83387423724638,0.0
2803,-2.8546173346422536,0.0
2804,1.6577864169429668,0.0
2805,-0.7740111969706293,0.0
2806,0.22891563758480554,0.0
2807,-0.13210112000841062,0.0
2808,0.13655897035501424,0.0
2809,0.023957037276999976,0.0
2810,-0.04751496388094644,0.0
2811,-0.05982026047654968,0.0
2812,0.043329280285727495,0.0
2813,-0.0282248527453681,0.0
2814,0.07582892183386489,0.0
2815,-0.008337703264006928,0.0
2816,-0.08360224724617175,0.0
2817,1.480939353717058,0.0
2818,6.798205004941309,0.0
2819,0.1148495858743794,0.0
2820,-1.2051661704865264,0.0
2821,0.743098456964298,0.0
2822,-0.48371554309730674,0.0
2823,0.19547071567042335,0.0
2824,-0.0243219569472179,0.0
2825,0.016857891340380682,0.0
2826,-0.05441433628175785,0.0
2827,0.07914957739856715,0.0
2828,-0.06074996150024443,0.0
2829,-0.0434983188249098,0.0
2830,-0.034044706923670634,0.0
2831,-0.006066443205853156,0.0
2832,-0.015810750354985845,0.0
2833,0.08140519297242739,0.0
2834,3.1877583392697075,0.0
2835,6.37678023450505,0.0
2836,-2.589480848701517,0.0
2837,0.8643723848180725,0.0
2838,-0.20155719738830355,0.0
2839,0.13538518128834193,0.0
2840,-0.06454171253566485,0.0
2841,0.10496506898748127,0.0
2842,0.023229472475536785,0.0
2843,0.0893968639046387,0.0
2844,0.061722903592331346,0.0
2845,-0.01263963864501712,0.0
2846,-0.02185755253052218,0.0
2847,-0.04673577152628785,0.0
2848,0.030554324718084214,0.0
2849,-0.03174885854883953,0.0
2850,0.4950420542928436,0.0
2851,5.405918411774602,0.0
2852,3.787782277576987,0.0
2853,-2.775002893202969,0.0
2854,1.555167837031156,0.0
2855,-0.8161846132988582,0.0
2856,0.37028423966576685,0.0
2857,0.0026295894092828037,0.0
2858,0.08250593143185297,0.0
2859,-0.10520379335791018,0.0
2860,0.01604850263248673,0.0
2861,-0.02977462935936735,0.0
2862,0.102263759085743,0.0
2863,0.05810979189410016,0.0
2864,0.04644954485630839,0.0
2865,0.1258805005373392,0.0
2866,0.0387170320743586,0.0
2867,1.474872063754213,0.0
2868,6.887715248688579,0.0
2869,0.23183238727052238,0.0
2870,-1.1209092696961276,0.0
2871,0.8762714375293106,0.0
2872,-0.3879665900984497,0.0
2873,0.23179499616084223,0.0
2874,0.028939413402227714,0.0
2875,0.06936423337744008,0.0
2876,-0.03138127027946865,0.0
2877,0.097531912349399,0.0
2878,0.022938253252301255,0.0
2879,-0.13009669907572674,0.0
2880,-0.01861867576799454,0.0
2881,0.04186376731918817,0.0
2882,0.0931430722021796,0.0
2883,0.061237488136105744,0.0
2884,3.292248066293383,0.0
2885,6.408321605741213,0.0
2886,-2.641985155827518,0.0
2887,0.8594173974280569,0.0
2888,-0.13715013216967445,0.0
2889,0.054381371692883006,0.0
2890,-0.05840283288397738,0.0
2891,0.012349039687063785,0.0
2892,-0.09091338388380947,0.0
2893,-0.10883069850229736,0.0
2894,0.041621343895444515,0.0
2895,0.06157624784281685,0.0
2896,0.06775195267194675,0.0
2897,-0.003031573460797087,0.0
2898,0.0075648483210806125,0.0
2899,0.01330065966555827,0.0
2900,0.5126234336655706,0.0
2901,5.452602836954167,0.0
2902,3.7857350779708616,0.0
2903,-2.8066041403194304,0.0
2904,1.5836378476714985,0.0
2905,-0.7589308442963137,0.0
2906,0.3747478950084479,0.0
2907,-0.03373338431838782,0.0
2908,0.09121760095810377,0.0
2909,0.02122330961617219,0.0
2910,-0.0895231631778488,0.0
2911,-0.07260992009251381,0.0
2912,-0.03674036893026009,0.0
2913,0.03768959567047753,0.0
2914,-0.07318887513134194,0.0
2915,-0.00459089708372447,0.0
2916,0.030488212307717054,0.0
2917,1.4729063212566706,0.0
2918,6.747338454298812,0.0
2919,0.14893522018405156,0.0
2920,-1.2009119088548197,0.0
2921,0.8485425429863976,0.0
2922,-0.3658262099245967,0.0
2923,0.06516176582607285,0.0
2924,-0.041951883370332094,0.0
2925,-0.05490712256603197,0.0
2926,-0.007720572061325329,0.0
2927,0.07976326466607479,0.0
2928,0.01482379071346557,0.0
2929,-0.025484941448738314,0.0
2930,0.03122714595786112,0.0
2931,-0.03375515675298132,0.0
2932,-0.028802494168417916,0.0
2933,0.13491076512526703,0.0
2934,3.3546373859757077,0.0
2935,6.44468680974747,0.0
2936,-2.5257471540734695,0.0
2937,0.9399881509925286,0.0
2938,-0.16978603077172308,0.0
2939,0.08153025619071376,0.0
2940,-0.052958352362933794,0.0
2941,0.017071670599717058,0.0
2942,-0.008804081246704823,0.0
2943,-0.00800471838427049,0.0
2944,-0.06983995675930035,0.0
2945,-0.0625648411324028,0.0
2946,-0.006810597024182324,0.0
2947,-0.05236289960707465,0.0
2948,-0.01125502048056404,0.0
2949,0.03787461687693139,0.0
2950,0.43821378601235833,0.0
2951,5.352780819100576,0.0
2952,3.788816846513064,0.0
2953,-2.902495940475457,0.0
2954,1.525652578376191,0.0
2955,-0.7622531855984798,0.0
2956,0.2769717774047019,0.0
2957,-0.17096366981442127,0.0
2958,-0.0051414056233330275,0.0
2959,0.02750551856829793,0.0
2960,-0.01570716666777788,0.0
2961,-0.05427742319883984,0.0
2962,-0.07688915389181711,0.0
2963,-0.053673278046018444,0.0
2964,-0.07171938473592814,0.0
2965,-0.040222079807802125,0.0
2966,-0.030563162971773097,0.0
2967,1.4781107063866674,0.0
2968,6.97674476268706,0.0
2969,0.11432372915292814,0.0
2970,-1.0538087943412142,0.0
2971,0.9631600556235319,0.0
2972,-0.37192683529208903,0.0
2973,0.3483221482311508,0.0
2974,-0.05568516610130863,0.0
2975,0.08759465501758473,0.0
2976,0.0771287204103342,0.0
2977,-0.10306474760311654,0.0
2978,0.07644555163342329,0.0
2979,0.047547223330062054,0.0
2980,0.045797871196904254,0.0
2981,-0.0463207399683621,0.0
2982,0.06914430040866813,0.0
2983,0.1149023786814688,0.0
2984,3.3227548881639932,0.0
2985,6.352503667297596,0.0
2986,-2.5735534451067497,0.0
2987,0.870848183139303,0.0
2988,-0.28565030193919116,0.0
2989,0.16367155049096294,0.0
2990,0.04268906620045434,0.0
2991,0.11080779484336954,0.0
2992,0.031062470923610773,0.0
2993,0.17298654429991206,0.0
2994,0.056745816689197294,0.0
2995,-0.03195058264230994,0.0
2996,0.06241036460997466,0.0
2997,0.016527659955528524,0.0
2998,0.11542335199877082,0.0
2999,-0.050942288494032685,0.0
3000,0.5171881794377806,0.0
3001,5.483941157980861,0.0
3002,3.7730726887548007,0.0
3003,-2.753414796716683,0.0
3004,1.6038526753839093,0.0
3005,-0.7985754330391482,0.0
3006,0.2807440814334974,0.0
3007,-0.0709086618144432,0.0
3008,-0.05336710166629163,0.0
3009,0.0765824784523052,0.0
3010,0.11775041108115016,0.0
3011,-0.02156600735538559,0.0
3012,0.039273255101629434,0.0
3013,-0.01580934231199022,0.0
3014,-0.026704127079863825,0.0
3015,-0.018996250577476483,0.0
3016,-0.07726757901989777,0.0
3017,1.5604141405314034,0.0
3018,6.899466884857913,0.0
3019,0.037270771632791716,0.0
3020,-1.1239110445433027,0.0
3021,0.8694189157400559,0.0
3022,-0.4805390673187294,0.0
3023,0.19861424557653973,0.0
3024,0.08271914131392473,0.0
3025,0.04003513020921019,0.0
3026,0.09438995706060416,0.0
3027,0.04650861372969296,0.0
3028,0.03232966622022045,0.0
3029,0.06572777864833275,0.0
3030,0.07189156772895908,0.0
3031,-0.009884477506339993,0.0
3032,0.011771872121950364,0.0
3033,0.18328314894880007,0.0
3034,3.271792118273863,0.0
3035,6.356568929297091,0.0
3036,-2.6362042547258984,0.0
3037,0.8972887477762452,0.0
3038,-0.26960250675662695,0.0
3039,0.08479774669045123,0.0
3040,-0.2063108637536893,0.0
3041,0.019637992923951998,0.0
3042,-0.026239447527651956,0.0
3043,-0.02754939461449692,0.0
3044,-0.06999486613700462,0.0
3045,-0.016747979100764185,0.0
3046,0.02747583818058006,0.0
3047,-0.009914862791315102,0.0
3048,0.005168003777523077,0.0
3049,-0.017749539625747657,0.0
3050,0.48764262698347605,0.0
3051,5.417412390762424,0.0
3052,3.731643893915338,0.0
3053,-2.8170770045311397,0.0
3054,1.6560299575059798,0.0
3055,-0.7132440704331334,0.0
3056,0.2723249282649472,0.0
3057,-0.08117344884406627,0.0
3058,-0.00629342647297116,0.0
3059,-0.02637340170118175,0.0
3060,0.03879227884864876,0.0
3061,-0.028314499759787476,0.0
3062,-0.043041093600404645,0.0
3063,0.016519689410243253,0.0
3064,-0.06411779887334763,0.0
3065,0.025431189798066117,0.0
3066,-0.05054719082101275,0.0
3067,1.4957435741132177,0.0
3068,6.799404653391186,0.0
3069,0.08616103052203905,0.0
3070,-1.1388379776175745,0.0
3071,0.9040037903729928,0.0
3072,-0.3876055875392325,0.0
3073,0.21595738826150365,0.0
3074,0.052796368458267795,0.0
3075,0.10268033331330605,0.0
3076,-0.009595550345838949,0.0
3077,0.042935754081455016,0.0
3078,-0.0287188403765353,0.0
3079,0.05270284016088947,0.0
3080,-0.006659337732178028,0.0
3081,-0.004229946906405158,0.0
3082,0.061201939175856104,0.0
3083,0.101691396886537,0.0
3084,3.4066685154345206,0.0
3085,6.448255320342511,0.0
3086,-2.6038320318396275,0.0
3087,1.0132369285268477,0.0
3088,-0.2942925852912378,0.0
3089,0.07586296821844268,0.0
3090,-0.08742897524561022,0.0
3091,0.08214111943211602,0.0
3092,0.04777052147513158,0.0
3093,-0.07530795004738276,0.0
3094,0.02532004814647287,0.0
3095,-0.03251708325692323,0.0
3096,0.019827381916136887,0.0
3097,0.037188832945907274,0.0
3098,0.03791855304988657,0.0
3099,0.009492463462140919,0.0
3100,0.43625207290341117,0.0
3101,5.421849600394814,0.0
3102,3.6968547688275133,0.0
3103,-2.8392530136950938,0.0
3104,1.6748788227985014,0.0
3105,-0.7467856524139186,0.0
3106,0.288749447967521,0.0
3107,-0.09789200816518728,0.0
3108,0.021924952467642457,0.0
3109,0.10411326455198716,0.0
3110,0.08231475159002441,0.0
3111,0.028324964877498873,0.0
3112,0.10243300314866186,0.0
3113,0.06233518612657907,0.0
3114,-0.009866782970727905,0.0
3115,0.0821155213553332,0.0
3116,0.05207942511956662,0.0
3117,1.55006468983639,0.0
3118,6.919632574723464,0.0
3119,0.0432614151549312,0.0
3120,-1.1136957720902332,0.0
3121,0.8830327773148141,0.0
3122,-0.46408032674032457,0.0
3123,0.20634677736162202,0.0
3124,-0.08832782367990813,0.0
3125,-0.027435037968880124,0.0
3126,0.018862475509504692,0.0
3127,0.13717733609981347,0.0
3128,0.017800777222644677,0.0
3129,-0.017070515167203225,0.0
3130,0.026162788326662474,0.0
3131,0.028850766970212348,0.0
3132,0.007737713647324361,0.0
3133,0.1368675647272547,0.0
3134,3.346155355435249,0.0
3135,6.37406844654616,0.0
3136,-2.66882858514008,0.0
3137,1.025219424189938,0.0
3138,-0.2956812391345503,0.0
3139,0.15089304884466628,0.0
3140,-0.027489957333866423,0.0
3141,0.07015654032475398,0.0
3142,0.047565398823994735,0.0
3143,0.045691246922768866,0.0
3144,0.05591945635147349,0.0
3145,0.12117294547581473,0.0
3146,0.07469585579046167,0.0
3147,0.10516492725304619,0.0
3148,0.12956786922742422,0.0
3149,0.03834218657221474,0.0
3150,0.5666625604945427,0.0
3151,5.542593252565599,0.0
3152,3.773214726334087,0.0
3153,-2.781847706219423,0.0
3154,1.5551178035803859,0.0
3155,-0.7779694246720323,0.0
3156,0.358992297303264,0.0
3157,-0.09739334566297825,0.0
3158,0.13506512755360148,0.0
3159,-0.05404711713944124,0.0
3160,0.09276009006849054,0.0
3161,-0.024240816505439293,0.0
3162,0.046122938453185505,0.0
3163,-0.045760572064113166,0.0
3164,0.07219029734745738,0.0
3165,-0.027498389034744403,0.0
3166,0.008132411752419993,0.0
3167,1.527476469366925,0.0
3168,6.899000406404552,0.0
3169,0.06205683885570476,0.0
3170,-1.0727575232941733,0.0
3171,0.7678209053893448,0.0
3172,-0.42650746218130553,0.0
3173,0.2186259970336637,0.0
3174,-0.025507925979160746,0.0
3175,0.0733012305380712,0.0
3176,0.021114127810643733,0.0
3177,0.004062824192112836,0.0
3178,0.08349990047165845,0.0
3179,0.10930855118318202,0.0
3180,0.059873150707472796,0.0
3181,-0.003046724456811055,0.0
3182,0.13320163956379588,0.0
3183,0.26423396181092135,0.0
3184,3.3397482015885873,0.0
3185,6.435704603398397,0.0
3186,-2.597915288499643,0.0
3187,1.0461073967610488,0.0
3188,-0.14869926082259521,0.0
3189,0.21315595020577138,0.0
3190,0.0359775424433272,0.0
3191,0.13790938587476714,0.0
3192,0.09848998055001808,0.0
3193,0.07207454305498907,0.0
3194,0.11949547428946675,0.0
3195,0.025706202486617417,0.0
3196,0.013493967094725001,0.0
3197,0.05915491533468435,0.0
3198,0.055104847115428346,0.0
3199,0.1199458229070388,0.0
3200,0.4715834504105243,0.0
3201,5.572503688719057,0.0
3202,3.791012910935908,0.0
3203,-2.6708054697727146,0.0
3204,1.5576677735976632,0.0
3205,-0.7110186488233352,0.0
3206,0.415882775433808,0.0
3207,0.031846793622426914,0.0
3208,0.0690541254504974,0.0
3209,0.07269343890350446,0.0
3210,0.10958352579878751,0.0
3211,0.0846620235695009,0.0
3212,0.16628364922809954,0.0
3213,0.07447805206482162,0.0
3214,0.15611676438421562,0.0
3215,0.15072025393154775,0.0
3216,0.043722898926729904,0.0
3217,1.60160294824654,0.0
3218,6.939346502191374,0.0
3219,0.011025697091366984,0.0
3220,-1.059351445630144,0.0
3221,0.8709089105963759,0.0
3222,-0.32333028573247774,0.0
3223,0.21561685701411945,0.0
3224,0.012262100143412884,0.0
3225,0.11272372601157027,0.0
3226,0.058291558028777446,0.0
3227,0.055539001450042536,0.0
3228,0.06714779164628999,0.0
3229,-0.01851077483988916,0.0
3230,0.13581782353033536,0.0
3231,0.10146651084920956,0.0
3232,0.06309408284722608,0.0
3233,0.10145820885734742,0.0
3234,3.3868512871574756,0.0
3235,6.323373579172518,0.0
3236,-2.6811303454640765,0.0
3237,1.01367968292114,0.0
3238,-0.2501624499094594,0.0
3239,0.1258577632376564,0.0
3240,-0.035885375796159955,0.0
3241,-0.014781376511556463,0.0
3242,-0.026566762766540377,0.0
3243,-0.03217932557671604,0.0
3244,-0.030235183712749938,0.0
3245,0.011309837539944717,0.0
3246,-0.060688756321340215,0.0
3247,0.05106410573621731,0.0
3248,0.009231206294400305,0.0
3249,-0.014375786134375155,0.0
3250,0.5073081983858471,0.0
3251,5.501918408541363,0.0
3252,3.6860546531665723,0.0
3253,-2.6726135058404052,0.0
3254,1.6186834338735974,0.0
3255,-0.843237695579624,0.0
3256,0.3258684911204271,0.0
3257,-0.09248016535227799,0.0
3258,-0.011953221607325835,0.0
3259,-0.0763752048857469,0.0
3260,0.05478673511477153,0.0
3261,-0.01940565792331017,0.0
3262,0.03683128705896858,0.0
3263,0.008192019368663282,0.0
3264,0.011744849304299754,0.0
3265,0.0008462841837052135,0.0
3266,0.1002811736790575,0.0
3267,1.5353925529282555,0.0
3268,6.905256072817407,0.0
3269,0.02466737249301611,0.0
3270,-0.9482428329235298,0.0
3271,0.9084589492850843,0.0
3272,-0.2963575558160942,0.0
3273,0.2647146169963418,0.0
3274,0.004923719466288293,0.0
3275,0.10295317694380847,0.0
3276,0.06833749235253544,0.0
3277,-0.022886088948059297,0.0
3278,0.06379880026129872,0.0
3279,0.11700036301333155,0.0
3280,0.019074559059266666,0.0
3281,0.10878180861782005,0.0
3282,-0.03678371200604051,0.0
3283,0.19963943109365395,0.0
3284,3.412776118089188,0.0
3285,6.365186384861923,0.0
3286,-2.601980913420017,0.0
3287,0.9608829962295805,0.0
3288,-0.3165831459536078,0.0
3289,0.07028183439223468,0.0
3290,-0.012347017918237738,0.0
3291,-0.10923751558017535,0.0
3292,0.0070754328586059324,0.0
3293,0.06264337308300896,0.0
3294,-0.0664224019596485,0.0
3295,0.0392894205977392,0.0
3296,0.007467829123211632,0.0
3297,0.097434516538274,0.0
3298,-0.003987309548248663,0.0
3299,0.14924564613084296,0.0
3300,0.5557222995560789,0.0
3301,5.467816925918228,0.0
3302,3.7022550286314795,0.0
3303,-2.6367707285826425,0.0
3304,1.598297555619727,0.0
3305,-0.7275470536057723,0.0
3306,0.3040526541839458,0.0
3307,-0.05878399196591447,0.0
3308,0.08273226090713794,0.0
3309,0.036457759865965646,0.0
3310,0.09942037331012997,0.0
3311,0.08880559466807024,0.0
3312,0.05031027523381672,0.0
3313,-0.014733407569545186,0.0
3314,0.012919526312988247,0.0
3315,0.1243020129429662,0.0
3316,0.07889087811791455,0.0
3317,1.5883652924677052,0.0
3318,6.876343270183818,0.0
3319,-0.0547382871263757,0.0
3320,-1.0326143918800168,0.0
3321,0.8165602279520993,0.0
3322,-0.3388804678218033,0.0
3323,0.09306514488513762,0.0
3324,-0.003457905307954312,0.0
3325,-0.011383844398056526,0.0
3326,-0.013866025583660353,0.0
3327,0.03293666954659842,0.0
3328,-0.06430500488557594,0.0
3329,0.14518991189895059,0.0
3330,0.03781182019941577,0.0
3331,0.07024374376793992,0.0
3332,0.03646355757540805,0.0
3333,0.09510622548827474,0.0
3334,3.366580216109055,0.0
3335,6.301227474104699,0.0
3336,-2.6648289874058895,0.0
3337,1.0403019975854033,0.0
3338,-0.34255127919771794,0.0
3339,0.1963936042381489,0.0
3340,-0.05421065770774128,0.0
3341,0.056217625227555454,0.0
3342,-0.03058977100262254,0.0
3343,0.09254632035145312,0.0
3344,-0.01564572599383697,0.0
3345,0.03778273572605434,0.0
3346,0.004289211494577598,0.0
3347,0.02404435239027095,0.0
3348,-0.07788138289625458,0.0
3349,-0.016181146284521136,0.0
3350,0.5719034476552436,0.0
3351,5.4720689558903555,0.0
3352,3.575088522966885,0.0
3353,-2.746366565259892,0.0
3354,1.5732108228340826,0.0
3355,-0.7764639883086517,0.0
3356,0.34178571873397895,0.0
3357,-0.24184614431086657,0.0
3358,0.0900639853516434,0.0
3359,-0.0006736818390520594,0.0
3360,0.0037479955616854105,0.0
3361,0.08413262285391895,0.0
3362,-0.06103261588096251,0.0
3363,-0.014461131351413251,0.0
3364,-0.0460593229538803,0.0
3365,-0.05551327332574441,0.0
3366,-0.0741626698411636,0.0
3367,1.569531882197504,0.0
3368,6.827124980310265,0.0
3369,-0.05575864703975485,0.0
3370,-1.0457237720034913,0.0
3371,0.680103718106425,0.0
3372,-0.5478326089097884,0.0
3373,0.11788366082876497,0.0
3374,-0.046099925315667714,0.0
3375,-0.06774423874815934,0.0
3376,-0.002340301767302669,0.0
3377,0.06012752620166501,0.0
3378,-0.0709660679116868,0.0
3379,0.031585741441873344,0.0
3380,-0.06972727384977193,0.0
3381,-0.04415629674875763,0.0
3382,-0.040888437140131406,0.0
3383,0.036363952492467294,0.0
3384,3.2906234493691464,0.0
3385,6.245712961211612,0.0
3386,-2.666488561805039,0.0
3387,0.9136706191858052,0.0
3388,-0.32195727468996854,0.0
3389,0.08574688071273699,0.0
3390,-0.09461055463975132,0.0
3391,-0.07992565222709933,0.0
3392,-0.039523993060954214,0.0
3393,-0.011676919776298141,0.0
3394,-0.06025695200288477,0.0
3395,-0.05070533445110432,0.0
3396,-0.08652924662578351,0.0
3397,-0.06977004583291699,0.0
3398,-0.04803522520641407,0.0
3399,-0.13853135376863301,0.0
3400,0.4400563895085925,0.0
3401,5.41361329507394,0.0
3402,3.5510227532034397,0.0
3403,-2.884677394412195,0.0
3404,1.4877239989568023,0.0
3405,-0.7862977174929692,0.0
3406,0.3182589233186638,0.0
3407,-0.07550887783976608,0.0
3408,0.026348017588037884,0.0
3409,-0.10112309098616545,0.0
3410,-0.09661572960713473,0.0
3411,-0.07478426887089071,0.0
3412,-0.030212928197893153,0.0
3413,-0.11775523672289842,0.0
3414,-0.0998469658061163,0.0
3415,0.021985000570325215,0.0
3416,0.051998911693041064,0.0
3417,1.616208796402955,0.0
3418,6.903404439701091,0.0
3419,-0.1661291350566551,0.0
3420,-1.1173718438197335,0.0
3421,0.7953668296678952,0.0
3422,-0.35789588928584604,0.0
3423,0.13384439450177238,0.0
3424,0.004169505453481062,0.0
3425,-0.007896536757932799,0.0
3426,-0.05971910088482838,0.0
3427,-0.03393008798819838,0.0
3428,-0.004288964662859732,0.0
3429,0.028498617010625983,0.0
3430,-0.05437909265988235,0.0
3431,-0.05583694352725617,0.0
3432,7.751000942191055e-05,0.0
3433,0.05547174413950395,0.0
3434,3.3454976486232373,0.0
3435,6.196364991548117,0.0
3436,-2.806587054775982,0.0
3437,0.867317458490049,0.0
3438,-0.32853108231712047,0.0
3439,0.0059515794793639845,0.0
3440,-0.08147070249925316,0.0
3441,-0.04738146719475352,0.0
3442,-0.056909665356545666,0.0
3443,-0.06566901203705819,0.0
3444,0.00200403517877544,0.0
3445,0.08282725775860575,0.0
3446,-0.03269220152044812,0.0
3447,-0.04302668898175989,0.0
3448,-0.08507976038521778,0.0
3449,-0.08618651814513212,0.0
3450,0.5130905204495321,0.0
3451,5.425737667336657,0.0
3452,3.489992940852175,0.0
3453,-2.9038303780249306,0.0
3454,1.5448177072739597,0.0
3455,-0.934296549433795,0.0
3456,0.26855220422227,0.0
3457,-0.22128286027136618,0.0
3458,-0.09999602000459364,0.0
3459,-0.1801002168930751,0.0
3460,-0.1085478933252913,0.0
3461,-0.07943643599446637,0.0
3462,-0.10818903991699663,0.0
3463,-0.09813250874782059,0.0
3464,-0.11286661144343078,0.0
3465,-0.022868833562068855,0.0
3466,-0.018179342054306838,0.0
3467,1.512530681156414,0.0
3468,6.766339144486676,0.0
3469,-0.2821382072327471,0.0
3470,-1.1490044460755484,0.0
3471,0.7917816692513063,0.0
3472,-0.48364549870259815,0.0
3473,0.12028356233255005,0.0
3474,-0.04729194046749973,0.0
3475,-0.0021862654353922827,0.0
3476,-0.0961450091838581,0.0
3477,-0.012354714992586587,0.0
3478,0.050348885358242335,0.0
3479,-0.11216298619943002,0.0
3480,-0.040360190809651655,0.0
3481,-0.02833405463967208,0.0
3482,-0.06326213574225426,0.0
3483,0.10892934355190292,0.0
3484,3.4640373763661576,0.0
3485,6.283250320179901,0.0
3486,-2.728171064546806,0.0
3487,1.0505902919061592,0.0
3488,-0.33072750436413995,0.0
3489,0.051913343139125594,0.0
3490,-0.10222667775867335,0.0
3491,0.005995370750785711,0.0
3492,-0.06411469780706433,0.0
3493,-0.040706071623236834,0.0
3494,-0.055502172946625496,0.0
3495,-0.04976429024300977,0.0
3496,-0.12077600054557901,0.0
3497,-0.07049791442250873,0.0
3498,-0.17867324125905298,0.0
3499,-0.07495108669394882,0.0
3500,0.4537863022569988,0.0
3501,5.560561507118504,0.0
3502,3.453816618814704,0.0
3503,-2.7806171647022464,0.0
3504,1.5141238044882113,0.0
3505,-0.8369494221214626,0.0
3506,0.345639787374777,0.0
3507,-0.22041098711344942,0.0
3508,0.00021594730955954572,0.0
3509,-0.09781668055952646,0.0
3510,-0.12043327726342822,0.0
3511,-0.023642870194109458,0.0
3512,-0.040364219078649385,0.0
3513,0.02899808882358152,0.0
3514,-0.08557401256485989,0.0
3515,-0.10225803870999264,0.0
3516,-0.07218906749014765,0.0
3517,1.5600185330674745,0.0
3518,6.932845281977532,0.0
3519,-0.14834401933058658,0.0
3520,-1.0233584083243192,0.0
3521,0.6964828181984074,0.0
3522,-0.4171855965486614,0.0
3523,0.262680112211131,0.0
3524,-0.07661123566422487,0.0
3525,-0.05137222659589904,0.0
3526,-0.04190455793170897,0.0
3527,-0.049739805858336414,0.0
3528,0.006986737966381433,0.0
3529,-0.036114246583065626,0.0
3530,-0.1328246609086348,0.0
3531,-0.07845584920438366,0.0
3532,-0.047346770701285575,0.0
3533,0.012116158292403905,0.0
3534,3.4165980889934215,0.0
3535,6.199504075374018,0.0
3536,-2.8062703898362114,0.0
3537,0.9412323883665586,0.0
3538,-0.4371526446959171,0.0
3539,0.08914602276528637,0.0
3540,-0.1940800166442554,0.0
3541,-0.07836185400983695,0.0
3542,0.03990141430004106,0.0
3543,-0.05146028790939365,0.0
3544,-0.06629670940653956,0.0
3545,-0.05650148587558121,0.0
3546,-0.02979289469007918,0.0
3547,0.10026657603839541,0.0
3548,-0.0410157283864333,0.0
3549,-0.02935339386504936,0.0
3550,0.4897085926755619,0.0
3551,5.577467063871319,0.0
3552,3.5318791763327377,0.0
3553,-2.7413405711625423,0.0
3554,1.6135526788570878,0.0
3555,-0.7792001429737546,0.0
3556,0.3705794852754731,0.0
3557,-0.166734190354619,0.0
3558,-0.03315650230897192,0.0
3559,-0.03602667085088223,0.0
3560,0.07536483149608979,0.0
3561,0.04806937878885973,0.0
3562,0.010358780767313927,0.0
3563,0.032458334750500584,0.0
3564,-0.018125463064943767,0.0
3565,-0.0033143275056803983,0.0
3566,0.03633653342834472,0.0
3567,1.5854307019117941,0.0
3568,6.9527075224618295,0.0
3569,-0.16766487933746235,0.0
3570,-1.0287766450206237,0.0
3571,0.7970690880855861,0.0
3572,-0.41274483398175954,0.0
3573,0.06383978491958578,0.0
3574,-0.04230905587026657,0.0
3575,0.01011137271752012,0.0
3576,-0.021024648185804903,0.0
3577,-0.11835065160540542,0.0
3578,-0.014010010584217416,0.0
3579,0.05302666657815715,0.0
3580,-0.052748116865321756,0.0
3581,-0.08549555207886357,0.0
3582,-0.05810095745166894,0.0
3583,0.08696289994758216,0.0
3584,3.427244515361068,0.0
3585,6.195085216027753,0.0
3586,-2.757989673520132,0.0
3587,1.0402888600036118,0.0
3588,-0.31841567604144105,0.0
3589,0.0967344815855173,0.0
3590,-0.02147810434256362,0.0
3591,0.02705110570564422,0.0
3592,0.00888920815311756,0.0
3593,0.012708427653531276,0.0
3594,0.12111169147107258,0.0
3595,0.03575018782069414,0.0
3596,0.0052567957783127535,0.0
3597,-0.060702044202205645,0.0
3598,0.07927906357834791,0.0
3599,0.02763956705755672,0.0
3600,0.6925934612418592,0.0
3601,5.618460734538072,0.0
3602,3.5570677764659786,0.0
3603,-2.5868450122795803,0.0
3604,1.6155638725931385,0.0
3605,-0.75271850685908,0.0
3606,0.45182799002257357,0.0
3607,-0.004980244530239,0.0
3608,0.13735074033508732,0.0
3609,0.0766067553879442,0.0
3610,0.06118107372568968,0.0
3611,0.16944456154074058,0.0
3612,0.06794295694537589,0.0
3613,-0.020106681452526937,0.0
3614,-0.04223169620530754,0.0
3615,0.07706423325871539,0.0
3616,-0.136957150945721,0.0
3617,1.633128623245308,0.0
3618,6.899519056460645,0.0
3619,-0.199580469904775,0.0
3620,-0.9568314757316572,0.0
3621,0.7330552492020992,0.0
3622,-0.3657694413631879,0.0
3623,0.07571414350617235,0.0
3624,-0.046645137869151546,0.0
3625,-0.05121553073162317,0.0
3626,-0.05708409911420722,0.0
3627,-0.012612764045829065,0.0
3628,-0.03473195637153147,0.0
3629,-0.009330504936445484,0.0
3630,0.09686984600006465,0.0
3631,0.058538431666519244,0.0
3632,-0.06515865786480107,0.0
3633,0.11099610962358693,0.0
3634,3.51001309847,0.0
3635,6.240720637926474,0.0
3636,-2.7350407458973187,0.0
3637,1.0926800828167647,0.0
3638,-0.3062923415273335,0.0
3639,0.12950373807294024,0.0
3640,-0.07238828711071568,0.0
3641,-0.0007228190623509816,0.0
3642,-0.0071774799074037915,0.0
3643,-0.019244611295235987,0.0
3644,-0.047648929238523645,0.0
3645,-0.073666166237482,0.0
3646,-0.0267733047971315,0.0
3647,-0.05958220773773737,0.0
3648,-0.00045621801673173534,0.0
3649,-0.07102836316657363,0.0
3650,0.40866460962704143,0.0
3651,5.512310364562793,0.0
3652,3.439103058250773,0.0
3653,-2.8023218970371064,0.0
3654,1.4834666517478658,0.0
3655,-0.8965833523409807,0.0
3656,0.2754903150110453,0.0
3657,-0.1838831717618482,0.0
3658,0.05050981413421703,0.0
3659,-0.0006828098785395809,0.0
3660,-0.10105964864906863,0.0
3661,-0.01853242228549217,0.0
3662,0.05265137866924396,0.0
3663,0.031880611866962255,0.0
3664,-0.08392744676010395,0.0
3665,-0.018552788279076582,0.0
3666,0.07279588281346915,0.0
3667,1.6997734958379909,0.0
3668,6.890159279082009,0.0
3669,-0.11639217493435353,0.0
3670,-0.9730871399269868,0.0
3671,0.8355244828322884,0.0
3672,-0.2761832491302453,0.0
3673,0.18826465034253986,0.0
3674,-0.09187675475316809,0.0
3675,0.05310573130988083,0.0
3676,0.014743354673055592,0.0
3677,-0.09967080792792465,0.0
3678,-0.04386449418063282,0.0
3679,0.08384473941483694,0.0
3680,0.016853449701142827,0.0
3681,-0.07832401660624863,0.0
3682,0.04618660686726063,0.0
3683,0.1753351845420046,0.0
3684,3.44403540953696,0.0
3685,6.108631914781967,0.0
3686,-2.7768197309278833,0.0
3687,1.038879904549773,0.0
3688,-0.27692277786758457,0.0
3689,0.05039950240071271,0.0
3690,-0.0825917513629712,0.0
3691,0.08307110831759432,0.0
3692,0.04465986836888354,0.0
3693,0.011028233994610732,0.0
3694,0.0032489020887480676,0.0
3695,0.01649581462686598,0.0
3696,-0.06679477797236594,0.0
3697,-0.0692448420411081,0.0
3698,-0.06559894593106012,0.0
3699,-0.04583780532140537,0.0
3700,0.47743440212515914,0.0
3701,5.533096571018512,0.0
3702,3.4043421262992637,0.0
3703,-2.7775853780282995,0.0
3704,1.5885773706913953,0.0
3705,-0.7363915059683447,0.0
3706,0.287728966042022,0.0
3707,-0.14690513821339266,0.0
3708,0.031241589781942542,0.0
3709,-0.05639068716913661,0.0
3710,-0.010274316066013919,0.0
3711,-0.059176457412683264,0.0
3712,-0.11785023098534786,0.0
3713,0.01917261139665673,0.0
3714,-0.006597134075152786,0.0
3715,-0.053444866448602024,0.0
3716,-0.05828721391945465,0.0
3717,1.7251860084792165,0.0
3718,7.038550139348717,0.0
3719,-0.2707571275533074,0.0
3720,-0.8990870463370662,0.0
3721,0.8059005861696591,0.0
3722,-0.3251781120907308,0.0
3723,0.30887719957305415,0.0
3724,-0.046974881420359826,0.0
3725,0.08625826834260403,0.0
3726,0.09831110084905637,0.0
3727,-0.005302052334765661,0.0
3728,0.03731747498682844,0.0
3729,0.06906284270574764,0.0
3730,-0.11350447688438065,0.0
3731,0.012925001751395326,0.0
3732,0.07574809553447523,0.0
3733,0.05830427550503585,0.0
3734,3.481455110948339,0.0
3735,6.227470991359534,0.0
3736,-2.6419852272484547,0.0
3737,0.9524926196340895,0.0
3738,-0.448682310127062,0.0
3739,0.12635671758017114,0.0
3740,-0.09063204568024681,0.0
3741,-0.013419876827513895,0.0
3742,0.07250525655353307,0.0
3743,-0.04419258963839771,0.0
3744,0.04786101765664219,0.0
3745,0.004805846297540439,0.0
3746,-0.048127747018089514,0.0
3747,-0.03156229962805844,0.0
3748,-0.03512822050612815,0.0
3749,-0.06992190501014459,0.0
3750,0.5178944832458936,0.0
3751,5.549483063456154,0.0
3752,3.384079539307992,0.0
3753,-2.793318408161389,0.0
3754,1.5048023151593164,0.0
3755,-0.7906610182392958,0.0
3756,0.25753164126349787,0.0
3757,-0.17990078824162636,0.0
3758,0.013553899472713783,0.0
3759,0.02525313491484188,0.0
3760,-0.14092000661932233,0.0
3761,-0.04262046744087192,0.0
3762,0.07300972581719917,0.0
3763,-0.05948567846899934,0.0
3764,0.05224239487681938,0.0
3765,0.017608395494676347,0.0
3766,-0.015552117500401242,0.0
3767,1.5592354660289938,0.0
3768,6.917271549218204,0.0
3769,-0.2656463843701181,0.0
3770,-1.0256338777637306,0.0
3771,0.7391269476231073,0.0
3772,-0.40302711160941634,0.0
3773,0.098720835011735,0.0
3774,-0.15222382892120412,0.0
3775,0.014210777467110691,0.0
3776,-0.023020285720737343,0.0
3777,-0.003098901009081275,0.0
3778,-0.045050055665743716,0.0
3779,-0.07412923090376287,0.0
3780,-0.0031938493249966393,0.0
3781,-0.00587766298040379,0.0
3782,-0.0204995794052176,0.0
3783,0.03384579316981687,0.0
3784,3.5151957304516745,0.0
3785,6.255246994758361,0.0
3786,-2.767809341260877,0.0
3787,1.0632922778720164,0.0
3788,-0.3702528830994326,0.0
3789,0.02078466860626635,0.0
3790,-0.09242562852315837,0.0
3791,-0.05645576003547929,0.0
3792,-0.039945541477393806,0.0
3793,0.0009653436036705931,0.0
3794,0.024396544003539453,0.0
3795,-0.09295215925566438,0.0
3796,0.039427486361749274,0.0
3797,-0.0707970359563605,0.0
3798,-0.04571026604673747,0.0
3799,-0.03198263731308422,0.0
3800,0.5442732974870487,0.0
3801,5.517076233394615,0.0
3802,3.2175077083712247,0.0
3803,-2.775153713340806,0.0
3804,1.5844909068207365,0.0
3805,-0.8336921129095296,0.0
3806,0.3613357978765271,0.0
3807,-0.11804602068154865,0.0
3808,-0.037718385492228626,0.0
3809,-0.06190930747929295,0.0
3810,-0.014975920703459395,0.0
3811,-0.06908200691311914,0.0
3812,0.003185461051461308,0.0
3813,0.04940080830255697,0.0
3814,-0.06769512988299066,0.0
3815,-0.07797329763570177,0.0
3816,-0.13506302650541516,0.0
3817,1.6248592858762412,0.0
3818,6.892251817156232,0.0
3819,-0.374090760291663,0.0
3820,-0.9335920050842063,0.0
3821,0.7288321941538954,0.0
3822,-0.35366319355469783,0.0
3823,0.09029986831798269,0.0
3824,-0.17141456232372881,0.0
3825,-0.06313098081314007,0.0
3826,-0.0517200481697904,0.0
3827,0.01566749442061111,0.0
3828,-0.035569139558101794,0.0
3829,-0.1276092385048035,0.0
3830,-0.05150269742479616,0.0
3831,0.04997117938789311,0.0
3832,0.001232432162106202,0.0
3833,0.03760078185323196,0.0
3834,3.4239804240161695,0.0
3835,6.146596078614598,0.0
3836,-2.8685447188439626,0.0
3837,1.0562992451123396,0.0
3838,-0.28712781023318135,0.0
3839,0.06021757614311307,0.0
3840,-0.0571048051693979,0.0
3841,-0.030519422267468562,0.0
3842,-0.0239187093497073,0.0
3843,-0.018170199858792098,0.0
3844,-0.0014443047244302662,0.0
3845,-0.04481019205343589,0.0
3846,0.017514523346790434,0.0
3847,0.026914637187772192,0.0
3848,0.006922166484847246,0.0
3849,-0.07399877609082514,0.0
3850,0.5470677572314011,0.0
3851,5.613037715376515,0.0
3852,3.3676571445145504,0.0
3853,-2.7275856744266815,0.0
3854,1.5699256455403876,0.0
3855,-0.7324600702889763,0.0
3856,0.3671233722320967,0.0
3857,-0.14103251222702543,0.0
3858,0.059594562275929075,0.0
3859,0.05029036252048347,0.0
3860,0.03681227260554217,0.0
3861,-0.02085580707125916,0.0
3862,0.04216631163635521,0.0
3863,-0.006209850684265858,0.0
3864,1.682884824718775e-05,0.0
3865,0.00845171924954385,0.0
3866,-0.008589710303528574,0.0
3867,1.649337468791032,0.0
3868,6.909604216660007,0.0
3869,-0.29757533180285467,0.0
3870,-0.9782964906705475,0.0
3871,0.6144543810601636,0.0
3872,-0.4277780026826272,0.0
3873,0.04147276921310768,0.0
3874,-0.16319839617895737,0.0
3875,-0.06235496659528654,0.0
3876,-0.11682449340874505,0.0
3877,-0.07427102766466394,0.0
3878,-0.08756228386984619,0.0
3879,-0.060180943421659625,0.0
3880,-0.07907531919330998,0.0
3881,0.06110263868229006,0.0
3882,-0.1286387295687252,0.0
3883,0.05399145714471693,0.0
3884,3.5200891452294742,0.0
3885,6.22346401078551,0.0
3886,-2.873993518229533,0.0
3887,1.0608860116902428,0.0
3888,-0.48280396873905607,0.0
3889,0.08597373161178813,0.0
3890,-0.07520052980391302,0.0
3891,-0.031797675693347426,0.0
3892,0.008691031895721013,0.0
3893,-0.07765147570411023,0.0
3894,0.013748719453474167,0.0
3895,0.034640958104659704,0.0
3896,-0.02823379447990614,0.0
3897,-0.058850716953663625,0.0
3898,0.0008159579863463544,0.0
3899,0.03884453831048691,0.0
3900,0.575429535174047,0.0
3901,5.7111732935812665,0.0
3902,3.4156167105194566,0.0
3903,-2.6762103434749713,0.0
3904,1.6380415884835366,0.0
3905,-0.738134177568297,0.0
3906,0.32678442902762317,0.0
3907,-0.07183363833148915,0.0
3908,0.05387692508050711,0.0
3909,0.012048347655200808,0.0
3910,0.01995936381628856,0.0
3911,0.05027116715858795,0.0
3912,0.07027915164844215,0.0
3913,-1.0159403493981319e-05,0.0
3914,0.016825497776113904,0.0
3915,0.016579199615053195,0.0
3916,0.07829169973469657,0.0
3917,1.6020376991073035,0.0
3918,6.942224125827382,0.0
3919,-0.34737438379479163,0.0
3920,-0.9562132046191216,0.0
3921,0.7393308961321747,0.0
3922,-0.38552029497502427,0.0
3923,0.037243195358398595,0.0
3924,-0.14280851592352145,0.0
3925,0.002774556031445998,0.0
3926,0.03651026159474764,0.0
3927,0.06136506267396708,0.0
3928,0.044566501413926485,0.0
3929,-0.04029217105159314,0.0
3930,-0.0858162665028209,0.0
3931,0.0009573549906174905,0.0
3932,-0.04888984224674466,0.0
3933,0.12965975574950386,0.0
3934,3.5336986800542824,0.0
3935,6.12883470341226,0.0
3936,-2.7318696963035087,0.0
3937,1.1234564469763777,0.0
3938,-0.3943051005508575,0.0
3939,0.1077366463913849,0.0
3940,0.02961993718976398,0.0
3941,0.07585301159361874,0.0
3942,0.03624347198607612,0.0
3943,-0.010022550928814402,0.0
3944,-0.013759707860690272,0.0
3945,-0.008719596129891712,0.0
3946,0.1049069696459469,0.0
3947,0.014850723298226134,0.0
3948,0.14088046243250724,0.0
3949,0.07502101016002231,0.0
3950,0.5525985259356442,0.0
3951,5.616813004286801,0.0
3952,3.3537836954611233,0.0
3953,-2.614620716185142,0.0
3954,1.593371981655257,0.0
3955,-0.7782456452365105,0.0
3956,0.4632801615887743,0.0
3957,-0.04576647070321098,0.0
3958,0.07205051680321646,0.0
3959,0.0892302257573373,0.0
3960,-0.014374224452432902,0.0
3961,0.06520013449923188,0.0
3962,0.07941430179821501,0.0
3963,0.030440161211478984,0.0
3964,-0.01346979469526393,0.0
3965,0.09843202689092166,0.0
3966,0.08377564621602412,0.0
3967,1.8058631319755276,0.0
3968,6.99355426127067,0.0
3969,-0.26609255864262626,0.0
3970,-0.8431707217157065,0.0
3971,0.7237887069465818,0.0
3972,-0.4239370101635833,0.0
3973,0.23507029385384381,0.0
3974,-0.0458081282792841,0.0
3975,-0.07205391005378761,0.0
3976,-0.015176171986940013,0.0
3977,0.020598150358185477,0.0
3978,0.014703056440224214,0.0
3979,0.0580355828487025,0.0
3980,-0.09054723799600135,0.0
3981,-0.03600116175135175,0.0
3982,-0.007523258899035483,0.0
3983,0.06901718168220447,0.0
3984,3.587716296618318,0.0
3985,6.163722914780239,0.0
3986,-2.719569044053364,0.0
3987,1.204688176552867,0.0
3988,-0.34934835401924236,0.0
3989,0.11260216084615568,0.0
3990,0.0015773538794731368,0.0
3991,0.05594790181357613,0.0
3992,-0.02164169284169111,0.0
3993,0.02069541585340897,0.0
3994,0.0188295052203701,0.0
3995,0.06343611879650757,0.0
3996,0.06467160730985066,0.0
3997,0.06404530665120496,0.0
3998,0.01607312779965477,0.0
3999,0.006355958911989201,0.0
4000,0.635639380693229,0.0
4001,5.670433766120735,0.0
4002,3.355119768372024,0.0
4003,-2.6820435281861132,0.0
4004,1.5871824835773765,0.0
4005,-0.7438294674504451,0.0
4006,0.3847130589126598,0.0
4007,-0.10629232792293924,0.0
4008,0.055473640708051865,0.0
4009,-0.05000123258486918,0.0
4010,-0.04548932965515098,0.0
4011,-0.08788103805642267,0.0
4012,-0.0795988309898077,0.0
4013,-0.007088881568271192,0.0
4014,-0.015700567365736696,0.0
4015,-0.07818655353693274,0.0
4016,-0.027369139865905223,0.0
4017,1.7373152514701111,0.0
4018,6.876202883299256,0.0
4019,-0.37897356977789404,0.0
4020,-0.7747268529580962,0.0
4021,0.7129826997028146,0.0
4022,-0.33863511953629216,0.0
4023,0.17251521061204372,0.0
4024,0.02778615407843701,0.0
4025,0.07087515149165072,0.0
4026,0.15263497323382477,0.0
4027,0.1051266732204979,0.0
4028,0.06422032248067072,0.0
4029,0.06612211707321526,0.0
4030,0.08290124340978727,0.0
4031,0.12789016976023754,0.0
4032,0.04323961882621793,0.0
4033,0.18173282431119675,0.0
4034,3.638625691786,0.0
4035,6.146699317767104,0.0
4036,-2.6541786205829467,0.0
4037,1.0882701366642002,0.0
4038,-0.30403928004723757,0.0
4039,0.2179543056095436,0.0
4040,0.03252386288800104,0.0
4041,0.023013521679292694,0.0
4042,0.026561106506087073,0.0
4043,0.006386512513097624,0.0
4044,0.0864401538730155,0.0
4045,0.06328629027589372,0.0
4046,-0.0768061810596768,0.0
4047,0.03673043265897009,0.0
4048,-0.06193652993976151,0.0
4049,0.016062804397367233,0.0
4050,0.5240230212513262,0.0
4051,5.672354388502196,0.0
4052,3.2907336129623808,0.0
4053,-2.6703592314760867,0.0
4054,1.5732660696019638,0.0
4055,-0.7873373467179768,0.0
4056,0.337153907011766,0.0
4057,-0.20017493185641172,0.0
4058,-0.03267514829116289,0.0
4059,-0.033883912504607955,0.0
4060,-0.049604488300771694,0.0
4061,-0.020316052486865577,0.0
4062,0.050757302193828596,0.0
4063,0.07385039682487893,0.0
4064,-0.017858339828554632,0.0
4065,0.017674026975641625,0.0
4066,0.006029967070703548,0.0
4067,1.5910031257343353,0.0
4068,6.922938517589571,0.0
4069,-0.4534435487910824,0.0
4070,-0.7380002194615963,0.0
4071,0.7720749353935072,0.0
4072,-0.4350229548675313,0.0
4073,0.12383292108234635,0.0
4074,-0.07792470175048379,0.0
4075,0.05780607813681278,0.0
4076,-0.018388047633727096,0.0
4077,-0.10042724096938802,0.0
4078,-0.08934602417806894,0.0
4079,-0.01725853891477369,0.0
4080,0.06570364604694402,0.0
4081,0.004983416436065254,0.0
4082,-0.03074059603542012,0.0
4083,0.02695262150209006,0.0
4084,3.515752369974348,0.0
4085,6.123556384109999,0.0
4086,-2.820513692674234,0.0
4087,1.0797609621773299,0.0
4088,-0.4804210079261982,0.0
4089,0.10151155719069878,0.0
4090,-0.14931481564970542,0.0
4091,-0.09815567265409199,0.0
4092,-0.024233582296147055,0.0
4093,-0.04139698707947888,0.0
4094,-0.049122046196995776,0.0
4095,-0.022988849635906167,0.0
4096,-0.02647672316352412,0.0
4097,0.09972034016555888,0.0
4098,-0.01057120734443613,0.0
4099,0.03122215204802638,0.0
4100,0.5711038282612477,0.0
4101,5.641662940981003,0.0
4102,3.2906352081338017,0.0
4103,-2.6684715966874517,0.0
4104,1.4835429507732762,0.0
4105,-0.8064210905157552,0.0
4106,0.47116759638098443,0.0
4107,-0.059333856553595965,0.0
4108,0.046090469781086774,0.0
4109,0.0034462607032596723,0.0
4110,0.019906022879734524,0.0
4111,0.0827763225187404,0.0
4112,0.0423231664668988,0.0
4113,-0.02074653014289057,0.0
4114,0.09172984423191496,0.0
4115,0.032850052360104846,0.0
4116,0.024818541954025265,0.0
4117,1.6203916791307418,0.0
4118,6.951964853412202,0.0
4119,-0.4702761943551424,0.0
4120,-0.8060957672774205,0.0
4121,0.7981069520290592,0.0
4122,-0.48086391587846394,0.0
4123,0.1625200441701066,0.0
4124,-0.04893200271533663,0.0
4125,-0.004070147283139147,0.0
4126,-0.06385364911780689,0.0
4127,-0.0964187163536055,0.0
4128,0.07808423802418239,0.0
4129,0.008630292911831913,0.0
4130,0.018087132044988238,0.0
4131,0.031456805104826194,0.0
4132,0.03716966995075043,0.0
4133,0.2074612961894034,0.0
4134,3.5849660581755933,0.0
4135,6.11427662989319,0.0
4136,-2.6851939457510023,0.0
4137,1.244585581669106,0.0
4138,-0.36989623512941616,0.0
4139,0.1894203411426013,0.0
4140,-0.07657028203139082,0.0
4141,0.06607236926338438,0.0
4142,-0.04680703449424815,0.0
4143,0.019689757517123433,0.0
4144,0.0027771872819521287,0.0
4145,-0.02330000503889222,0.0
4146,0.044549268899599766,0.0
4147,0.024069383444862962,0.0
4148,-0.0011446311080070067,0.0
