timestamp,value-0,is_anomaly
0,0.2901493741554555,0
1,4.515707872703284,0
2,4.947008173855258,0
3,-3.031413731940461,0
4,1.4447587133885669,0
5,-0.7585342537992479,0
6,0.2657549627512952,0
7,-0.08922359404809535,0
8,0.043163204031936096,0
9,0.014026501496025197,0
10,-0.012894406447457357,0
11,-0.030328727221662754,0
12,0.0073877612956420955,0
13,-0.013283361290564628,0
14,-0.10746125183388468,0
15,0.03254907656004293,0
16,0.0633344650127449,0
17,0.9846225896917605,0
18,6.437794189168587,0
19,1.6092342397109054,0
20,-1.8669011550187515,0
21,1.2713362714506173,0
22,-0.556788626788348,0
23,0.29560481428768925,0
24,-0.08210902015796406,0
25,0.03267544722392875,0
26,0.01860725804860428,0
27,0.014922051597914524,0
28,-0.04776442564141143,0
29,0.02544752009306136,0
30,-0.07774053534877703,0
31,-0.11131187169745248,0
32,-0.10502104251503795,0
33,-0.05301799153614896,0
34,2.5590204966088543,0
35,6.839531859024972,0
36,-1.8250190239298771,0
37,0.07532256586581183,0
38,0.11774959550628503,0
39,-0.11184909249650614,0
40,-0.0002382516629578571,0
41,-0.05819962762177057,0
42,-0.019503100837594312,0
43,0.0070190560838857205,0
44,0.09959231242448248,0
45,-0.048589926913587975,0
46,0.05693712636405391,0
47,-0.05298380239700178,0
48,-0.014516043671722037,0
49,-0.08696785999989758,0
50,0.2886007984731963,0
51,4.627647153123262,0
52,5.003479617000543,0
53,-2.9954041416332338,0
54,1.5248485975011086,0
55,-0.8447269873472498,0
56,0.3212749733553825,0
57,-0.06055117763733674,0
58,0.046520272277526115,0
59,-0.032711723304667865,0
60,-0.015123769834325904,0
61,-0.035990884066124065,0
62,0.040069103553374924,0
63,0.07398134672391582,0
64,-0.01924724120584212,0
65,0.03011571084647497,0
66,-0.047771320041050516,0
67,1.0649556148815547,0
68,6.505566835206848,0
69,1.5221131125848975,0
70,-1.893029099389175,0
71,1.2349014716458822,0
72,-0.7512440829147178,0
73,0.3188195191196558,0
74,-0.16337092707499373,0
75,0.05609307737998141,0
76,-0.08166163295411913,0
77,0.03916174202086441,0
78,-0.02900337736980643,0
79,0.013765521697351416,0
80,-0.0936446728842995,0
81,-0.10323232761223076,0
82,0.09392617575450711,0
83,0.013765226915320661,0
84,2.570057501780278,0
85,6.865802191827993,0
86,-1.8090307997346287,0
87,0.19226368327217055,0
88,0.09219754227033045,0
89,-0.19414143915103085,0
90,-0.013734813664064156,0
91,0.0186876952917973,0
92,-0.022382924028266755,0
93,-0.04031739077979456,0
94,0.1127902631588499,0
95,-0.03584058724318928,0
96,0.016100286316522036,0
97,0.05491093452823755,0
98,-0.02544474279681619,0
99,-0.07798066432635707,0
100,0.22541780880856038,0
101,4.525901044323575,0
102,4.979188320401529,0
103,-3.1030210158349942,0
104,1.5202939306769856,0
105,-0.6338835865951957,0
106,0.2668345733434471,0
107,-0.023908409984141857,0
108,0.010939704115759813,0
109,0.08122172638241366,0
110,0.026199057708558196,0
111,0.029173419023836633,0
112,0.0649642032646831,0
113,-0.03223913216672967,0
114,-0.07131481512996653,0
115,-0.014178846465279008,0
116,-0.011197089820845347,0
117,1.0443875319188525,0
118,6.478654106783293,0
119,1.487769982360208,0
120,-1.922410276692257,0
121,1.2822545169545116,0
122,-0.5874501154468363,0
123,0.21503192859749354,0
124,-0.05208089748792803,0
125,0.056528745670560966,0
126,0.06202090541836193,0
127,0.0028691788281956787,0
128,-0.05664267598768753,0
129,0.07026680163733215,0
130,0.08601276173415795,0
131,0.08498972750822559,0
132,-0.040857414632570394,0
133,0.05803486361730219,0
134,2.419299980865145,0
135,6.85329468678451,0
136,-1.7756940088225681,0
137,0.24605915645372306,0
138,0.08831492780975164,0
139,-0.0827287954404953,0
140,0.05992714515229135,0
141,-0.08828709308428642,0
142,0.11148779868913238,0
143,-0.031327285143032776,0
144,-0.0524726925740598,0
145,-0.0727536118922911,0
146,-0.012298852751912764,0
147,-0.1086063790635441,0
148,0.01839927053368302,0
149,-0.00812522660366808,0
150,0.30977142953755055,0
151,4.687096769580195,0
152,4.977153594752912,0
153,-2.9898952928884324,0
154,1.5900762269921394,0
155,-0.716981091776871,0
156,0.2900532082683344,0
157,-0.15259374726170938,0
158,0.03137432119325308,0
159,0.06873196596325215,0
160,-0.0009342260721710797,0
161,-0.030832617778967106,0
162,0.04976536579573297,0
163,0.02959471043161157,0
164,0.050211678015837334,0
165,0.09936848709255146,0
166,-0.07988564825963845,0
167,0.9388562449729534,0
168,6.506241882855994,0
169,1.3898018319705079,0
170,-2.04976667675759,0
171,1.2382027760365908,0
172,-0.6747358055078689,0
173,0.20838656839892683,0
174,-0.05737835057352979,0
175,0.06630166525472128,0
176,-0.004314840438926976,0
177,0.03614049744516184,0
178,-0.05092253434275919,0
179,-0.0984454302215943,0
180,-0.017668684927454225,0
181,0.11692092060921613,0
182,0.015042769147444627,0
183,-0.009448594642280886,0
184,2.512329062415502,0
185,6.874866537313911,0
186,-1.7453260241996116,0
187,0.3251131848278833,0
188,0.15371828534295642,0
189,-0.11073864910513878,0
190,0.019622352414726707,0
191,0.02298702050425669,0
192,0.02393053632523808,0
193,-0.0025427131319227143,0
194,-0.021606913308573325,0
195,0.020391492113563486,0
196,-0.03447218525484185,0
197,-0.02827353513245359,0
198,0.014370646123741226,0
199,-0.04686693948489034,0
200,0.22120528105330137,0
201,4.686682661422854,0
202,4.855212466616664,0
203,-3.0307590975475165,0
204,1.5436064642256568,0
205,-0.7604946678254705,0
206,0.1778953439649319,0
207,-0.18376439727047292,0
208,0.050402354626035394,0
209,-0.0700723323093762,0
210,0.05250131656020765,0
211,0.022221817998446365,0
212,0.010321395296198715,0
213,0.07752927990845843,0
214,-0.07710150265201958,0
215,0.035780647261276555,0
216,0.0792035993248367,0
217,1.0459560064519537,0
218,6.5445137019353465,0
219,1.4432527459594038,0
220,-1.9367013041018244,0
221,1.204229836749976,0
222,-0.6582661199040378,0
223,0.3676072866753487,0
224,-0.014528031567294843,0
225,-0.03028267657077781,0
226,-0.02996493245786988,0
227,-0.015331707133247087,0
228,0.020470165453706172,0
229,0.07922072577013069,0
230,0.03602938851636098,0
231,0.08906963228073697,0
232,0.0731727367964845,0
233,0.04267864255679553,0
234,2.506088920045415,0
235,6.898171100377966,0
236,-1.815117424263961,0
237,0.25139255079858663,0
238,0.16689772691473184,0
239,-0.12633937475825263,0
240,0.04567818177443171,0
241,-0.02025622344374623,0
242,-0.015136379090604547,0
243,0.0365095565662422,0
244,0.07241989366884438,0
245,0.07607366926265165,0
246,0.07953720078459588,0
247,0.051196710396585556,0
248,0.07634727583083843,0
249,0.1099203729786764,0
250,0.272904551351982,0
251,4.683091270938695,0
252,5.053614333991597,0
253,-2.8683606158843604,0
254,1.59381942983105,0
255,-0.7110843704734017,0
256,0.3385532438884879,0
257,-0.1400477323641396,0
258,0.02940967926958489,0
259,0.04142947033724603,0
260,0.0939939893438475,0
261,-0.023472904577294243,0
262,-0.1015983106926877,0
263,-0.006926867717058822,0
264,0.10213105216055446,0
265,-0.05393086791409778,0
266,0.0244069224332818,0
267,1.1394991489821276,0
268,6.614913918334095,0
269,1.5719311062122086,0
270,-1.8200824914997757,0
271,1.2701326823495653,0
272,-0.5255471462463764,0
273,0.3780964438323857,0
274,0.0558343595461263,0
275,0.0644912738889483,0
276,0.04612324538982565,0
277,0.11132912458288934,0
278,0.038643244628171605,0
279,0.08989455211864285,0
280,0.10910476682575802,0
281,0.043848024605869715,0
282,0.16458217080954032,0
283,0.10852200992533154,0
284,2.636703164000152,0
285,6.982171161671387,0
286,-1.765191249784422,0
287,0.25829008697991257,0
288,0.16957478804540682,0
289,-0.056175311088092525,0
290,0.0876212605686401,0
291,0.06983451672402698,0
292,0.14129712415480372,0
293,0.11213212829626337,0
294,0.016949092485745595,0
295,0.09511758105374962,0
296,-0.0393072772878056,0
297,-0.004750204076883639,0
298,0.10705177309103951,0
299,0.032869447177845144,0
300,0.4019513902043641,0
301,4.785906002005339,0
302,4.932771732471816,0
303,-2.965946180878457,0
304,1.5371363925936574,0
305,-0.7233314837809034,0
306,0.23568259638411604,0
307,-0.03549640921020011,0
308,0.05112636936687041,0
309,-0.07341748960565228,0
310,0.05413991043006609,0
311,0.029954789407103728,0
312,0.06971083035209484,0
313,-0.002805992940551394,0
314,0.00792070211671319,0
315,0.07099636767386333,0
316,-0.06582341718674092,0
317,1.0855138475701263,0
318,6.562849349944117,0
319,1.5724072754720317,0
320,-1.8093634365870355,0
321,1.1987050242549047,0
322,-0.5344660677315259,0
323,0.2924695470059277,0
324,-0.06907213345751588,0
325,0.02880019813489483,0
326,0.0934949010067134,0
327,-0.0054827717535182036,0
328,0.05841697063577637,0
329,-0.004074678107464508,0
330,0.07037547338401488,0
331,0.06679769833312788,0
332,0.03381566465701628,0
333,0.10018840649992197,0
334,2.629465830224223,0
335,6.927019613245851,0
336,-1.881142480449637,0
337,0.2726781719421556,0
338,0.13411702417072746,0
339,-0.0406122427098005,0
340,-0.057301227046139824,0
341,0.009866760176663873,0
342,-0.06704475667052905,0
343,-0.07061761205302351,0
344,-0.03704252904837199,0
345,0.02486583355228097,0
346,0.11203222887574149,0
347,0.006154135027273661,0
348,0.04076047025970979,0
349,-0.011302781863341972,0
350,0.2826498199533456,0
351,4.8922314660561605,0
352,4.879965649701022,0
353,-2.9442061393956362,0
354,1.5596533678225089,0
355,-0.6912303951003265,0
356,0.3272937296124651,0
357,-0.04169676203682113,0
358,0.006271085148120886,0
359,0.0961807319284668,0
360,0.0854574708415078,0
361,0.060673525590537326,0
362,0.10126055088872454,0
363,0.10241978839556176,0
364,0.12035061323503234,0
365,-0.043842266682113,0
366,0.023080660604484098,0
367,1.064510360209979,0
368,6.613212030859883,0
369,1.5158208430647464,0
370,-1.7921704687338351,0
371,1.2573063485713132,0
372,-0.5491139672638535,0
373,0.33532294990005,0
374,-0.09132759798342835,0
375,-0.004270823393571099,0
376,0.07149513390105036,0
377,-0.0009355529880864868,0
378,0.03117415228554933,0
379,-0.02066835060972454,0
380,0.05761238410616623,0
381,0.06940382966328743,0
382,-0.0443727556979354,0
383,0.07453377568929048,0
384,2.492321470842794,0
385,6.837889006826767,0
386,-1.870071101839489,0
387,0.3521298289810754,0
388,0.1259160296806386,0
389,-0.0980979090423284,0
390,-0.029969139613299015,0
391,-0.07256646609364936,0
392,0.06237891261744092,0
393,0.015778411835565036,0
394,0.0659325859409104,0
395,-0.01910404710512344,0
396,0.06769913826384914,0
397,0.012394926606848683,0
398,0.07189965183339747,0
399,0.007548022144290266,0
400,0.3931151645137395,0
401,4.729876970456784,0
402,4.842751393767926,0
403,-2.9541477283726776,0
404,1.5597863674320471,0
405,-0.7266566084196812,0
406,0.3257677515462145,0
407,-0.14526303095632648,0
408,0.00397468993299584,0
409,-0.0022882519651473057,0
410,-0.035566107617161356,0
411,-0.09599062429285611,0
412,0.0062719473532452386,0
413,-0.008498091183295798,0
414,3.501465465052117e-05,0
415,0.03262208108314757,0
416,-0.006723801236092265,0
417,1.1034297766632792,0
418,6.601446588560382,0
419,1.340979087099586,0
420,-1.8566100763841897,0
421,1.0566542856496965,0
422,-0.6538896822421912,0
423,0.1776823288547669,0
424,-0.16656959667991802,0
425,-0.053493027762516514,0
426,-0.052782503122286564,0
427,-0.018487011915911386,0
428,0.03953155851779837,0
429,-0.04585439535534963,0
430,-0.04336497854925571,0
431,-0.023711130846202494,0
432,-0.011681786258836684,0
433,0.032494072193082965,0
434,2.7045259753199775,0
435,6.88513577533891,0
436,-1.978618713077658,0
437,0.32493048751879505,0
438,0.12730182297219178,0
439,-0.07067409908926585,0
440,0.01662819285621252,0
441,0.040995173873788676,0
442,-0.018604148367343712,0
443,0.08900814078887388,0
444,0.03840171491323907,0
445,-0.03557958686528257,0
446,-0.03222944198144055,0
447,-0.02182511316266955,0
448,-0.05486324816923897,0
449,-0.0051920150586506585,0
450,0.2534949766954975,0
451,4.615060431693019,0
452,4.7708180367451005,0
453,-3.0592931725738013,0
454,1.4915979848720209,0
455,-0.7395754613963942,0
456,0.2469718632145303,0
457,-0.038348222464188564,0
458,0.04105438467223828,0
459,-0.1687831378043155,0
460,0.06843828138276592,0
461,-0.05703990242134966,0
462,-0.09747922201636777,0
463,-0.03953562383578373,0
464,0.007975787076939501,0
465,-0.11375631544170062,0
466,-0.03613917555186179,0
467,0.8848988761448999,0
468,6.423839711637323,0
469,1.3100288094717476,0
470,-1.8522498588914293,0
471,1.1378109306466038,0
472,-0.6716674378631124,0
473,0.15299518268046383,0
474,-0.10818866105899658,0
475,0.02062610703738696,0
476,-0.03445454242763522,0
477,-0.08836568862198199,0
478,-0.08805368880104242,0
479,-0.10289555999466676,0
480,-0.04640575752683419,0
481,-0.07392613793266803,0
482,-0.102723816527618,0
483,-0.10475609238303321,0
484,2.528055745495746,0
485,6.840970761462091,0
486,-1.9559767733151272,0
487,0.2444756021399386,0
488,0.019816205103775644,0
489,-0.06611640806842639,0
490,-0.008075524264655938,0
491,-0.02058624836172115,0
492,-0.001562522671633513,0
493,-0.010540809130072222,0
494,0.04197608980715732,0
495,0.014838124793447885,0
496,-0.0034550678572759924,0
497,-0.07737522540243762,0
498,-0.006843564567831851,0
499,-0.01019478512788325,0
500,0.26055818554579613,0
501,4.722177802726697,0
502,4.79321568875141,0
503,-3.0633035605580528,0
504,1.5916076670319277,0
505,-0.7768004834317535,0
506,0.23950550504393653,0
507,-0.118298005042797,0
508,-0.031220506656376094,0
509,-0.034510651721317356,0
510,0.0167280399868835,0
511,-0.11119010698207296,0
512,-0.16040955357158238,0
513,-0.037681597582575894,0
514,0.06008009564031346,0
515,-0.0693192780761261,0
516,-0.016844779492684425,0
517,0.9857171679965797,0
518,6.488942420986455,0
519,1.221637083514884,0
520,-1.7607779777166686,0
521,1.129912015010829,0
522,-0.5816584140024418,0
523,0.1932293317573564,0
524,-0.16823636942033537,0
525,0.1050837399525753,0
526,-0.08743538401906584,0
527,0.013517621428310672,0
528,-0.06236712046184914,0
529,-0.10144222532696193,0
530,-0.04198459838317029,0
531,0.020909136243505495,0
532,-0.04676910671514986,0
533,-0.049814226493660144,0
534,2.6372743918195947,0
535,6.731978324790177,0
536,-2.0557625807862894,0
537,0.20442487211981103,0
538,0.052309199641630166,0
539,-0.06104879557464206,0
540,-0.023609277303174397,0
541,0.09592170058141199,0
542,-0.1369155660076951,0
543,0.0012480463004194697,0
544,-0.12437663979597213,0
545,-0.014453984426008825,0
546,0.017231255145126925,0
547,0.022589572888465775,0
548,-0.01811382221948666,0
549,-0.052971607687075505,0
550,0.2211563870729339,0
551,4.776213006604238,0
552,4.718251267966379,0
553,-3.0298996394547952,0
554,1.4980247625683436,0
555,-0.8637411541680546,0
556,0.30768735420705584,0
557,-0.2187828673213723,0
558,0.01313586391175061,0
559,-0.05275934588183548,0
560,0.018090183927644665,0
561,-0.01607679018625189,0
562,-0.04831640470305302,0
563,-0.05425147489977117,0
564,-0.022747374130167294,0
565,-0.029778662091944255,0
566,-0.06401991288829217,0
567,1.0305439033018442,0
568,6.524999667437794,0
569,1.2338068687008654,0
570,-1.8548982007095003,0
571,1.0680802363671933,0
572,-0.5930343719109911,0
573,0.26834591328559265,0
574,-0.1863015844837485,0
575,-0.034867981924989216,0
576,0.006957548849717839,0
577,-0.1115834534387046,0
578,-0.005157877086487045,0
579,-0.046732338567470694,0
580,-0.109347350040264,0
581,-0.11628799673689161,0
582,-0.060295936975980124,0
583,-0.010885444068917647,0
584,2.57542434767726,0
585,6.820426848025789,0
586,-2.101391325790543,0
587,0.256674042367831,0
588,0.060353470919387184,0
589,-0.12771346006936307,0
590,-0.02053681562578094,0
591,-0.09649856267934961,0
592,-0.07783562499642024,0
593,-0.026793281762095576,0
594,-0.038195623615005364,0
595,-0.0936676493324386,0
596,-0.006930453320417876,0
597,-0.14133417457407818,0
598,-0.11146291680415275,0
599,-0.02933994702392615,0
600,0.33424461638039193,0
601,4.767629311242403,0
602,4.683721392705081,0
603,-3.065648560873286,0
604,1.5110891781490832,0
605,-0.7678341706207282,0
606,0.27597498099588497,0
607,-0.11358378003850267,0
608,0.06132596769902897,0
609,-0.02380969751996586,0
610,-0.05052636581502806,0
611,-0.01896661806144655,0
612,0.01683449353608036,0
613,-0.037883638649152486,0
614,-0.13718453766155922,0
615,0.030629982617101405,0
616,-0.07878926469969501,0
617,0.9878643336670112,0
618,6.462944696306666,0
619,1.207552461974674,0
620,-1.8372219394160272,0
621,1.0931241057330916,0
622,-0.6919588298283826,0
623,0.15229991647277577,0
624,-0.16686849910502435,0
625,-0.10009944493236933,0
626,-0.11941170523940944,0
627,-0.13471711093035915,0
628,-0.12822329425765727,0
629,-0.12181768250505062,0
630,-0.06781332740026405,0
631,-0.0007242156716003034,0
632,-0.05013722309593818,0
633,-0.05104940080962222,0
634,2.6013509465938185,0
635,6.801922079364512,0
636,-2.0081022672626854,0
637,0.3196176871469905,0
638,0.025115449269485765,0
639,-0.05496731913128484,0
640,0.045862087399888486,0
641,0.07528002388108034,0
642,0.04052246328516086,0
643,-0.05182128247168305,0
644,-0.07858259376579704,0
645,-0.020321170255312396,0
646,-0.070780517093798,0
647,-0.01632214276183875,0
648,0.01797457123772244,0
649,-0.06243582937973681,0
650,0.24855466230448534,0
651,4.712259800749548,0
652,4.647887103130999,0
653,-3.007052353476278,0
654,1.5860291019269188,0
655,-0.8158124037135921,0
656,0.27833119311008053,0
657,-0.10518144795113013,0
658,-0.007374271305977977,0
659,-0.02728471194798083,0
660,-0.038875075518079234,0
661,-0.02582071402157484,0
662,-0.05330212783506556,0
663,-0.03261579243721769,0
664,-0.006789292671502198,0
665,0.07730137884682459,0
666,-0.0017717565425556933,0
667,1.1313159334885188,0
668,6.542545510334616,0
669,1.2626199193817007,0
670,-1.7618278330165384,0
671,1.1655029293321508,0
672,-0.6770237303818615,0
673,0.26614117052226294,0
674,-0.0638783709690365,0
675,-0.04173912989078696,0
676,0.03220523532227226,0
677,-0.06602776785654738,0
678,-0.002885017244175371,0
679,-0.0542101170026336,0
680,-0.1051440164445091,0
681,-0.0889238822425319,0
682,-0.045545021529908636,0
683,-0.01817164689500316,0
684,2.6340287582921946,0
685,6.751059635548864,0
686,-2.06794122247724,0
687,0.2427670830157717,0
688,0.03949910578552779,0
689,-0.10014426487517043,0
690,-0.07365401594769475,0
691,0.012237273942753986,0
692,-0.05419490345074191,0
693,-0.11850961105965901,0
694,-0.012812015011663694,0
695,0.015555697362829302,0
696,-0.06814805049693835,0
697,0.02663523032166161,0
698,-0.08010870346593507,0
699,-0.12711254842973363,0
700,0.24399172934722935,0
701,4.713214514612839,0
702,4.686928707281749,0
703,-3.072150208583875,0
704,1.4969114508037158,0
705,-0.7953935104101454,0
706,0.3532087760611426,0
707,-0.11138657760127109,0
708,0.0038425897798246354,0
709,-0.012253594656676213,0
710,-0.03754359353495473,0
711,-0.08040659114302069,0
712,-0.1370038204477117,0
713,-0.15899428750843497,0
714,0.007278031662691947,0
715,-0.10050507625009707,0
716,-0.051097343564779706,0
717,0.9828692389552757,0
718,6.564029533467376,0
719,1.1513211575332358,0
720,-1.943713895480147,0
721,1.1404421607438204,0
722,-0.7231407244205894,0
723,0.17567509273685444,0
724,-0.12243407369906842,0
725,-0.03867344406860568,0
726,-0.07753938240501101,0
727,0.010810795374650066,0
728,-0.01631639060045499,0
729,0.0529779672403873,0
730,-0.03522979772251686,0
731,0.045742999488180995,0
732,-0.01716292760153238,0
733,0.008126742127173528,0
734,2.667055216536881,0
735,6.770535782138128,0
736,-2.1009134810700023,0
737,0.31951844998397244,0
738,0.012330780512153729,0
739,-0.057936648201282304,0
740,-0.06436190053487952,0
741,-0.0372606961185885,0
742,-0.05763013895011525,0
743,-0.034759255617635994,0
744,-0.07132608319172902,0
745,0.1036012755321847,0
746,-0.13706735863167308,0
747,0.028840952311150286,0
748,0.03931346001528143,0
749,0.00685419910133458,0
750,0.30247433714783706,0
751,4.81685822504493,0
752,4.7194471872230075,0
753,-3.042356050226713,0
754,1.5326551031068385,0
755,-0.7684679295124259,0
756,0.27928520246819466,0
757,-0.06379596975227406,0
758,0.09520318406945887,0
759,-0.0792604514024833,0
760,0.0017201125555884635,0
761,0.07078415384822156,0
762,-0.0007259762106326985,0
763,-0.04541204512347355,0
764,-0.031307798428378344,0
765,-0.03285737836146597,0
766,-0.008882865933941865,0
767,0.9984222485605415,0
768,6.57311105078922,0
769,1.1507671835442976,0
770,-1.7670820195126091,0
771,1.2675556173358555,0
772,-0.7144885904882382,0
773,0.29517760537104265,0
774,-0.06329960356757175,0
775,0.029351308637327253,0
776,-0.039018266296171805,0
777,-0.006883685222959683,0
778,-0.0039589989008825995,0
779,0.010207105085159953,0
780,0.14820820204246013,0
781,-0.014220320725074193,0
782,-0.051274227400549766,0
783,0.11866434433613249,0
784,2.648977392237334,0
785,6.869277479699493,0
786,-2.01904644472452,0
787,0.3605609712564296,0
788,0.0790282767766963,0
789,-0.04830557197082939,0
790,-0.013548444328083734,0
791,-0.013235035621336693,0
792,0.08295546311052313,0
793,-0.053201886173492516,0
794,0.01372975214990995,0
795,0.049541175608130594,0
796,-0.04047766857098378,0
797,0.020126868979374563,0
798,0.017657248363669907,0
799,0.014518528973144155,0
800,0.38232659555318615,0
801,4.724946745444282,0
802,4.650922976684798,0
803,-3.0011490423824227,0
804,1.5090899251515029,0
805,-0.717423529133815,0
806,0.31904647908839234,0
807,-0.17650638621243817,0
808,-0.015889304641314963,0
809,-0.0702322133431104,0
810,-0.004770413409876589,0
811,0.005244535176671616,0
812,-0.009593604959743502,0
813,-0.04850419802429685,0
814,0.03185213593494096,0
815,-0.005546612613248842,0
816,0.0007853083421197719,0
817,1.1889338864062406,0
818,6.563095438478902,0
819,1.2692467019735398,0
820,-1.6824179013750375,0
821,1.1781862004549264,0
822,-0.5457138773596474,0
823,0.22726311512237507,0
824,-0.040719670614774384,0
825,0.024483744193658577,0
826,-0.0001603719681843481,0
827,-0.04067523287029309,0
828,0.028597088032913394,0
829,0.027283113686817205,0
830,0.03307710546281336,0
831,0.015355564903735823,0
832,-0.06625390345971356,0
833,0.023057246666491078,0
834,2.66418051811895,0
835,6.794642333747787,0
836,-2.112258298400365,0
837,0.44460780887986084,0
838,0.0324098785916581,0
839,-0.005334435637148291,0
840,-0.008378649502662157,0
841,-0.09498656879308312,0
842,-0.0728597748862599,0
843,-0.07315276738138363,0
844,0.025452394520728096,0
845,0.0069620638766980485,0
846,-0.0029502367068725867,0
847,0.0030466883969247766,0
848,0.03482685854735431,0
849,-0.028956027309898873,0
850,0.27185190623976085,0
851,4.7427711457596295,0
852,4.641097601238103,0
853,-3.03862957916428,0
854,1.5751272720209153,0
855,-0.6739427158011143,0
856,0.30958377647961405,0
857,-0.1887377829984173,0
858,0.0579390814713845,0
859,0.031843414514863715,0
860,0.01557538143678917,0
861,0.027663325905933442,0
862,-0.07419133260443367,0
863,-0.12280843270745624,0
864,-0.06407121739633574,0
865,0.05490788108380262,0
866,0.020189219877191106,0
867,1.0105736984350144,0
868,6.562371206576081,0
869,1.0933959541542304,0
870,-1.8339734546998991,0
871,1.1763457112646074,0
872,-0.6183178914025232,0
873,0.20020563472990024,0
874,-0.09229530073742753,0
875,-0.023160082564866853,0
876,-0.08354996596182677,0
877,-0.10368279563946817,0
878,0.06578688710193814,0
879,0.021780031258769275,0
880,-0.008451897267083293,0
881,-0.0755831860393865,0
882,-0.037609408593097686,0
883,0.0821469587358,0
884,2.592483920969385,0
885,6.762808892546115,0
886,-2.062942919951055,0
887,0.34620303401123637,0
888,0.016791002906832407,0
889,-0.0366112206675797,0
890,-0.014003618845050953,0
891,-0.0245521847399994,0
892,-0.04682808129854529,0
893,0.0037646160948120594,0
894,-0.04962104597449925,0
895,-0.06680758173604909,0
896,-0.06272092989500468,0
897,-0.024623490038140513,0
898,-0.07626713328854612,0
899,-0.04902475414990213,0
900,0.18788102374103172,0
901,4.777696920078131,0
902,4.622069632838272,0
903,-3.086396357364098,0
904,1.5432417608644582,0
905,-0.8448679925101601,0
906,0.2966972671324625,0
907,-0.13307607542811098,0
908,-0.03803650424995133,0
909,-0.07545032867784413,0
910,-0.06376603249668672,0
911,-0.10571472784802362,0
912,0.00033266791810648844,0
913,-0.07410252502764408,0
914,0.009275776337136978,0
915,-0.03882456161995912,0
916,-0.07163569295263432,0
917,1.1124613911933898,0
918,6.550144329945788,0
919,1.0519478031249532,0
920,-1.8526925610332552,0
921,0.9924591581034548,0
922,-0.7131016193192927,0
923,0.1102689954278305,0
924,-0.07642307497874334,0
925,-0.05438433812614768,0
926,-0.1048546988948118,0
927,-0.0768688305028894,0
928,0.013249584113799263,0
929,-0.14116568402069782,0
930,-0.03950891350480987,0
931,-0.0881260196148022,0
932,0.03378292341942502,0
933,0.06446596922376963,0
934,2.75209466778077,0
935,6.696046923189189,0
936,-2.1428625778542267,0
937,0.3821467307427508,0
938,-0.022915257234086824,0
939,-0.1034248130319007,0
940,0.015754760827529267,0
941,0.0035256872975093414,0
942,0.032036226223455984,0
943,-0.03364350561844885,0
944,0.06572144919570086,0
945,-0.04073772675487599,0
946,0.00883855691604211,0
947,-0.056638002417363595,0
948,0.008485837422459789,0
949,-0.03613288163516286,0
950,0.3392133484726693,0
951,4.832092601089091,0
952,4.6246922162614315,0
953,-3.021820124460459,0
954,1.5132102491906205,0
955,-0.7441405557503721,0
956,0.26962902832842145,0
957,-0.1983190455372846,0
958,0.00917862052982503,0
959,0.020663171924533583,0
960,-0.09462895452167772,0
961,-0.08552208821936749,0
962,0.014502077376943352,0
963,0.03668559296972039,0
964,-0.04134853724569594,0
965,0.03714219733776746,0
966,0.046114418674176025,0
967,1.2036336841118145,0
968,6.704051788102434,0
969,1.1643553755578535,0
970,-1.7566179943947957,0
971,1.1178923877157108,0
972,-0.5307066715580299,0
973,0.3091962393416524,0
974,-0.026899153321355604,0
975,0.029189743514317617,0
976,0.03496415025916166,0
977,-0.09808635163015188,0
978,-0.03280445656698261,0
979,0.12565939254461442,0
980,0.09641543832399799,0
981,0.013008541612345208,0
982,-0.008447989959420848,0
983,-0.014188263282888774,0
984,2.7226959632348224,0
985,6.745000893890884,0
986,-2.1447002833996835,0
987,0.2987239690301332,0
988,0.020364433577997047,0
989,-0.06718943837160354,0
990,-0.005120684752319525,0
991,0.03307145565631678,0
992,-0.09483952631978798,0
993,0.04489233418180401,0
994,0.008192552903162547,0
995,0.03923526675572907,0
996,0.030243020555045498,0
997,-0.003340523764430463,0
998,-0.00910819695874732,0
999,-0.007953489972135762,0
1000,0.40898111660166536,0
1001,4.795491292226102,0
1002,4.6036484972011715,0
1003,-2.989887786586639,0
1004,1.6799290703790997,0
1005,-0.7453443876002409,0
1006,0.3347885144696839,0
1007,-0.03892285449652114,0
1008,-0.0004780182720977924,0
1009,-0.010527312781972466,0
1010,0.040476959921590026,0
1011,0.06892465218511722,0
1012,0.03561208417063679,0
1013,-0.11280935207158828,0
1014,0.10265161325338296,0
1015,0.10435099868827814,0
1016,-0.011196296273500314,0
1017,1.1257920080544352,0
1018,6.706991944450468,0
1019,1.1757754088915993,0
1020,-1.7557663128038494,0
1021,1.1860971115183845,0
1022,-0.5488632055220364,0
1023,0.2771632887956116,0
1024,-0.07012548586149292,0
1025,-0.03432320297930608,0
1026,0.03397798382471448,0
1027,0.012269041467666844,0
1028,-0.02333067304364613,0
1029,-0.05062680145289616,0
1030,0.1510662865833227,0
1031,-0.024485159208220073,0
1032,0.026240278069690613,0
1033,0.10350327027732893,0
1034,2.911699687536186,0
1035,6.739256104848596,0
1036,-2.0272124276467816,0
1037,0.5199867634083887,0
1038,0.054265197598687004,0
1039,-0.03824195756380925,0
1040,0.10203964153021428,0
1041,0.054946354586186893,0
1042,0.09480309120591413,0
1043,0.16089239700539876,0
1044,0.054372409960118974,0
1045,0.07396984803707654,0
1046,0.0717879353726103,0
1047,0.179031976995375,0
1048,0.14264364599282545,0
1049,0.04951733423293773,0
1050,0.3916306581175459,0
1051,4.960797250617069,0
1052,4.665584110711912,0
1053,-2.888794387945122,0
1054,1.5998399642100538,0
1055,-0.762674119973034,0
1056,0.31664340394149376,0
1057,-0.1451718697104571,0
1058,0.04959546957083438,0
1059,0.004337500299199715,0
1060,0.023082915983219984,0
1061,0.15627871748324124,0
1062,-0.036008884574818184,0
1063,-0.01723925814140196,0
1064,0.01971504503541436,0
1065,0.0189355865577155,0
1066,-0.02784868882380653,0
1067,1.1650126299424082,0
1068,6.661934704418977,0
1069,1.017981797758771,0
1070,-1.6515827734384714,0
1071,1.1303940452965646,0
1072,-0.5605085731159317,0
1073,0.2631845061224299,0
1074,-0.057958741484063894,0
1075,0.07580450981917494,0
1076,0.09921789140588236,0
1077,0.11225656731318669,0
1078,0.11870064737159039,0
1079,0.15394090894129664,0
1080,0.049709596242063864,0
1081,0.1167280514567792,0
1082,0.13998880310022432,0
1083,0.13601649433439236,0
1084,2.8462509614608185,0
1085,6.877256846016283,0
1086,-2.2345072166777693,0
1087,0.49383096762549766,0
1088,-0.013371106826833998,0
1089,0.01268163194455136,0
1090,-0.020600014839422004,0
1091,0.07503487004913403,0
1092,0.01922078742123902,0
1093,-0.010190485377826922,0
1094,0.13193313898538506,0
1095,0.035799794776700276,0
1096,0.08595346732505235,0
1097,0.010241181277227507,0
1098,0.11084573329336742,0
1099,-0.004432563299570411,0
1100,0.34965170412204516,0
1101,4.9825858976223305,0
1102,4.663770564115289,0
1103,-2.977415857125962,0
1104,1.7136621307721667,0
1105,-0.6631257298812607,0
1106,0.3649802764268681,0
1107,-0.02511547226745979,0
1108,0.10941756117582611,0
1109,0.04523815198200326,0
1110,0.05831332666367959,0
1111,0.08534818022088389,0
1112,-0.04457560361556084,0
1113,0.03646123289188618,0
1114,0.05768027265644099,0
1115,-0.009071126935080366,0
1116,-0.014303598498090736,0
1117,1.2325686658295714,0
1118,6.72370437124222,0
1119,1.1143628108713204,0
1120,-1.5821878336539703,0
1121,1.233075728085217,0
1122,-0.6519128549551378,0
1123,0.26706890194044286,0
1124,-0.029247168277518637,0
1125,0.12107999779172202,0
1126,0.00825560678911232,0
1127,0.020445018678175712,0
1128,0.024556684824683074,0
1129,-0.03042348012956294,0
1130,-0.014663112760482037,0
1131,-0.04432837096093978,0
1132,0.02644992802423601,0
1133,0.017519441573549944,0
1134,2.793260615779642,0
1135,6.774910749195144,0
1136,-2.0624397485344836,0
1137,0.5139893022274469,0
1138,0.057643515590318196,0
1139,0.026432338537302296,0
1140,0.08690290486483615,0
1141,-0.06039647595016069,0
1142,0.02532726803694175,0
1143,0.0071156586862388405,0
1144,0.031123274997516496,0
1145,0.03767011126818444,0
1146,-0.013164672819025024,0
1147,-0.017607470674550624,0
1148,0.06638364247082128,0
1149,0.0972977742261109,0
1150,0.3071378522089789,0
1151,4.966924200245746,0
1152,4.576946153148079,0
1153,-3.0097834365291103,0
1154,1.5729242957305511,0
1155,-0.7713385754656263,0
1156,0.28867510422647735,0
1157,-0.10748828071715108,0
1158,0.03520158036430615,0
1159,0.013802574899623103,0
1160,-0.03772647232017473,0
1161,-0.027952157240887395,0
1162,-0.02718237974935308,0
1163,-0.0021567342114258807,0
1164,-0.027381526903891104,0
1165,-0.07815837775498861,0
1166,-0.09999405892922686,0
1167,1.0838971331246283,0
1168,6.590584879805033,0
1169,1.0676413913450165,0
1170,-1.662347751026221,0
1171,1.1995178275168914,0
1172,-0.49180633953740444,0
1173,0.196143175601023,0
1174,-0.06123808606141501,0
1175,0.06451187374849315,0
1176,0.08796055006772348,0
1177,0.05898245035336797,0
1178,0.05993378122381034,0
1179,0.03664098558311805,0
1180,0.02454162703858176,0
1181,0.01925565161488563,0
1182,-0.03147900391932072,0
1183,0.06753324341771147,0
1184,2.7514494742502364,0
1185,6.756267555607324,0
1186,-2.149081461173105,0
1187,0.4897077915708598,0
1188,-0.0433478754503152,0
1189,-0.11984386800400754,0
1190,-0.0324552928145627,0
1191,-0.054686197010911264,0
1192,-0.10949487755787737,0
1193,-0.04736323320379403,0
1194,-0.05302043877677771,0
1195,-0.06197172611317991,0
1196,0.04096223300958307,0
1197,-0.04136204887399391,0
1198,0.015960449519444482,0
1199,-0.00766318353797011,0
1200,0.25796682788030567,0
1201,4.93736814766895,0
1202,4.487219343602094,0
1203,-2.973509890353538,0
1204,1.5089375696883502,0
1205,-0.8156707870522092,0
1206,0.3017588282012544,0
1207,-0.06338858004937399,0
1208,0.12282596517722474,0
1209,0.004725318797395378,0
1210,0.09614860511976414,0
1211,0.050299641567856795,0
1212,0.04506897728530055,0
1213,0.05482035376601484,0
1214,0.04994445636727572,0
1215,0.04489617046409686,0
1216,0.07957703097734788,0
1217,1.1512810440426597,0
1218,6.638816037090228,0
1219,1.0217188462151454,0
1220,-1.636144426297382,0
1221,1.0504265077499435,0
1222,-0.5620496697904915,0
1223,0.24158023522488398,0
1224,-0.09024080309707448,0
1225,0.07292824934224564,0
1226,-0.02627451101045406,0
1227,0.059552674431847696,0
1228,-0.06153718159579123,0
1229,-0.0022190511942487235,0
1230,-0.0710490842062341,0
1231,-0.006850282940838174,0
1232,0.003168890742962994,0
1233,0.016864046016645175,0
1234,2.7332420176169525,0
1235,6.69468176242361,0
1236,-2.1132113273934254,0
1237,0.45795891198511113,0
1238,-0.06352487906482313,0
1239,-0.11448542861888969,0
1240,0.11202272250631023,0
1241,0.083353666850909,0
1242,-0.024914289650945668,0
1243,0.02782065865362417,0
1244,0.13689010241007135,0
1245,-0.03315988545954897,0
1246,0.05778101138092381,0
1247,0.10770732348123538,0
1248,0.05760485405786961,0
1249,0.12297995177138885,0
1250,0.3338637299017487,0
1251,5.074362835459026,0
1252,4.688941704500343,0
1253,-2.923944255364424,0
1254,1.7111372172128116,0
1255,-0.6793651405583375,0
1256,0.4211813484612669,0
1257,-0.02219957065576312,0
1258,0.08674100393585465,0
1259,0.03871661554294262,0
1260,-0.00035293345058808804,0
1261,-0.025431338025642868,0
1262,-0.09203480458701635,0
1263,-0.006110111067873666,0
1264,-0.07410522519211653,0
1265,0.06234465683213038,0
1266,-0.034384444883097595,0
1267,1.096666227021061,0
1268,6.582140799166967,0
1269,0.9486333193416131,0
1270,-1.6324412879736123,0
1271,1.1142283916561202,0
1272,-0.5982002039236053,0
1273,0.2769861990394409,0
1274,-0.054801382099627566,0
1275,-0.04081693562264831,0
1276,-0.04114720315903773,0
1277,-0.01699481189915049,0
1278,-0.09326454068488942,0
1279,0.04315754227081457,0
1280,-0.020954910742793126,0
1281,0.016671177368980217,0
1282,-0.011786819240561242,0
1283,0.02093915189514211,0
1284,2.9110528331368144,0
1285,6.73499862446716,0
1286,-2.151000471272217,0
1287,0.5784122800357169,0
1288,0.06539755245418802,0
1289,0.0035461968399968964,0
1290,0.06501189499832832,0
1291,0.1908616352104316,0
1292,-0.046697392438274046,0
1293,-0.024770757324713934,0
1294,0.007630103103389872,0
1295,0.05524860696699445,0
1296,0.0626151237227959,0
1297,-0.13378490283244887,0
1298,0.03147076939250171,0
1299,-0.027439708696638372,0
1300,0.26327426101084783,0
1301,4.920276982566877,0
1302,4.439932917224237,0
1303,-3.049098511977247,0
1304,1.600153105123666,0
1305,-0.7500038348654413,0
1306,0.30563504929702284,0
1307,-0.23300225004166594,0
1308,-0.004047175862961152,0
1309,0.0014275280272390417,0
1310,-0.03696639059671533,0
1311,-0.05519689090067119,0
1312,-0.04741355079767442,0
1313,0.05787805795617982,0
1314,0.017699163570156256,0
1315,0.020248804460890352,0
1316,-0.06538025036493872,0
1317,1.1900476993557858,0
1318,6.5821538485885425,0
1319,0.9718530084367611,0
1320,-1.6571967566580932,0
1321,1.0923043934455041,0
1322,-0.5431607077767204,0
1323,0.2155629695107486,0
1324,-0.017456456361851246,0
1325,-0.08132957313256692,0
1326,-0.11836294705498686,0
1327,-0.014651198137533648,0
1328,0.03454469037865926,0
1329,-0.039133796505906995,0
1330,-0.011588854759938596,0
1331,-0.06497574202436414,0
1332,-0.04180773524837339,0
1333,0.06380049521299194,0
1334,2.7841275244581465,0
1335,6.64995871082753,0
1336,-2.2426087643049533,0
1337,0.450802668654918,0
1338,-0.07204603354927674,0
1339,-0.09317166368776053,0
1340,-0.00011053690186089982,0
1341,0.0304385100621979,0
1342,-0.025285644550959087,0
1343,-0.02672086875947384,0
1344,-0.09679289895777038,0
1345,0.034293382764042285,0
1346,-0.027239595823714397,0
1347,0.04121704435852919,0
1348,-0.01776514008952375,0
1349,-0.06069956347351183,0
1350,0.28022555156685736,0
1351,4.930809633813651,0
1352,4.429976844702347,0
1353,-2.9977777548392317,0
1354,1.5125375254632736,0
1355,-0.7983641290892739,0
1356,0.1910535573085734,0
1357,-0.05141007711536197,0
1358,-0.048436201222836796,0
1359,0.05571525877245889,0
1360,-0.05569290669549738,0
1361,0.027781088255199596,0
1362,0.001388015513697067,0
1363,0.06150882095485654,0
1364,-0.009192373335486271,0
1365,-0.016707967648615,0
1366,0.0034458956863783405,0
1367,1.090041698874322,0
1368,6.682817555054196,0
1369,0.9022136226306423,0
1370,-1.6619103829126498,0
1371,1.083884048293578,0
1372,-0.6253926207966684,0
1373,0.29043869225724883,0
1374,-0.0898609590801841,0
1375,-0.09320580633645512,0
1376,0.052150669456125565,0
1377,-0.050003804125389045,0
1378,-0.05482791395791048,0
1379,-0.0594317932471739,0
1380,-0.018071425979820845,0
1381,-0.02119187082752321,0
1382,0.0030418126606288395,0
1383,0.04934119816996771,0
1384,2.812963752161861,0
1385,6.785239536314062,0
1386,-2.2508380024566663,0
1387,0.5165624843814396,0
1388,-0.044824216332115994,0
1389,-0.04522711952348286,0
1390,-0.12094903484670963,0
1391,0.04743801889434112,0
1392,0.03194807277762069,0
1393,-0.08914199197403158,0
1394,-0.03680518467555595,0
1395,-0.05473065349586783,0
1396,-0.031778425991827605,0
1397,-0.08965077314844488,0
1398,0.0084559986283273,0
1399,0.006079511440564941,0
1400,0.38197555065541283,0
1401,4.901664300451951,0
1402,4.384978526495436,0
1403,-3.0181058490943538,0
1404,1.568950110624246,0
1405,-0.8525409192984009,0
1406,0.31028887730307664,0
1407,-0.1516076450394783,0
1408,0.03196093899478689,0
1409,0.01894143356664246,0
1410,-0.01199557643998246,0
1411,0.05186399577440701,0
1412,0.021383799058582446,0
1413,0.04842841067006165,0
1414,0.04181039056497517,0
1415,0.0912061618175036,0
1416,-0.06981142690202734,0
1417,1.1721196879046605,0
1418,6.6952856166306995,0
1419,0.8679627986684793,0
1420,-1.6072983199113493,0
1421,0.9624535390661724,0
1422,-0.6215347282743414,0
1423,0.1540842266044031,0
1424,-0.16469253252735835,0
1425,-0.00488202985810127,0
1426,-0.06821442181219309,0
1427,-0.04719141633641427,0
1428,0.04416611330098567,0
1429,-0.027056710366450402,0
1430,-0.06731411149687155,0
1431,0.008493102613935925,0
1432,0.10572451984185391,0
1433,0.036972640476324536,0
1434,2.858975632583034,0
1435,6.720430058903794,0
1436,-2.234524334886023,0
1437,0.6049742544896872,0
1438,-0.0710019560563259,0
1439,0.05248762904699775,0
1440,-0.0534632122910198,0
1441,-0.012183456139261953,0
1442,0.07937571485545072,0
1443,0.012999198948205988,0
1444,0.046518660122507965,0
1445,-0.015289961333567205,0
1446,0.009394555680993621,0
1447,0.007956905961974528,0
1448,-0.1179473985586208,0
1449,-0.008933922651339708,0
1450,0.2383966850689856,0
1451,4.954837439033226,0
1452,4.346714728237421,0
1453,-2.94183178089042,0
1454,1.4696867180269497,0
1455,-0.8472610164483958,0
1456,0.27002653650398933,0
1457,-0.20798239133762736,0
1458,-0.03314681032744627,0
1459,-0.027601983812717203,0
1460,-0.0625752334777717,0
1461,-0.04045139889596415,0
1462,0.07236014375658861,0
1463,-0.005376216442551717,0
1464,-0.03275950554731478,0
1465,0.059463082170094494,0
1466,-0.0644841865829527,0
1467,1.1906063978721322,0
1468,6.672254472572059,0
1469,0.8228615199934599,0
1470,-1.5800600764237867,0
1471,1.0927103502046198,0
1472,-0.6264176983865197,0
1473,0.24755945123878287,0
1474,-0.05020902462332684,0
1475,-0.014618021252068762,0
1476,-0.014793382009156258,0
1477,-0.0027542047732859176,0
1478,-0.03847102322944505,0
1479,0.10864691073139776,0
1480,0.02953320293571881,0
1481,0.09520940777172378,0
1482,0.019130102690824033,0
1483,0.039671867644431966,0
1484,2.7853064502365292,0
1485,6.7647065612420105,0
1486,-2.223126873022283,0
1487,0.5776885558588125,0
1488,-0.12532024080668464,0
1489,0.011751197891293174,0
1490,0.00851156418823372,0
1491,-0.026988095606504763,0
1492,0.11933948204123423,0
1493,-0.012325219717140248,0
1494,0.06188641708851746,0
1495,-0.008621787861836105,0
1496,0.009649827814883116,0
1497,0.08128173052230331,0
1498,0.07324070204804056,0
1499,-0.015301120754854007,0
1500,0.2902845539875455,0
1501,5.025697418864228,0
1502,4.274720600946542,0
1503,-3.083521356047647,0
1504,1.4939859857069362,0
1505,-0.7509408434985817,0
1506,0.2679386608728262,0
1507,-0.23296653996527128,0
1508,0.08686520802067269,0
1509,-0.05629521801004557,0
1510,-0.06531181808040093,0
1511,-0.07146750760724306,0
1512,0.019863466501835295,0
1513,0.06393546105326614,0
1514,-0.02283479501157102,0
1515,0.029839185204503023,0
1516,-0.028401852581309686,0
1517,1.2384561932083018,0
1518,6.634951280625584,0
1519,0.7915061648549054,0
1520,-1.5534300780314185,0
1521,1.0640723850669989,0
1522,-0.4963192973051255,0
1523,0.21794205068889955,0
1524,-0.18098599999747272,0
1525,-0.021923159553317223,0
1526,0.028920620593566742,0
1527,0.05537130016563489,0
1528,-0.02534576190806695,0
1529,-0.042787060918327506,0
1530,0.04290051873118119,0
1531,-0.00435113993147054,0
1532,-0.004806284509139235,0
1533,-0.002858647757389504,0
1534,2.8746143947263993,0
1535,6.734559550787192,0
1536,-2.2226460511037662,0
1537,0.5939824055303217,0
1538,-0.11163499266674794,0
1539,0.05182412576667905,0
1540,0.057932092454508595,0
1541,0.0210209054576499,0
1542,0.031139736961324823,0
1543,0.07410614981677377,0
1544,-0.004361291322686098,0
1545,0.005025825248021216,0
1546,-0.022877832944467043,0
1547,-0.1041878173494005,0
1548,-0.09777610288801486,0
1549,-0.04678521914934228,0
1550,0.44983514295436133,0
1551,4.881479274898287,0
1552,4.3596281790110565,0
1553,-2.9757055688360667,0
1554,1.5441512661219052,0
1555,-0.7936891429155148,0
1556,0.23039301672962437,0
1557,-0.23343735839502494,0
1558,-0.11248705936189995,0
1559,-0.12710142705372868,0
1560,-0.06465341290921708,0
1561,-0.0397583209200596,0
1562,-0.02452154610977327,0
1563,0.07431906803544917,0
1564,-0.02565245975826631,0
1565,-0.0026978882056646683,0
1566,-0.029094256037996126,0
1567,1.2387070226854533,0
1568,6.703289625333856,0
1569,0.7986660557414473,0
1570,-1.5457633615665576,0
1571,1.0455915400038016,0
1572,-0.5581614377382661,0
1573,0.13700609885434306,0
1574,-0.03182885196751115,0
1575,-0.004639676242708644,0
1576,-0.0014802229812995327,0
1577,0.0868324890441586,0
1578,0.10281119242552214,0
1579,0.0067395894303729905,0
1580,0.04190893313633798,0
1581,0.1157845014593826,0
1582,-0.008858320119328333,0
1583,-0.0017058548485953673,0
1584,2.923617743520327,0
1585,6.634421236085695,0
1586,-2.3804531033649745,0
1587,0.6143906480150828,0
1588,-0.1787511839202406,0
1589,-0.12550236547979302,0
1590,-0.04996009155379953,0
1591,0.015393091534636354,0
1592,0.003207227627685119,0
1593,-0.05312509977307043,0
1594,-0.1217633713559749,0
1595,-0.00607081214061516,0
1596,-0.09364316146001593,0
1597,-0.06922246070009504,0
1598,-0.07193036784580556,0
1599,-0.04247967259321008,0
1600,0.40424895496702834,0
1601,5.038195661410024,0
1602,4.32247818825385,0
1603,-3.001041033931656,0
1604,1.5174640922914036,0
1605,-0.8119116675607353,0
1606,0.25107784340956596,0
1607,-0.16683177133640362,0
1608,-0.022635350307963677,0
1609,-0.07141012403788304,0
1610,-0.09101815959693695,0
1611,-0.01994822961449224,0
1612,-0.12135428521287786,0
1613,-0.13074522594220614,0
1614,-0.1002027123805545,0
1615,-0.06258114973405912,0
1616,-0.16470155820794474,0
1617,1.1381113948034856,0
1618,6.651852570593587,0
1619,0.6940520101064956,0
1620,-1.6952064873509218,0
1621,0.8690633763579328,0
1622,-0.6636375883855828,0
1623,0.008132433862683669,0
1624,-0.27253035432957695,0
1625,-0.04750175145714107,0
1626,-0.22085008865788608,0
1627,-0.09216278233514952,0
1628,-0.15002718982633206,0
1629,-0.06418330273545435,0
1630,0.004766592064277195,0
1631,-0.09473333871994367,0
1632,-0.007009149641969012,0
1633,0.0016965670952809528,0
1634,2.82744125468914,0
1635,6.489878087637067,0
1636,-2.389615677095796,0
1637,0.5278560993360034,0
1638,-0.09369918191356755,0
1639,-0.12279811679618227,0
1640,-0.051436721086060816,0
1641,-0.10261006085263419,0
1642,-0.03382709223281473,0
1643,-0.08586969942036715,0
1644,-0.028365159398760706,0
1645,-0.0858501057810101,0
1646,-0.000509603295603081,0
1647,0.03483211934959793,0
1648,-0.012632135033930396,0
1649,-0.08504839914705772,0
1650,0.1860605610316748,0
1651,5.007586532060128,0
1652,4.3107121730399305,0
1653,-2.9961619366689622,0
1654,1.5715997169287925,0
1655,-0.9213365856172413,0
1656,0.21518853896428522,0
1657,-0.33288818292006583,0
1658,-0.0951937779775554,0
1659,-0.11120082748696193,0
1660,-0.21365945424347524,0
1661,-0.13339771454026492,0
1662,0.001663755072803294,0
1663,-0.1406669128673106,0
1664,-0.1887364408467817,0
1665,-0.067864643515756,0
1666,-0.1983649362935741,0
1667,1.1743157741108095,0
1668,6.633813055646961,0
1669,0.6739099771025666,0
1670,-1.6079800607034627,0
1671,0.9861096120271863,0
1672,-0.5773497176772328,0
1673,0.0659887985998162,0
1674,-0.15607205906643618,0
1675,-0.03971692294917359,0
1676,-0.06173177440247772,0
1677,-0.07690518752260826,0
1678,-0.05304662065631029,0
1679,-0.055282603431125364,0
1680,-0.14981784216197813,0
1681,-0.05033261279384635,0
1682,-0.07800056190425397,0
1683,0.05835034721745121,0
1684,2.852465630939457,0
1685,6.668713993167257,0
1686,-2.3745445734615145,0
1687,0.6346899796417282,0
1688,-0.15537401766960618,0
1689,-0.09320330248709503,0
1690,-0.05244452322379284,0
1691,-0.12529712856250957,0
1692,-0.055537503250307506,0
1693,-0.04301045999660198,0
1694,-0.12420612488738594,0
1695,-0.07414573528184296,0
1696,-0.020766220854317955,0
1697,-0.03302658040386094,0
1698,0.06555961793001622,0
1699,0.00403432659326014,0
1700,0.3691141646361414,0
1701,5.0900732079307724,0
1702,4.364277451473384,0
1703,-2.9756305007817745,0
1704,1.5921743447172936,0
1705,-0.9117463167540975,0
1706,0.18482412326267772,0
1707,-0.2003567935321677,0
1708,-0.1605333849143463,0
1709,-0.09999412571779798,0
1710,-0.1448724575548464,0
1711,-0.12240146043762089,0
1712,-0.1787277557581159,0
1713,-0.11147726669661467,0
1714,-0.25146026524573106,0
1715,-0.19946875126332694,0
1716,-0.09164499947004416,0
1717,1.145048151787273,0
1718,6.5603518327906,0
1719,0.6384162873506825,0
1720,-1.6705038609066905,0
1721,0.9105273843305645,0
1722,-0.6379935560703557,0
1723,0.18910354697502169,0
1724,-0.16345337010115474,0
1725,-0.08403666438091133,0
1726,-0.19084876308177295,0
1727,-0.037823224674873146,0
1728,-0.10806001228997791,0
1729,-0.0707546465641541,0
1730,0.007927897572604752,0
1731,-0.13589233669287662,0
1732,-0.08504214863290774,0
1733,0.0656371777021487,0
1734,2.884706949343933,0
1735,6.657623192558909,0
1736,-2.355018046823973,0
1737,0.6005232498812157,0
1738,-0.11645140550990399,0
1739,-0.02107304138808868,0
1740,-0.10786038506669707,0
1741,0.07891993640331817,0
1742,-0.0545753991296092,0
1743,-0.049610644045977405,0
1744,-0.03205561542684346,0
1745,-0.11839207060554519,0
1746,0.022764072935457826,0
1747,-0.052451101336577405,0
1748,-0.09789990172908333,0
1749,-0.08178574208592564,0
1750,0.2817483055834713,0
1751,4.969454532966591,0
1752,4.159016026253404,0
1753,-2.980586164367303,0
1754,1.4160523792309094,0
1755,-0.8896708218223633,0
1756,0.20154719697683737,0
1757,-0.27300570695331816,0
1758,-0.1560020815553676,0
1759,-0.04672512597480991,0
1760,-0.025061141669215123,0
1761,-0.0746495179357159,0
1762,0.022429584895311425,0
1763,0.02160842990731493,0
1764,-0.01989830564102807,0
1765,-0.07225518590129809,0
1766,-0.08024089251674213,0
1767,1.2199593307935843,0
1768,6.694830688365166,0
1769,0.7309340465371448,0
1770,-1.4236142931710711,0
1771,1.0188405560756701,0
1772,-0.5565765458468235,0
1773,0.17943731880026506,0
1774,-0.03703230991419284,0
1775,0.021897342952928587,0
1776,-0.004921492795244793,0
1777,-0.04490898310167475,0
1778,-0.012873484739581309,0
1779,-0.0056022632633323174,0
1780,0.012381799888166414,0
1781,-0.11137535403167464,0
1782,-0.06874272971844597,0
1783,0.03111701758021282,0
1784,2.8111479780061543,0
1785,6.594313425799667,0
1786,-2.37614592106844,0
1787,0.5337001249777121,0
1788,-0.20312298038809212,0
1789,0.07808832605438795,0
1790,0.04079111188317998,0
1791,0.062176243412280105,0
1792,0.005525251582356338,0
1793,0.06914121194550467,0
1794,0.0018995129649857986,0
1795,0.03608051746823131,0
1796,-0.03384573016667661,0
1797,0.07440262100382487,0
1798,0.03444499091839674,0
1799,-0.009558861227672324,0
1800,0.3857328204236707,0
1801,5.120029505068531,0
1802,4.333356450894581,0
1803,-2.8683040531242057,0
1804,1.7075394900064047,0
1805,-0.8534689973396242,0
1806,0.22430754921426763,0
1807,-0.07525262986746749,0
1808,0.10117925635385706,0
1809,0.08088086965070596,0
1810,-0.01959232139102865,0
1811,-0.046525482127321514,0
1812,0.024837049215733913,0
1813,-0.005736374563529649,0
1814,0.017162532352073784,0
1815,0.019749893755733487,0
1816,0.0030559280574765095,0
1817,1.2923171466978887,0
1818,6.744580534015528,0
1819,0.6844800993585348,0
1820,-1.481788983399786,0
1821,1.0788036429287262,0
1822,-0.4377438025556354,0
1823,0.29534429014222674,0
1824,0.013192075663758282,0
1825,0.007828129603533913,0
1826,-0.053635563075771164,0
1827,-0.0009925907887714455,0
1828,0.037413717777613625,0
1829,0.047102056146578156,0
1830,0.059610301251944164,0
1831,0.043897339947496894,0
1832,-0.014623935572969638,0
1833,0.06864911742128534,0
1834,2.9371170131379727,0
1835,6.664352712779418,0
1836,-2.3059308429744636,0
1837,0.6126138277875204,0
1838,-0.0419513493695642,0
1839,-0.06330075150492656,0
1840,-0.08086053929883769,0
1841,-0.0072880916007091075,0
1842,-0.03987306553687398,0
1843,-0.058567504954198275,0
1844,-0.014590130029336748,0
1845,0.02789257264042891,0
1846,-0.1675769824398048,0
1847,-0.13155143951037826,0
1848,0.006398946907187675,0
1849,-0.09743635463795161,0
1850,0.2739238643702915,0
1851,5.048311062917762,0
1852,4.268759737557492,0
1853,-3.0159736686679848,0
1854,1.5582964387219007,0
1855,-0.820894121753925,0
1856,0.42883239795799477,0
1857,-0.11933963155646396,0
1858,0.08873290148133386,0
1859,-0.025329002175508777,0
1860,0.03727382264305732,0
1861,-0.05278998148052936,0
1862,-0.045099970832902465,0
1863,0.022548332249835563,0
1864,0.11026431558981824,0
1865,0.03461016944536854,0
1866,-0.06028102305648332,0
1867,1.2526627639645311,0
1868,6.823709516002575,0
1869,0.6505562650129528,0
1870,-1.3845970256032332,0
1871,0.9866170753587921,0
1872,-0.502892741625267,0
1873,0.20611238780239668,0
1874,-0.08623853584685907,0
1875,0.09668521701970827,0
1876,0.0034476070771684046,0
1877,-0.043895727072653455,0
1878,-0.0008636104864159864,0
1879,0.02212718319325767,0
1880,-0.013109218573538561,0
1881,0.026881221191130695,0
1882,0.018732610361523374,0
1883,0.06982403642023144,0
1884,2.9677744103474435,0
1885,6.565416930258943,0
1886,-2.387683224006731,0
1887,0.5304724196673312,0
1888,-0.10484659016330096,0
1889,-0.1070065906606561,0
1890,-0.06923704308416151,0
1891,0.014507725126954706,0
1892,-0.023479078688958988,0
1893,0.044480374629048094,0
1894,0.08658292775892687,0
1895,0.015797737189273343,0
1896,0.03313817510800357,0
1897,0.052025899915248607,0
1898,-0.08952920744737468,0
1899,0.04166081366707963,0
1900,0.28785556476162805,0
1901,5.064514526470389,0
1902,4.271277943631531,0
1903,-2.906222699499105,0
1904,1.6361327657076175,0
1905,-0.7986717894754233,0
1906,0.24287637014307864,0
1907,-0.1244591662905292,0
1908,-0.06708193007690597,0
1909,-0.01934842251503638,0
1910,-0.07122053323026191,0
1911,-0.011308314254502766,0
1912,0.004151271512371005,0
1913,-0.08607895006879293,0
1914,-0.12912764626187578,0
1915,-0.007732833049647406,0
1916,-0.14260264750763313,0
1917,1.1988200076264854,0
1918,6.68853645969174,0
1919,0.5242877236519383,0
1920,-1.5138837907041462,0
1921,0.9440562564386537,0
1922,-0.5575668305658876,0
1923,0.20752351672913705,0
1924,-0.16234875170564345,0
1925,0.027541870148710998,0
1926,-0.1673085111984102,0
1927,-0.03728631177598489,0
1928,-0.04269626541766729,0
1929,-0.02731518884766144,0
1930,-0.05981815772226774,0
1931,-0.11385945917452697,0
1932,0.0012513844789691225,0
1933,0.045314761417509106,0
1934,3.0270861360544186,0
1935,6.565078239587547,0
1936,-2.4146366724065467,0
1937,0.6631481513857038,0
1938,-0.12605624440351945,0
1939,0.020717712564952348,0
1940,-0.054036671201720836,0
1941,-0.014553915188645268,0
1942,0.05154414519467335,0
1943,0.00015144781869803198,0
1944,0.06822601451708768,0
1945,0.04118840109737969,0
1946,-0.057945747998646616,0
1947,0.010040944480400528,0
1948,-0.09358950060165666,0
1949,0.022479976542600255,0
1950,0.35359280940784027,0
1951,5.146996184207257,0
1952,4.265302390126603,0
1953,-2.949484461115768,0
1954,1.5112295165487089,0
1955,-0.8216477749736969,0
1956,0.2871905743557519,0
1957,-0.22047279489710972,0
1958,-0.08187314396113024,0
1959,-0.08559371397724332,0
1960,-0.1435875722696905,0
1961,-0.04745360021295189,0
1962,-0.09872214508014417,0
1963,-0.016027887434942906,0
1964,0.0013352320203477847,0
1965,-0.05602153433302774,0
1966,-0.09388289570387548,0
1967,1.107897128038848,0
1968,6.696889874531457,0
1969,0.49450561920655794,0
1970,-1.5649285987092174,0
1971,0.9025404218020067,0
1972,-0.5712805173749257,0
1973,0.05725589032107188,0
1974,-0.17411481409722346,0
1975,-0.08081371021449466,0
1976,-0.06156480453700728,0
1977,-0.17045013805846784,0
1978,-0.012037783403209629,0
1979,-0.07824458665206349,0
1980,-0.014545656026639986,0
1981,-0.09333780136137614,0
1982,-0.07863196431393486,0
1983,0.009579704903405754,0
1984,2.8857141305486063,0
1985,6.561494540371616,0
1986,-2.43975015842189,0
1987,0.6728398057964059,0
1988,-0.19642316764351417,0
1989,0.027094091370949383,0
1990,-0.13561479699770934,0
1991,-0.08446617161614031,0
1992,-0.07018499394866923,0
1993,-0.17190038874877542,0
1994,-0.010255982839303832,0
1995,0.007930257598571994,0
1996,-0.04258473279329949,0
1997,-0.14054832855635763,0
1998,-0.030865549695599334,0
1999,-0.10454314641268951,0
2000,0.3114942566505161,0
2001,5.0108325026762754,0
2002,4.1645746059189355,0
2003,-3.0136582457728123,0
2004,1.4636304730052967,0
2005,-0.9729554219397961,0
2006,0.15802687693701467,0
2007,-0.2385440977659565,0
2008,-0.09176920435721017,0
2009,-0.09370389308716894,0
2010,-0.11614351962054283,0
2011,-0.12375063378203016,0
2012,0.014555668242477587,0
2013,-0.0011745542650908325,0
2014,-0.07537234924558288,0
2015,-0.07259286540555206,0
2016,-0.13468962681164665,0
2017,1.2209322235980533,0
2018,6.584455943128513,0
2019,0.6379426813707004,0
2020,-1.435796283345074,0
2021,1.0959185282412303,0
2022,-0.5890180004254688,0
2023,0.13673740710671511,0
2024,-0.0333300691266227,0
2025,0.059972988283321045,0
2026,-0.11487819695152018,0
2027,-0.05247178072084529,0
2028,-0.029113798197729475,0
2029,-0.09144057807225203,0
2030,-0.0099681746509125,0
2031,-0.06581695288472125,0
2032,-0.1356654880754004,0
2033,-0.021391084523390055,0
2034,2.9002986369691675,0
2035,6.48052931095794,0
2036,-2.4933084497189735,0
2037,0.5838010891000313,0
2038,-0.24694913413147254,0
2039,0.005246858028938289,0
2040,-0.025815926873198378,0
2041,-0.056396865394542486,0
2042,-0.0325789492050341,0
2043,-0.08063922541794052,0
2044,-0.07765832342097852,0
2045,-0.09344620031024242,0
2046,-0.1663933005152452,0
2047,-0.04731752829272671,0
2048,-0.08505579304543992,0
2049,-0.06222755648505699,0
2050,0.29855687475711074,0
2051,5.047972975569091,0
2052,4.069972298490765,0
2053,-2.9693085335778027,0
2054,1.579250832749048,0
2055,-0.9023644748796448,0
2056,0.20599295021454042,0
2057,-0.21190956212531079,0
2058,0.08783710897891596,0
2059,-0.15426791860998035,0
2060,0.003383616803877873,0
2061,-0.009898831894983223,0
2062,0.05052477025597213,0
2063,-0.10816156901817567,0
2064,-0.04373709774890465,0
2065,-0.035757029553070786,0
2066,-0.13214590415555294,0
2067,1.235482223171533,0
2068,6.644064175055329,0
2069,0.3946866482486899,0
2070,-1.5538631348215108,0
2071,0.9621527027292524,0
2072,-0.5567094066879139,0
2073,0.18367037749442508,0
2074,-0.07411771808030361,0
2075,-0.008678584204746036,0
2076,-0.04088039248519624,0
2077,-0.039856617197800495,0
2078,-0.009525585882091125,0
2079,-0.05661340572648223,0
2080,-0.07935947338779129,0
2081,-0.0886173117399068,0
2082,-0.08039563916945787,0
2083,0.07234650976725608,0
2084,2.9729562592885843,0
2085,6.534265833780223,0
2086,-2.452953718175056,0
2087,0.6619191991808969,0
2088,-0.254401724723223,0
2089,0.004280177551044637,0
2090,0.015324758793979446,0
2091,-0.011556481480663645,0
2092,-0.02283412035702581,0
2093,0.03141009510296287,0
2094,-0.02174694076315782,0
2095,0.037933995855946576,0
2096,-0.11283364781436009,0
2097,-0.04150646244536363,0
2098,-0.05080921847576364,0
2099,0.004902202353232049,0
2100,0.2673873454880556,0
2101,5.10923117457691,0
2102,3.9666464676860826,0
2103,-3.074148799414933,0
2104,1.5066765270567968,0
2105,-0.8675447067295102,0
2106,0.21018885081556288,0
2107,-0.1856973671226415,0
2108,-0.07530879294580267,0
2109,-0.15514335091711634,0
2110,-0.051343505894548405,0
2111,-0.08346469089873129,0
2112,-0.14531991729343932,0
2113,-0.10954987720233031,0
2114,-0.1201256719108406,0
2115,-0.10541023476039899,0
2116,-0.14371422068220574,0
2117,1.1685529680456135,0
2118,6.7293588939986035,0
2119,0.4799892609990283,0
2120,-1.455060447375034,0
2121,0.9163318556029638,0
2122,-0.5586239905918197,0
2123,0.10625131268390531,0
2124,-0.1334636884910734,0
2125,-0.08119160872664663,0
2126,-0.21507661609217413,0
2127,-0.02327532675437144,0
2128,-0.07805047013706408,0
2129,-0.08688009885169451,0
2130,-0.037137947443691366,0
2131,-0.06704686422755766,0
2132,-0.07380258740253409,0
2133,-0.023443454946268164,0
2134,3.0038783824337747,0
2135,6.549944432450751,0
2136,-2.38370797018466,0
2137,0.5841236776537932,0
2138,-0.2435012637067295,0
2139,-0.04088331150794267,0
2140,-0.09316591899908148,0
2141,-0.1296344129422778,0
2142,-0.12876307428226,0
2143,-0.161705083912919,0
2144,-0.12667597226863364,0
2145,-0.10228206866525458,0
2146,-0.09171020936600949,0
2147,-0.04119209813372842,0
2148,-0.015169597582047403,0
2149,-0.016995359122941492,0
2150,0.25917477313887244,0
2151,5.126496203829782,0
2152,4.028918566816579,0
2153,-2.943976265058436,0
2154,1.4591748999262468,0
2155,-0.7711896990570414,0
2156,0.25353012306619094,0
2157,-0.21555063866612742,0
2158,-0.008094307902499806,0
2159,0.006061477463172885,0
2160,-0.06748379279888829,0
2161,-0.14836955769942928,0
2162,-0.15360597549462163,0
2163,-0.01813858247460673,0
2164,-0.13808435170678104,0
2165,-0.05634015190845684,0
2166,-0.18216992644042873,0
2167,1.2886072083034938,0
2168,6.665419219615737,0
2169,0.44046118773032045,0
2170,-1.498119516915497,0
2171,0.894495370974671,0
2172,-0.6546885017440771,0
2173,0.2365700765375402,0
2174,-0.12301860856962465,0
2175,-0.03495831060738649,0
2176,-0.033205592291617146,0
2177,-0.06995311076352759,0
2178,0.059241179017506695,0
2179,0.004004594230112332,0
2180,-0.1430236096580078,0
2181,-0.10210207993523851,0
2182,-0.10915351748665184,0
2183,-0.11740490155925977,0
2184,3.02556267407615,0
2185,6.475168553790583,0
2186,-2.4820856689931494,0
2187,0.6773439575189819,0
2188,-0.29716839211569923,0
2189,-0.07267340591453798,0
2190,-0.09929392919438064,0
2191,-0.042853290987095186,0
2192,-0.09034605045132443,0
2193,0.005257183418865857,0
2194,-0.04650287998479048,0
2195,-0.07687471797165724,0
2196,-0.10098118509568409,0
2197,-0.127550021722392,0
2198,-0.04611560358830197,0
2199,-0.1367435915125797,0
2200,0.38898777850357813,0
2201,5.054702517857871,0
2202,4.084453264501742,0
2203,-2.9433325408955806,0
2204,1.5339722577803765,0
2205,-0.8296129295699887,0
2206,0.22489540343428138,0
2207,-0.17096916902782322,0
2208,-0.07965575744543409,0
2209,-0.010905024508917838,0
2210,0.023533859059496745,0
2211,-0.10311478338241818,0
2212,-0.04512704617957791,0
2213,-0.08940894231815438,0
2214,-0.05031519512750926,0
2215,-0.039055757863816175,0
2216,0.07074130314612394,0
2217,1.1839630542375787,0
2218,6.698418555330294,0
2219,0.38364820711436853,0
2220,-1.392130794437475,0
2221,0.9365274984260286,0
2222,-0.5453656462286817,0
2223,0.19445759313383576,0
2224,0.0002485068190389572,0
2225,-0.05798975714231143,0
2226,-0.027407740545413013,0
2227,-0.08509345414126518,0
2228,-0.09315682824689181,0
2229,-0.06976776111900829,0
2230,-0.11284344156029473,0
2231,-0.09912931816362992,0
2232,0.023957538601805606,0
2233,-0.08220252182872517,0
2234,3.0528407808650764,0
2235,6.524581275945534,0
2236,-2.475859384067046,0
2237,0.6253838347682659,0
2238,-0.23350931356664417,0
2239,0.033231871899284976,0
2240,-0.1409834644772525,0
2241,0.031169217830459003,0
2242,-0.010037242979521029,0
2243,0.029655897679820117,0
2244,0.06651787057164255,0
2245,0.07869104154564649,0
2246,-0.046985869845178205,0
2247,0.08637502415377905,0
2248,-0.014274268720877248,0
2249,-0.10535394475722981,0
2250,0.26432226012938076,0
2251,5.209373979652764,0
2252,4.033173389709539,0
2253,-2.9582831212013057,0
2254,1.5456034051269552,0
2255,-0.8692218101128922,0
2256,0.18413612659536996,0
2257,-0.1902461741864537,0
2258,-0.023355049730995107,0
2259,-0.050634847970894355,0
2260,-0.09552022651903305,0
2261,-0.15856303666524615,0
2262,-0.18826958500554597,0
2263,-0.13855081567576535,0
2264,-0.08505833031544666,0
2265,-0.03455484178042424,0
2266,-0.160830850778499,0
2267,1.3198410340293232,0
2268,6.711342783589673,0
2269,0.3307212602379125,0
2270,-1.42292979141477,0
2271,0.8441798142156597,0
2272,-0.5484742943209228,0
2273,0.14255968975574013,0
2274,-0.16041161412532173,0
2275,-0.06577853980190958,0
2276,0.03690255754860217,0
2277,-0.04898420271409755,0
2278,-0.08015329439592811,0
2279,-0.06743143995986364,0
2280,-0.0041166419721668755,0
2281,-0.06196979210712222,0
2282,-0.09424049791309376,0
2283,-0.01877891798434743,0
2284,3.055017244451582,0
2285,6.5370095728355855,0
2286,-2.4265272241183142,0
2287,0.7467390782825157,0
2288,-0.14978882365680574,0
2289,-0.018930788085839652,0
2290,-0.02147364601966327,0
2291,-0.017674475022978038,0
2292,0.019340008490450734,0
2293,0.0442107995509328,0
2294,-0.02762494409333803,0
2295,0.029829422842952605,0
2296,-0.07399045899138496,0
2297,-0.06353707022895846,0
2298,-0.09792914482924908,0
2299,0.05114206274764106,0
2300,0.2681663527219261,0
2301,5.135418773397281,0
2302,4.03188677434775,0
2303,-2.904553183057277,0
2304,1.5485656368812295,0
2305,-0.9521948447309126,0
2306,0.20876904472495056,0
2307,-0.18278167873624088,0
2308,0.0070853977610380176,0
2309,-0.0582248678492414,0
2310,-0.020971589223492446,0
2311,-0.020704955621417952,0
2312,0.01469642948399711,0
2313,0.03991405464502653,0
2314,0.06604775866524917,0
2315,-0.11337451885457753,0
2316,-0.10823788965152936,0
2317,1.3513928652027813,0
2318,6.682804880587186,0
2319,0.404160222616678,0
2320,-1.3961377573198255,0
2321,0.9613115843527352,0
2322,-0.5537891637694714,0
2323,0.1793053960807994,0
2324,-0.23812920158599182,0
2325,-0.1075787926721636,0
2326,-0.0511802572753711,0
2327,-0.09470604011482606,0
2328,-0.0365795744555175,0
2329,-0.10892910999280006,0
2330,-0.13741917012304977,0
2331,0.08427645671057796,0
2332,0.02775871665903412,0
2333,0.0017398792989111733,0
2334,3.068894148076606,0
2335,6.535606880689506,0
2336,-2.479324568449454,0
2337,0.7323162956692901,0
2338,-0.26720546557454017,0
2339,0.0007985037484832466,0
2340,-0.08112114169910617,0
2341,0.01606320295020479,0
2342,-0.04641354459907444,0
2343,0.04709453275111471,0
2344,-0.03954634167936465,0
2345,-0.04583196554078589,0
2346,0.04882751023000091,0
2347,-0.06986900183618651,0
2348,-0.08354633761105382,0
2349,-0.09255248207696086,0
2350,0.3079974479356564,0
2351,5.091946519756811,0
2352,3.9459282569917575,0
2353,-2.973234358324673,0
2354,1.5219049960657471,0
2355,-0.8861314235243745,0
2356,0.319995445117018,0
2357,-0.17722481071519358,0
2358,0.11651176201724261,0
2359,0.028868712649895503,0
2360,0.005781310093110668,0
2361,-0.02532082710793538,0
2362,-0.07349117461816194,0
2363,0.07607415854038369,0
2364,0.014712573450220309,0
2365,-0.04302081028768927,0
2366,-0.020885040035929288,0
2367,1.3872384003025282,0
2368,6.806851166784867,0
2369,0.4680015893224954,0
2370,-1.3024467559470456,0
2371,0.974683431990347,0
2372,-0.5369475824886389,0
2373,0.23093626850491433,0
2374,-0.03195941078527357,0
2375,0.031515170489864366,0
2376,-0.002794120430080734,0
2377,-0.02419139869546158,0
2378,-0.043112915289599624,0
2379,-0.06908809785610752,0
2380,-0.07945559186355623,0
2381,-0.005672078773353795,0
2382,0.07796939843517146,0
2383,-0.04021389701933876,0
2384,3.1232038890933835,0
2385,6.5334304864474,0
2386,-2.5589292729761595,0
2387,0.7667855300888357,0
2388,-0.1796434154855198,0
2389,0.14712911549397895,0
2390,-0.004805293956515255,0
2391,0.020249083371513064,0
2392,0.0011419814806414626,0
2393,0.04378604875805491,0
2394,-0.03906219516068225,0
2395,0.03802212708670702,0
2396,0.02636018280645369,0
2397,0.021259780819330297,0
2398,-0.014651372700403203,0
2399,0.034430406128999155,0
2400,0.46684018014248124,0
2401,5.269291823410929,0
2402,4.084953884363956,0
2403,-2.826685037497409,0
2404,1.5568873413219182,0
2405,-0.6984791433049957,0
2406,0.3747832212915458,0
2407,-0.06505493125779707,0
2408,0.032652694281656944,0
2409,-0.05800511224479841,0
2410,0.08477116564115636,0
2411,0.0505068535613214,0
2412,0.05340274476882107,0
2413,-0.025998892189555825,0
2414,0.04848739049416885,0
2415,0.06474658171777525,0
2416,0.01176375924098607,0
2417,1.3474480856115385,0
2418,6.866462756436987,0
2419,0.4383846573462423,0
2420,-1.2525499738444157,0
2421,0.9108495088270934,0
2422,-0.5334825697297793,0
2423,0.11183007686716817,0
2424,-0.11083222889165333,0
2425,-0.12041164099964091,0
2426,-0.003818718942406679,0
2427,-0.05320065799123408,0
2428,-0.06307826722273506,0
2429,-0.10062212545068809,0
2430,-0.002506899652360537,0
2431,-0.053884094492546795,0
2432,-0.08826986028262478,0
2433,0.049859078706305925,0
2434,3.0658525207982557,0
2435,6.443244060800429,0
2436,-2.439492219983744,0
2437,0.7361885471571868,0
2438,-0.1898165625540008,0
2439,0.04888258693775967,0
2440,0.0140339528021182,0
2441,0.026105425685367542,0
2442,-0.020155706372911853,0
2443,0.038321691219234295,0
2444,0.0006512382834071434,0
2445,0.014111405719349726,0
2446,0.003335342983896686,0
2447,-0.009220664057550102,0
2448,0.04475423239771662,0
2449,-0.044642823884715896,0
2450,0.42032795001935686,0
2451,5.302181637456985,0
2452,4.1014958801275485,0
2453,-2.910281762093789,0
2454,1.6290802210268973,0
2455,-0.7707109900417397,0
2456,0.3062998282309274,0
2457,-0.18340225450859468,0
2458,-0.0009553451588813489,0
2459,-0.0029706959293550545,0
2460,-0.011949005941236674,0
2461,-0.08776443493479438,0
2462,0.04189623952915267,0
2463,-0.051293585502260534,0
2464,-0.029811999293042755,0
2465,0.028987203669452108,0
2466,-0.027041007751949658,0
2467,1.4147442764233464,0
2468,6.844253107249033,0
2469,0.3305944691566032,0
2470,-1.354271103604069,0
2471,0.8228645999463776,0
2472,-0.5437235889608933,0
2473,0.22286591138945888,0
2474,-0.18923304227505156,0
2475,-0.14560909649937145,0
2476,-0.14605794261998317,0
2477,0.013882553728575275,0
2478,-0.11883267188269614,0
2479,-0.0844134288155369,0
2480,-0.009302255796162132,0
2481,-0.10599384053323292,0
2482,-0.05914952493932524,0
2483,-0.05493260131481477,0
2484,3.1590021120862186,0
2485,6.425740700321224,0
2486,-2.61965357226577,0
2487,0.7845991034889634,0
2488,-0.40585683919256166,0
2489,-0.046690060943341376,0
2490,-0.10933768388838237,0
2491,-0.07739073883012557,0
2492,-0.09461235734014052,0
2493,-0.01891268416535119,0
2494,-0.0519476790678466,0
2495,-0.05126686586899323,0
2496,-0.09555718257081167,0
2497,-0.07166580469852468,0
2498,-0.11099961449899085,0
2499,-0.004181613783534974,0
2500,0.4072319907782179,0
2501,5.217964578539382,0
2502,3.9127112345216344,0
2503,-2.875624643852727,0
2504,1.5142060787662144,0
2505,-0.8536527718758792,0
2506,0.21683575232155694,0
2507,-0.2263934805451157,0
2508,-0.043889387009143466,0
2509,-0.03815168458155653,0
2510,-0.04522542118354167,0
2511,0.00234938583108436,0
2512,-0.12118206200933118,0
2513,-0.042012384872671185,0
2514,0.02908361387456461,0
2515,-0.03427021686783794,0
2516,-0.10218585302388639,0
2517,1.4000064648024917,0
2518,6.7160886914942735,0
2519,0.1842568789484722,0
2520,-1.393396938319805,0
2521,0.8217943931170599,0
2522,-0.6558226322784511,0
2523,0.14633976823558587,0
2524,-0.09378631982239649,0
2525,-0.07165908079540449,0
2526,-0.056798431039624696,0
2527,-0.05307820792470916,0
2528,-0.060150913603794,0
2529,-0.10167779985286664,0
2530,-0.01488403876967332,0
2531,-0.14441549138553894,0
2532,-0.03978367886388147,0
2533,0.01128773240604098,0
2534,3.18875712394474,0
2535,6.414719981370621,0
2536,-2.5646762706390245,0
2537,0.7910051828501937,0
2538,-0.2570985201654931,0
2539,-0.011845218011919022,0
2540,-0.06325433140952247,0
2541,-0.07282665888398725,0
2542,-0.05144798541164819,0
2543,-0.15176091404671224,0
2544,-0.13249224680113483,0
2545,-0.09449384417174034,0
2546,-0.06005194950852993,0
2547,-0.11483243478033507,0
2548,-0.17846195640900364,0
2549,-0.10036097738408539,0
2550,0.3751035571740609,0
2551,5.212861529679823,0
2552,3.8893317100914553,0
2553,-2.940530834348886,0
2554,1.449229133363541,0
2555,-0.9244864448805106,0
2556,0.3029611737376147,0
2557,-0.17092001483712116,0
2558,-0.02366924832374205,0
2559,-0.07807369690429716,0
2560,-0.05568496919093772,0
2561,-0.18388557245781517,0
2562,-0.05905791964529568,0
2563,0.09329135791353196,0
2564,0.05312969862971596,0
2565,-0.003374034866061089,0
2566,-0.0170868449933349,0
2567,1.3499044822016018,0
2568,6.739720595354453,0
2569,0.17898318072349884,0
2570,-1.3287291715593803,0
2571,0.9199133808710678,0
2572,-0.5904878232107074,0
2573,0.11639370125062877,0
2574,-0.14814561658578992,0
2575,-0.09901363325919327,0
2576,-0.08720738935131941,0
2577,-0.0532376098884669,0
2578,-0.04053008558350724,0
2579,-0.11140675736130648,0
2580,0.043613561713681706,0
2581,-0.08666003866954926,0
2582,-0.08305654791846329,0
2583,-0.017693726244057836,0
2584,3.172682052858202,0
2585,6.43702710410117,0
2586,-2.6365571378767836,0
2587,0.8493723517492326,0
2588,-0.24018247816445065,0
2589,-0.048538587649270305,0
2590,-0.1097623670439927,0
2591,-0.03065974520189256,0
2592,-0.033744170082613316,0
2593,-0.09354283559825585,0
2594,-0.08379604103484016,0
2595,-0.06879904420738492,0
2596,-0.06209022564266404,0
2597,-0.033384815907409895,0
2598,-0.06528210339319296,0
2599,-0.0677125551316706,0
2600,0.38980441963421836,0
2601,5.1761408039002275,0
2602,3.878111845275669,0
2603,-2.88584861928397,0
2604,1.4802733377775907,0
2605,-0.832341419185182,0
2606,0.21113990412110875,0
2607,-0.1721936468963818,0
2608,0.09826922274949872,0
2609,-0.04525490472476067,0
2610,-0.06150735413746878,0
2611,0.014952806343463281,0
2612,-0.01467984799993809,0
2613,-0.0018030677889194456,0
2614,-0.015435229230089461,0
2615,0.023143219050099476,0
2616,0.005996662999724553,0
2617,1.382567138462177,0
2618,6.795728850360047,0
2619,0.3958369097471432,0
2620,-1.2287991055258058,0
2621,0.9703791936900742,0
2622,-0.444029585473196,0
2623,0.2997605399256309,0
2624,-0.08378590049059889,0
2625,-0.02355538791238746,0
2626,0.0829452659736788,0
2627,0.08956021026294805,0
2628,0.019445536809426837,0
2629,0.041861466359720906,0
2630,-0.006468390635995898,0
2631,0.06431558338179415,0
2632,-0.08462019917847256,0
2633,0.023433915567554767,0
2634,3.187465556352687,0
2635,6.526577585049319,0
2636,-2.4553021005542432,0
2637,0.858345647985746,0
2638,-0.11408634871843941,0
2639,0.037611122795324144,0
2640,-0.07427951320734116,0
2641,0.07884869066419242,0
2642,0.03468220208806772,0
2643,0.0029133932956491634,0
2644,-0.014187786257071188,0
2645,-0.06331182154913224,0
2646,-0.04968796401971059,0
2647,-0.019734576944554483,0
2648,0.03447374207695473,0
2649,0.12284414352397087,0
2650,0.500200643883465,0
2651,5.380320970226118,0
2652,3.923294921396165,0
2653,-2.785120478962275,0
2654,1.581076447737099,0
2655,-0.6454230426609435,0
2656,0.41055833469840464,0
2657,-0.031311227794866205,0
2658,0.04705357069314474,0
2659,-0.025143500951029407,0
2660,0.022059135261864253,0
2661,-0.06425812037308154,0
2662,0.15100136452468382,0
2663,0.08782450164010265,0
2664,0.06178249391131277,0
2665,0.07568388906025053,0
2666,0.07942563563438355,0
2667,1.482680430809679,0
2668,6.933734419563775,0
2669,0.28242864570118487,0
2670,-1.2417362133446452,0
2671,0.9582423720946306,0
2672,-0.5303571778885245,0
2673,0.2484141363423478,0
2674,0.03567900906286866,0
2675,0.015662344725379702,0
2676,0.07209496930940848,0
2677,0.06251475088472319,0
2678,-0.08001076287525719,0
2679,0.04599759773201794,0
2680,0.008187721458721382,0
2681,-0.002592132935099245,0
2682,0.046420457944114965,0
2683,0.11684440468508336,0
2684,3.246921739466066,0
2685,6.546337695786139,0
2686,-2.438142706768081,0
2687,0.8496365259190748,0
2688,-0.25891464553860954,0
2689,0.06466011801566873,0
2690,-0.008480251017839209,0
2691,-0.01713025301402605,0
2692,0.05082144611564661,0
2693,0.10783646470595695,0
2694,0.011400484865032147,0
2695,0.0619728364624484,0
2696,0.06848246786942216,0
2697,0.07575907591740412,0
2698,0.017121197244475958,0
2699,0.051370887002645846,0
2700,0.4584333088003792,0
2701,5.317404762132602,0
2702,3.976611406630677,0
2703,-2.791808712246671,0
2704,1.6906463681706485,0
2705,-0.7477435411693558,0
2706,0.48591433257940636,0
2707,-0.03780984062139256,0
2708,0.11358496965881981,0
2709,0.10626854469680659,0
2710,0.040596653605909236,0
2711,-0.01671652325980169,0
2712,0.036936124035287746,0
2713,0.011285448906487527,0
2714,0.13446373075126056,0
2715,0.13002702758453,0
2716,0.18690402449513743,0
2717,1.5574886401799148,0
2718,6.826900757445343,0
2719,0.3047717395978489,0
2720,-1.0616204959922688,0
2721,0.9013608641475945,0
2722,-0.39123885884947646,0
2723,0.22524924721773218,0
2724,-0.07565939770326806,0
2725,-0.01168710504065236,0
2726,0.030156613833445048,0
2727,0.04500668841834432,0
2728,0.04760530507161313,0
2729,0.0018156940297138838,0
2730,-0.01693996629518175,0
2731,0.03851762405696009,0
2732,0.12239446100117499,0
2733,0.12177316352066335,0
2734,3.2145759392033293,0
2735,6.452197320147721,0
2736,-2.4886128972515227,0
2737,0.792373899988934,0
2738,-0.2270072245694127,0
2739,0.0938663676654712,0
2740,0.007001359026416425,0
2741,0.07827304020791634,0
2742,0.01924183428113263,0
2743,0.030239409986141344,0
2744,0.07568812767430577,0
2745,0.009841109593383524,0
2746,0.11040459106990774,0
2747,0.04621655781825835,0
2748,-0.0734581099215768,0
2749,0.025295145896326286,0
2750,0.514819218145784,0
2751,5.384955024053147,0
2752,3.860643279770295,0
2753,-2.8636582403777973,0
2754,1.59237462667,0
2755,-0.7445688165402244,0
2756,0.3639263667919663,0
2757,-0.1109946252874332,0
2758,0.06793845514956602,0
2759,0.01749652308434989,0
2760,-0.010741974043479104,0
2761,-0.024528548023013998,0
2762,-0.030737123511803573,0
2763,0.08415219075605264,0
2764,0.10448511335000946,0
2765,0.023991330252980975,0
2766,0.06493100973737734,0
2767,1.4723282236525457,0
2768,6.857079477985567,0
2769,0.3862722929438682,0
2770,-1.1670037801650153,0
2771,0.9352402187004574,0
2772,-0.3841489540628135,0
2773,0.2880439334802585,0
2774,0.03870974456651713,0
2775,0.05428886698162398,0
2776,0.12134896366022865,0
2777,0.03354529590220119,0
2778,0.03285106707683773,0
2779,0.0491552016196418,0
2780,0.10972194820046147,0
2781,-0.001940213700952577,0
2782,0.017840293665262207,0
2783,0.10511845520924895,0
2784,3.2054063196319134,0
2785,6.348077635152143,0
2786,-2.5590362413598093,0
2787,0.9232668756543284,0
2788,-0.3740806546487162,0
2789,0.0067017258178588696,0
2790,0.01286788345946839,0
2791,-0.00042017040076299146,0
2792,0.03231947188592513,0
2793,-0.012007295096860925,0
2794,-0.007010604991802962,0
2795,-0.02598758627479367,0
2796,-0.04030027952408957,0
2797,0.05191925006737938,0
2798,0.04053134842663204,0
2799,0.046993301716695024,0
2800,0.49160018277213535,0
2801,5.415566472383481,0
2802,3.7264308542919315,0
2803,-2.814415667408527,0
2804,1.580331514611473,0
2805,-0.804064851118597,0
2806,0.41439115406927607,0
2807,0.0006860143426828669,0
2808,0.06392344770349133,0
2809,0.05581667302205534,0
2810,0.11485347769561634,0
2811,-0.02982973856854234,0
2812,0.026189955080056886,0
2813,0.007154995692524001,0
2814,-0.010022094355232197,0
2815,-0.023081024161377986,0
2816,0.07979027327742881,0
2817,1.458892948062583,0
2818,6.81949223275772,0
2819,0.11937808036901618,0
2820,-1.0953404031791796,0
2821,0.8700042983878985,0
2822,-0.496323086615491,0
2823,0.05720907433192435,0
2824,-0.135021624178072,0
2825,-0.006486438062251941,0
2826,-0.024266878483284036,0
2827,-0.06745887731303149,0
2828,-0.09796395330331613,0
2829,-0.005683559727449532,0
2830,-0.050208558780797,0
2831,-0.027137879598968368,0
2832,-0.021614706985472385,0
2833,0.10303512181835099,0
2834,3.1413565982296525,0
2835,6.441131794191667,0
2836,-2.5017424818843357,0
2837,0.8170966058984057,0
2838,-0.2303409857750669,0
2839,0.1214683575939828,0
2840,-0.0475955172442309,0
2841,-0.05620877980389002,0
2842,-0.03994107822749263,0
2843,0.031745720393738346,0
2844,-0.0785355305443178,0
2845,0.055889001592760564,0
2846,-0.05416028176322114,0
2847,-0.017775156666128028,0
2848,-0.05405407530653365,0
2849,-0.018270515872864098,0
2850,0.41977717341600773,0
2851,5.3508989082551155,0
2852,3.7247189357308232,0
2853,-2.782281702264039,0
2854,1.5350580516409118,0
2855,-0.8126764795311047,0
2856,0.29499274615735827,0
2857,-0.17759655106029953,0
2858,-0.034844483646102015,0
2859,-0.07541043366586703,0
2860,0.017146088046756047,0
2861,-0.08858729648009071,0
2862,-0.14433204211653525,0
2863,0.058702095921175604,0
2864,-0.031523794804263726,0
2865,-0.11518932137009075,0
2866,0.0020905706576724234,0
2867,1.407264804377769,0
2868,6.818579337713849,0
2869,0.1574499306548016,0
2870,-1.1090655661289,0
2871,0.7971856366907955,0
2872,-0.5575534666440398,0
2873,0.14957567474425423,0
2874,-0.1235913725173734,0
2875,-0.05264356807982866,0
2876,-0.13362270719328134,0
2877,0.05187537578701043,0
2878,-0.08584907785693524,0
2879,-0.08349492531616569,0
2880,0.029339669414413603,0
2881,-0.09644198258611308,0
2882,-0.04387484095983155,0
2883,0.1316863152276161,0
2884,3.2171480545445204,0
2885,6.464000808900535,0
2886,-2.586617787298894,0
2887,0.8472733601040281,0
2888,-0.25879637665082716,0
2889,0.03668514918660233,0
2890,-0.04278985219433255,0
2891,-0.06232825161869179,0
2892,0.022287150100470686,0
2893,-0.18680551924718428,0
2894,-0.022699262575935852,0
2895,-0.03274350719108428,0
2896,-0.026763020863877867,0
2897,-0.001369727523253329,0
2898,-0.10520714438004673,0
2899,-0.0020611598035666194,0
2900,0.45620017509704924,0
2901,5.326609632851195,0
2902,3.8676076917389977,0
2903,-2.851056373745626,0
2904,1.56190945750843,0
2905,-0.750867944080771,0
2906,0.4045211108793835,0
2907,-0.10700293936569029,0
2908,-0.032794478416059314,0
2909,-0.0762157161557297,0
2910,0.047697561242126305,0
2911,-0.054166116056339225,0
2912,-0.045902194619927957,0
2913,0.03960397768505802,0
2914,-0.06345165749799496,0
2915,-0.05192147792926452,0
2916,-0.11675141735155312,0
2917,1.4281924238133148,0
2918,6.853745187080697,0
2919,0.08667081396914603,0
2920,-1.1713636140784214,0
2921,0.8162883224568798,0
2922,-0.46873973304736033,0
2923,0.18026103192514373,0
2924,-0.11500664852943887,0
2925,-0.026111070529581632,0
2926,-0.04733644328818548,0
2927,-0.010413823554175496,0
2928,-0.06827473919540636,0
2929,-0.0629328515100526,0
2930,0.052911565933452046,0
2931,-0.009702713980521235,0
2932,-0.0770709867681156,0
2933,0.025170899331216808,0
2934,3.2444002890646213,0
2935,6.351217616013136,0
2936,-2.608503334293344,0
2937,0.7800680548251584,0
2938,-0.3262379007736625,0
2939,0.06070655679807965,0
2940,-0.009898529243135876,0
2941,-0.027185861389175968,0
2942,-0.04707648487116772,0
2943,0.027071125974502237,0
2944,-0.002398458463332736,0
2945,0.004584979024241521,0
2946,0.018233857053166498,0
2947,-0.05666930506126706,0
2948,0.04077474831317787,0
2949,-0.07901866940897068,0
2950,0.379840912211846,0
2951,5.387671254309582,0
2952,3.756119100884929,0
2953,-2.8448772225847954,0
2954,1.5039046269579845,0
2955,-0.8380430337358917,0
2956,0.2224769901842613,0
2957,-0.1610720331886208,0
2958,-0.025796768146134675,0
2959,-0.04524882238162818,0
2960,-0.0327739147167887,0
2961,-0.05361771326388697,0
2962,-0.047537641521174685,0
2963,-0.0278645447575606,0
2964,-0.10445794710698239,0
2965,-0.054838134524009964,0
2966,0.08397946889986516,0
2967,1.4565265076913045,0
2968,6.840890159105074,0
2969,0.1388782543969806,0
2970,-1.169864820126656,0
2971,0.8544790050497983,0
2972,-0.4660521507821729,0
2973,0.163513113438823,0
2974,-0.11496570021994709,0
2975,0.0010132460216461855,0
2976,-0.022336702230177388,0
2977,-0.004111120739188706,0
2978,-0.18433161303752232,0
2979,-0.15190235425035037,0
2980,0.07384231204626832,0
2981,-0.02540441070140291,0
2982,-0.004479723963938462,0
2983,0.05276308409399234,0
2984,3.278074973467762,0
2985,6.337502058013537,0
2986,-2.7144635845349643,0
2987,0.7914722602234805,0
2988,-0.2629366349127825,0
2989,0.10677388847578823,0
2990,0.004852590235053224,0
2991,0.06334680724332016,0
2992,-0.022342414858040272,0
2993,-0.04002018594632332,0
2994,0.035508846608535254,0
2995,0.09280752563678414,0
2996,-0.02185838155431912,0
2997,0.004666804863804526,0
2998,0.09999848513501357,0
2999,-0.04586139078383174,0
3000,0.4439321022701968,0
3001,5.376506501247937,0
3002,3.689896882231429,0
3003,-2.7341588423000243,0
3004,1.5972283968605,0
3005,-0.8560170391726907,0
3006,0.29060183843717907,0
3007,-0.046488722290357457,0
3008,0.03952444492380293,0
3009,0.018872179653130736,0
3010,0.007754968626060317,0
3011,0.008686955976386792,0
3012,-0.06188247532816792,0
3013,0.014703678716263154,0
3014,-0.017223826229154096,0
3015,-0.006620156829732235,0
3016,0.07112699518517474,0
3017,1.5109420985090223,0
3018,6.7415231619566995,0
3019,0.15429038411271295,0
3020,-1.1427305067810822,0
3021,0.8479633882124322,0
3022,-0.42247832279402253,0
3023,0.22772569464376305,0
3024,0.00785782566634495,0
3025,-0.02955459888023601,0
3026,-0.040745964918294644,0
3027,-0.017723942077575834,0
3028,0.08718095236115186,0
3029,-0.09947673317476448,0
3030,-0.032236141966801794,0
3031,-0.021276776136040156,0
3032,0.040838456048529745,0
3033,0.20345112644941413,0
3034,3.165295233392876,0
3035,6.308674919272191,0
3036,-2.7044636791362833,0
3037,0.8779103870546806,0
3038,-0.24471077477060088,0
3039,0.06081653145689541,0
3040,-0.12135630671797017,0
3041,-0.05722534114475941,0
3042,-0.0673209915300937,0
3043,-0.04866750286086383,0
3044,-0.09990034768565918,0
3045,-0.02634979732242089,0
3046,-0.07645236099265414,0
3047,-0.01899230463236821,0
3048,0.0810987886135279,0
3049,-0.042224527420067395,0
3050,0.5136311146510082,0
3051,5.514104196557028,0
3052,3.7682013684005473,0
3053,-2.8288954108664917,0
3054,1.5329140532404424,0
3055,-0.7665572372276439,0
3056,0.2963403013270203,0
3057,-0.08592189188335861,0
3058,0.03480948215080648,0
3059,-0.01712822745554206,0
3060,-0.0273276448081093,0
3061,0.11235845921637104,0
3062,0.05908742766778165,0
3063,-0.09421498403434994,0
3064,0.06708078302287472,0
3065,8.919818145422531e-07,0
3066,-0.03148859772442387,0
3067,1.4999806696767282,0
3068,6.844165646374462,0
3069,0.10038500069100331,0
3070,-1.1855366913815648,0
3071,0.8565282172413021,0
3072,-0.4756982811543605,0
3073,0.06115634957314023,0
3074,-0.05629129202675842,0
3075,-0.02981520582742761,0
3076,0.026495379182190512,0
3077,0.02585561452091066,0
3078,0.0677731979439444,0
3079,-0.07347996729300954,0
3080,0.0700522487809467,0
3081,-0.03286987405568031,0
3082,0.04479295412541332,0
3083,0.08681854435541012,0
3084,3.3114679612427342,0
3085,6.407467732927357,0
3086,-2.5942139901481354,0
3087,0.9482719257061067,0
3088,-0.1835134925572039,0
3089,0.03733722116476233,0
3090,0.031716490570416915,0
3091,0.07766370249699926,0
3092,-0.01054792732885041,0
3093,0.02508138040735208,0
3094,0.15639388407583993,0
3095,0.06628600672457928,0
3096,-0.0511276808638886,0
3097,-0.016627170013327204,0
3098,0.03233622989384178,0
3099,0.04010181964814501,0
3100,0.5288336678703218,0
3101,5.496338561813255,0
3102,3.609162567563863,0
3103,-2.8179940211544006,0
3104,1.598216996333243,0
3105,-0.8540854998388957,0
3106,0.33227334101574196,0
3107,-0.053265834101482876,0
3108,-0.05923543938015688,0
3109,-0.0314194931580485,0
3110,0.0009077244938563945,0
3111,0.0047887496736612155,0
3112,0.0500414817780762,0
3113,0.051321429525266846,0
3114,-0.0011799771869659692,0
3115,0.08526272491927685,0
3116,-0.042071760172585584,0
3117,1.5137454009919145,0
3118,6.864329991254079,0
3119,0.08122784511539932,0
3120,-1.1200494667490148,0
3121,0.8695448799263831,0
3122,-0.37657550675080304,0
3123,0.16517387501259503,0
3124,-0.09712421444353903,0
3125,0.048528811344977024,0
3126,-0.03351880794388999,0
3127,-0.030901384626140567,0
3128,-0.09364759417148974,0
3129,-0.03752714313183939,0
3130,-0.06901677800692857,0
3131,-0.07452991875787932,0
3132,0.007042358948548787,0
3133,0.048772478708041286,0
3134,3.3618526425788535,0
3135,6.372721918584998,0
3136,-2.6588843074289468,0
3137,0.9224651646766758,0
3138,-0.2672901265072897,0
3139,0.11438073230477958,0
3140,0.03953439901449257,0
3141,0.010057999556904947,0
3142,-0.051873131348112056,0
3143,0.11565983873995765,0
3144,0.02767778432797151,0
3145,0.026215569635911415,0
3146,-0.0068737878346982854,0
3147,0.08270472753108916,0
3148,-0.11243900097335714,0
3149,0.0438949889747458,0
3150,0.49818062097257615,0
3151,5.522132763614099,0
3152,3.7384852229974967,0
3153,-2.7569510731577935,0
3154,1.6055903229890607,0
3155,-0.7156436572476409,0
3156,0.3773235757404629,0
3157,-0.07020754495207208,0
3158,0.052484510656267074,0
3159,-0.03523225438626945,0
3160,0.028051789533774265,0
3161,-0.014044448642984535,0
3162,-0.054992806542672974,0
3163,0.06088506338552294,0
3164,0.025178736799835608,0
3165,0.08738140209700392,0
3166,-0.005417642812740958,0
3167,1.5432542106168714,0
3168,6.888942908532803,0
3169,0.0511638914442094,0
3170,-1.0509775990851753,0
3171,0.9216112049933386,0
3172,-0.34918048268490565,0
3173,0.23653266594002137,0
3174,-0.018710575720836405,0
3175,-0.011671643640458335,0
3176,0.07900489472977061,0
3177,0.013226988797365356,0
3178,0.04442727819473362,0
3179,0.1265420117173117,0
3180,0.13830386665265237,0
3181,0.008202760507991597,0
3182,-0.022541121699959366,0
3183,0.13070614216611026,0
3184,3.4129877269139155,0
3185,6.515596157285744,0
3186,-2.477557097601411,0
3187,1.0163660615897976,0
3188,-0.2109294656020691,0
3189,0.2001570417595186,0
3190,0.0077553092604126725,0
3191,0.12830515026879835,0
3192,0.20918628149528615,0
3193,0.11480427488013982,0
3194,0.05455370578835122,0
3195,0.10984948211839832,0
3196,0.1230591394422168,0
3197,0.0999213925807775,0
3198,0.13840120470677447,0
3199,0.0020714142447771644,0
3200,0.5391035001491755,0
3201,5.453625474308539,0
3202,3.737027896333871,0
3203,-2.7294029027898032,0
3204,1.6160387403777592,0
3205,-0.8043130489640592,0
3206,0.45754883509706923,0
3207,-0.02402062265949172,0
3208,0.0007814123443739551,0
3209,0.07736074789549444,0
3210,0.10427955885008003,0
3211,0.09918213296347851,0
3212,0.11646395204702585,0
3213,0.14255226624774067,0
3214,0.15493374796023013,0
3215,0.1478182452976805,0
3216,0.15430514347674934,0
3217,1.6311436596869873,0
3218,7.010256887065175,0
3219,0.10344869687956286,0
3220,-0.924268658963847,0
3221,1.017547022290282,0
3222,-0.27473106815283055,0
3223,0.2818793023206789,0
3224,0.02882597745565437,0
3225,0.15206363232637657,0
3226,0.14732502611846204,0
3227,0.04643199263351509,0
3228,0.10361983734114544,0
3229,0.0883393839233404,0
3230,0.09544042641025652,0
3231,0.1465476227423635,0
3232,0.14462095009667475,0
3233,0.3343250756691033,0
3234,3.358824270837666,0
3235,6.450575562664819,0
3236,-2.6132053494927963,0
3237,1.0122784844310049,0
3238,-0.1779656787002218,0
3239,0.17407580539814838,0
3240,0.08826958512961695,0
3241,0.1387984806912738,0
3242,0.13451302265851484,0
3243,0.11722023721961305,0
3244,0.08449586607450799,0
3245,0.08904451917839902,0
3246,0.19965679892645868,0
3247,-0.006558059284255763,0
3248,0.13958048106915893,0
3249,0.06425619492758484,0
3250,0.5948881821928371,0
3251,5.628114352291459,0
3252,3.7548676569964106,0
3253,-2.747399380695218,0
3254,1.6140746719057621,0
3255,-0.5863115063358602,0
3256,0.4618747501769631,0
3257,0.047353842053741615,0
3258,0.22504063327201398,0
3259,0.08725412965911913,0
3260,0.07453457719684022,0
3261,0.08545626916118482,0
3262,0.06688631622507754,0
3263,0.03694112998616876,0
3264,0.012477730282099551,0
3265,0.10102678048162227,0
3266,0.021821501249711103,0
3267,1.4648765348115755,0
3268,6.99522686717637,0
3269,-0.013938169357335276,0
3270,-1.0410945841263048,0
3271,0.8202981256134622,0
3272,-0.5717810382276005,0
3273,0.08798118691371604,0
3274,-0.10842199073720762,0
3275,0.052317575814398595,0
3276,-0.008652353775378608,0
3277,-0.012476333715431075,0
3278,-0.013602008088553802,0
3279,0.002022726609354382,0
3280,0.12771588111631638,0
3281,0.10301712814896051,0
3282,0.07624717433643655,0
3283,0.2107658905554163,0
3284,3.535406949667895,0
3285,6.467058145608002,0
3286,-2.561365955583529,0
3287,1.089463214120872,0
3288,-0.19092563269767124,0
3289,0.25962534162173523,0
3290,0.09183827552712251,0
3291,0.12417122689850293,0
3292,0.02052174748514748,0
3293,0.00045240432979418155,0
3294,-0.05668048481167369,0
3295,-0.008412740348891952,0
3296,0.08102854260247798,0
3297,0.034017360978941744,0
3298,-0.008068430566800632,0
3299,0.02528451863289225,0
3300,0.535948049304992,0
3301,5.509148940431202,0
3302,3.640324668341558,0
3303,-2.6903665001542785,0
3304,1.5779485184467472,0
3305,-0.6823595854565112,0
3306,0.33745067745428076,0
3307,-0.09366239634087176,0
3308,0.012995846147895153,0
3309,-0.03407244835297199,0
3310,0.012303601434861812,0
3311,-0.09589808462676128,0
3312,-0.033453948727556214,0
3313,-0.046789638322398075,0
3314,-0.03221170307564846,0
3315,0.002130305321746872,0
3316,0.0024227799279311346,0
3317,1.563855788753676,0
3318,6.843829727396449,0
3319,-0.10118921001946499,0
3320,-1.1497494689870902,0
3321,0.8100511611126084,0
3322,-0.45850498472811524,0
3323,0.14127450743460923,0
3324,-0.05045967707857325,0
3325,-0.062074803084253775,0
3326,-0.0776504573699013,0
3327,0.01165511865518343,0
3328,-0.11275101030948013,0
3329,-0.07502532584272713,0
3330,0.009021170189842774,0
3331,-0.08630193765962485,0
3332,-0.021087888954445275,0
3333,0.02352482276438224,0
3334,3.4192734598997485,0
3335,6.2881562858037645,0
3336,-2.6704330281769586,0
3337,0.829938034213282,0
3338,-0.35475870550170197,0
3339,0.10395667967465982,0
3340,-0.2121880922814573,0
3341,-0.019408409074752095,0
3342,-0.14016709168551322,0
3343,-0.07103746137817513,0
3344,0.021168147226221637,0
3345,-0.2195154998898048,0
3346,-0.020035453445546095,0
3347,-0.1359477878219913,0
3348,-0.019748934665578192,0
3349,-0.0910663933867522,0
3350,0.44013363926169824,0
3351,5.510033923045975,0
3352,3.443027551420174,0
3353,-2.772390842752304,0
3354,1.5695991994919989,0
3355,-0.8617630738514714,0
3356,0.29005250242767067,0
3357,-0.15187598823067514,0
3358,-0.029114740886262022,0
3359,0.007725388430412455,0
3360,0.012566384611288452,0
3361,-0.034595889616309605,0
3362,-0.03390045454474015,0
3363,-0.08450566424687914,0
3364,-0.007839688475390169,0
3365,0.03836125333365866,0
3366,-0.01391131253029147,0
3367,1.561990230186875,0
3368,6.87655318189024,0
3369,-0.05834993042446592,0
3370,-1.049161056994252,0
3371,0.9439366534521032,0
3372,-0.37555297074859356,0
3373,0.14321120309610957,0
3374,0.02577753958608036,0
3375,-0.06278516674363432,0
3376,0.02417485725470577,0
3377,0.13556939267911314,0
3378,0.02731605925792526,0
3379,0.03194941558390956,0
3380,-0.031933903662997525,0
3381,0.012167655730801585,0
3382,-0.013710101334305978,0
3383,0.02238159726347102,0
3384,3.410892626470379,0
3385,6.241803861541123,0
3386,-2.7269797193668803,0
3387,0.9269118639933991,0
3388,-0.38314289823952846,0
3389,0.12459428348657024,0
3390,-0.1370561524564986,0
3391,-0.05643854131974114,0
3392,0.13178434081711132,0
3393,-0.041371766690853795,0
3394,-0.04023798928496148,0
3395,0.08611636734319497,0
3396,-0.05618122900827066,0
3397,0.04323088679668966,0
3398,-0.000356893667219204,0
3399,-0.04638642906027578,0
3400,0.4911518809531951,0
3401,5.488840638576319,0
3402,3.4703214578724086,0
3403,-2.834280292778281,0
3404,1.5133705679854494,0
3405,-0.8051902849418177,0
3406,0.2563254064344035,0
3407,-0.21520833127722527,0
3408,0.04601455964811915,0
3409,-0.05161452210331549,0
3410,0.010739299621844148,0
3411,0.016948835878341305,0
3412,0.007177469697932232,0
3413,-0.01781599264742682,0
3414,-0.03839618199558099,0
3415,0.038929828553965984,0
3416,-0.015468161379758467,0
3417,1.6693560074213094,0
3418,6.9007687358129335,0
3419,-0.010631599522967675,0
3420,-1.0131992166274166,0
3421,0.7978595703420921,0
3422,-0.35053115056114437,0
3423,0.05559498512190135,0
3424,0.007522722862462257,0
3425,0.013508244878201143,0
3426,-0.004473441202473686,0
3427,0.07883218495450615,0
3428,0.07731569850759333,0
3429,-0.00406743436601097,0
3430,0.009541615429444959,0
3431,-0.07780545934573624,0
3432,0.10551562268286288,0
3433,0.10849824552927251,0
3434,3.382298404020978,0
3435,6.415085884065417,0
3436,-2.6337598538482996,0
3437,1.0468713337853761,0
3438,-0.23037190790245343,0
3439,0.09862751423840158,0
3440,-0.08149936735721446,0
3441,0.13950466836705414,0
3442,-0.014004943868671429,0
3443,0.01116560450433381,0
3444,0.02563461723224826,0
3445,-0.02213898177136827,0
3446,0.11354738162206192,0
3447,-0.05430786433112857,0
3448,-0.08038291992423906,0
3449,-0.047178562812458066,0
3450,0.5046020699404314,0
3451,5.463933738411387,0
3452,3.4675959016660234,0
3453,-2.8288908430114015,0
3454,1.5598439209383106,0
3455,-0.8137766812363484,0
3456,0.28020965954669036,0
3457,-0.19542528233786946,0
3458,0.008985784596948772,0
3459,-0.09180061274206133,0
3460,-0.018431909390415196,0
3461,-0.03570181123189878,0
3462,-0.002004776209809475,0
3463,-0.054934491172974116,0
3464,0.03895589597455287,0
3465,0.013757959882448491,0
3466,-0.009127762750423653,0
3467,1.5829305933924045,0
3468,6.959611527741899,0
3469,-0.08360152498981538,0
3470,-0.9972319545487082,0
3471,0.8698875773787199,0
3472,-0.45130374152166375,0
3473,0.16698321617085643,0
3474,0.009475008880185409,0
3475,0.10001262284674574,0
3476,0.12910159212597827,0
3477,0.020089399382024135,0
3478,0.047006960269899645,0
3479,0.03427613183018336,0
3480,0.05087510853819857,0
3481,0.07151675323089425,0
3482,-0.05856408520719635,0
3483,0.13584395991148748,0
3484,3.434578592682841,0
3485,6.317146401400595,0
3486,-2.842777818667978,0
3487,0.9699760350215427,0
3488,-0.3342552134990153,0
3489,0.17536126151592446,0
3490,-0.022591200253572676,0
3491,0.030520671240653635,0
3492,-0.07837826577383186,0
3493,0.03711367160822959,0
3494,0.11262192240046952,0
3495,0.017606185151416598,0
3496,0.008942606604866107,0
3497,0.014957018737015243,0
3498,0.04921513544437907,0
3499,0.02408247926081933,0
3500,0.5676313428189755,0
3501,5.61473480156581,0
3502,3.5109315135960952,0
3503,-2.7398047943677994,0
3504,1.5512940386659062,0
3505,-0.8149260550801569,0
3506,0.3839828720460231,0
3507,-0.0940988442693793,0
3508,0.07943992746574145,0
3509,-0.03343586918248329,0
3510,-0.02801054803732897,0
3511,-0.030616628996888166,0
3512,-0.0754414900321955,0
3513,-0.07812500235704545,0
3514,-0.00187317174185965,0
3515,0.0010249338765335805,0
3516,-0.05133460534197257,0
3517,1.5281175142084507,0
3518,6.882162898958589,0
3519,-0.09061064623660244,0
3520,-1.033266667434806,0
3521,0.8042216602424807,0
3522,-0.4960786265286966,0
3523,0.22773532752726125,0
3524,-0.06363987104182607,0
3525,0.00622342993543595,0
3526,0.06813995613607712,0
3527,0.03883066248139416,0
3528,0.06178689060315534,0
3529,-0.010871796473787061,0
3530,-0.04735164971557994,0
3531,0.037847206069354086,0
3532,0.03009309369724043,0
3533,0.1737713133363373,0
3534,3.544534914245398,0
3535,6.25920561896514,0
3536,-2.692870223823493,0
3537,1.0765733944379225,0
3538,-0.3111033368030846,0
3539,0.07519081658135071,0
3540,-0.0438811731514428,0
3541,0.09717274583936267,0
3542,-0.003822636415486216,0
3543,-0.04316126417113552,0
3544,0.055557771442880904,0
3545,0.06283840686665018,0
3546,0.020401863200737756,0
3547,0.02777397769206649,0
3548,-0.031901610460901016,0
3549,0.024618957361507605,0
3550,0.5186407806893419,0
3551,5.474685779539068,0
3552,3.4921328073408935,0
3553,-2.7498142661155125,0
3554,1.4977854217982225,0
3555,-0.7418817492783932,0
3556,0.3815726661520072,0
3557,-0.062097859989672155,0
3558,0.11085610700830452,0
3559,-0.03539737023776714,0
3560,0.01856313807341324,0
3561,0.046136950099981394,0
3562,-0.0633597181121067,0
3563,0.02162297947632061,0
3564,-0.10130957155262349,0
3565,0.053043780967474724,0
3566,-0.02496784924367811,0
3567,1.5923433978203185,0
3568,6.913327167403602,0
3569,-0.14283220830878782,0
3570,-0.9420739510616226,0
3571,0.8040949541465282,0
3572,-0.37800054511511333,0
3573,0.15242300546050735,0
3574,-0.028341621175501784,0
3575,0.007913884579541064,0
3576,-0.01143037674802521,0
3577,0.07439022793479821,0
3578,0.03708714729596966,0
3579,0.009976462720472538,0
3580,0.026914469546220232,0
3581,0.07561706018321374,0
3582,0.07436574394930896,0
3583,0.1582489525139295,0
3584,3.493831384397928,0
3585,6.346065437261008,0
3586,-2.6628640278578084,0
3587,1.0772398307702504,0
3588,-0.2150619260691673,0
3589,0.15249890987739334,0
3590,-0.09241767412836974,0
3591,0.046274612036289964,0
3592,0.04084242246889635,0
3593,0.1282844521131446,0
3594,0.012521491128707568,0
3595,0.07437601520017746,0
3596,-0.006218934707957376,0
3597,0.08163511619496447,0
3598,0.08725543584267981,0
3599,0.10628240452557615,0
3600,0.4986968924473342,0
3601,5.565564013093655,0
3602,3.4459357584995898,0
3603,-2.684490814853893,0
3604,1.5956337740800135,0
3605,-0.7948032990272774,0
3606,0.3395641992402817,0
3607,-0.09850018408443921,0
3608,0.04634368085067342,0
3609,0.012749560353671646,0
3610,0.01890133354180707,0
3611,0.04907067345681884,0
3612,0.008027554343653312,0
3613,0.0868933020828983,0
3614,-0.04353280498149699,0
3615,-0.009640549575382629,0
3616,0.041541003114810626,0
3617,1.639777825155057,0
3618,6.915367989020219,0
3619,-0.17365258523373503,0
3620,-0.8842136596359945,0
3621,0.8036011410370865,0
3622,-0.39332292339054625,0
3623,0.171727587638573,0
3624,-0.038843476083573185,0
3625,0.009694937674997517,0
3626,0.0037791182712990368,0
3627,0.020981087860881948,0
3628,0.07139169146565637,0
3629,0.0003363840822106848,0
3630,0.0798851441847287,0
3631,0.02832201970910955,0
3632,0.01719511898448663,0
3633,0.22234074317492908,0
3634,3.5297476220899946,0
3635,6.285782730457841,0
3636,-2.734946745521709,0
3637,1.029396728380044,0
3638,-0.39443029102574956,0
3639,0.11588155036070938,0
3640,0.02909208222789082,0
3641,0.0017282672688840317,0
3642,0.10540091580224598,0
3643,0.07963225187481386,0
3644,-0.06933044034947,0
3645,0.14739886367989657,0
3646,0.12041624616384734,0
3647,0.07468629620854368,0
3648,0.007174996363069095,0
3649,0.0359528897330164,0
3650,0.580690209767177,0
3651,5.646161923348729,0
3652,3.4633422573280686,0
3653,-2.68370086211273,0
3654,1.4963282505838051,0
3655,-0.7630256299585765,0
3656,0.3192682786796403,0
3657,-0.11533447986618559,0
3658,0.016593272243729796,0
3659,0.007996099874919286,0
3660,-0.03753859505695635,0
3661,0.027926494645040115,0
3662,0.021116467551169367,0
3663,0.03627170117742228,0
3664,0.10603311755534195,0
3665,0.03936020991846082,0
3666,0.045067642002609015,0
3667,1.7407175209068826,0
3668,6.97520984808735,0
3669,-0.1971798790554385,0
3670,-0.9229185894376357,0
3671,0.7078116477903796,0
3672,-0.3233663081335089,0
3673,0.04234640200577405,0
3674,-0.05831081013139615,0
3675,-0.02607967624600717,0
3676,-0.0454053052019675,0
3677,-0.09590216580498356,0
3678,0.04591821913333634,0
3679,-0.0038465747326269914,0
3680,-0.07449026528409028,0
3681,-0.08674345313948566,0
3682,0.11189104528205446,0
3683,0.05214732059702318,0
3684,3.4788490762959077,0
3685,6.289652321261633,0
3686,-2.724988102813677,0
3687,1.1207775398987017,0
3688,-0.3919767856528825,0
3689,0.1405209860094814,0
3690,-0.051797387494286855,0
3691,-0.0037407440167937234,0
3692,0.012834539673785034,0
3693,0.02670548203324101,0
3694,0.020135637350491942,0
3695,0.009087950453748994,0
3696,0.035198216837256595,0
3697,0.014653106781560525,0
3698,0.013007484324404142,0
3699,-0.043348833581880256,0
3700,0.5385463655246839,0
3701,5.60590947830188,0
3702,3.397485498562163,0
3703,-2.789931736862322,0
3704,1.6410301702283305,0
3705,-0.7950223535764741,0
3706,0.2612690681304307,0
3707,-0.15766416835955996,0
3708,0.03697609256156036,0
3709,0.012096304083836343,0
3710,-0.029139842677741345,0
3711,0.020712680381845136,0
3712,-0.108665928675017,0
3713,0.012325843393255317,0
3714,-0.0021698495925626636,0
3715,0.00657409047529749,0
3716,0.02842251154773144,0
3717,1.5843043687787932,0
3718,6.854926616354555,0
3719,-0.26221733658657514,0
3720,-0.9124009156390842,0
3721,0.7367319114341438,0
3722,-0.42986768529298636,0
3723,0.10808742743219309,0
3724,-0.07849159613215032,0
3725,0.06505636806397039,0
3726,0.01240740984855517,0
3727,0.07088418633994505,0
3728,0.03660766220926343,0
3729,-0.09050834799302837,0
3730,0.10139387921413963,0
3731,-0.00694925786996917,0
3732,-0.10017109422286169,0
3733,0.13166719556719458,0
3734,3.474357524034437,0
3735,6.161291905193076,0
3736,-2.74199334034158,0
3737,1.0280866905392188,0
3738,-0.5176236385695767,0
3739,0.03459881843535282,0
3740,-0.055209697053269405,0
3741,-0.04536146376311119,0
3742,-0.07603069755602013,0
3743,-0.0035074630742353598,0
3744,-0.07237808910929364,0
3745,-0.0629218534417907,0
3746,0.039642271960105877,0
3747,0.026664264713727764,0
3748,-0.05077779462138572,0
3749,-0.1459781942484909,0
3750,0.4528056026440185,0
3751,5.623798923040825,0
3752,3.417085935083785,0
3753,-2.751145791794886,0
3754,1.5488946093281628,0
3755,-0.8348824857543998,0
3756,0.3075172506359202,0
3757,-0.07633777320388269,0
3758,-0.021804239531446477,0
3759,-0.012748292838272359,0
3760,-0.0200044722213433,0
3761,-0.01848086823086853,0
3762,-0.045159794980495965,0
3763,-0.024017287191199575,0
3764,0.0458858580377723,0
3765,-0.0163507919449015,0
3766,0.04196643118930833,0
3767,1.512444694230469,0
3768,6.880973483837885,0
3769,-0.27021467086351675,0
3770,-0.9122929155357549,0
3771,0.7501003707023685,0
3772,-0.4231423505736319,0
3773,0.1275620122955363,0
3774,-0.041647071624093465,0
3775,0.08041261492868199,0
3776,0.036844595894451077,0
3777,-0.025646503833525493,0
3778,-0.02963739160709687,0
3779,0.05915077304780811,0
3780,-0.001991567961099089,0
3781,-0.022449198603753134,0
3782,0.04996139674084241,0
3783,0.15118317487254354,0
3784,3.5487964777054573,0
3785,6.1734921698120635,0
3786,-2.735384348034904,0
3787,1.0907708632428954,0
3788,-0.32692666488436173,0
3789,0.10417783705577058,0
3790,-0.07601614665479729,0
3791,-0.013276811522053664,0
3792,-0.021876197824238677,0
3793,-0.07471957764237451,0
3794,-0.02316852840533199,0
3795,-0.01218922942669605,0
3796,-0.02209803802403094,0
3797,0.00628907329111148,0
3798,-0.06242047033750272,0
3799,0.09194885533561635,0
3800,0.5906395327482636,0
3801,5.575084229556147,0
3802,3.4017731174386694,0
3803,-2.7316820342535593,0
3804,1.5729244991595814,0
3805,-0.7870851675343228,0
3806,0.3599872717288,0
3807,-0.15806592701180217,0
3808,0.07198788530448705,0
3809,-0.04261463917845322,0
3810,-0.03240838093911229,0
3811,-0.017820065932699983,0
3812,0.03225809143686549,0
3813,-0.055077776696013325,0
3814,-0.0005827931180965515,0
3815,-0.021085792838583108,0
3816,0.06316609306587483,0
3817,1.6007488627888886,0
3818,6.893574868763016,0
3819,-0.2670694721262967,0
3820,-0.9087684339043421,0
3821,0.7458706955313126,0
3822,-0.30837168269063664,0
3823,0.13645672238487327,0
3824,-0.08113379158164569,0
3825,-0.0026603943194992777,0
3826,0.020237511626507505,0
3827,0.0024983201499384523,0
3828,0.04635293971708208,0
3829,-0.03612716446763307,0
3830,-0.0033242456756413,0
3831,-0.042781742707158565,0
3832,-0.001278390918441525,0
3833,0.16558199911105695,0
3834,3.5681183688274043,0
3835,6.206472366870122,0
3836,-2.757127626921546,0
3837,1.0482131027755768,0
3838,-0.3549829589769975,0
3839,0.1306910557066809,0
3840,-0.06986865542207463,0
3841,-0.03846105521515722,0
3842,-0.005952133307053627,0
3843,-0.09460000147324711,0
3844,-0.051723688535541615,0
3845,0.010643841700919273,0
3846,0.06915926485190822,0
3847,0.024551598178061997,0
3848,0.13023505062004778,0
3849,0.013609920299351787,0
3850,0.5389249674764898,0
3851,5.707154145760485,0
3852,3.3552129312122263,0
3853,-2.647472597337304,0
3854,1.5409187637597337,0
3855,-0.7136244483164165,0
3856,0.3814569868571423,0
3857,-0.035966248553409304,0
3858,0.1025059501702009,0
3859,0.0030497239715489427,0
3860,0.043251213117800495,0
3861,-0.03122732027296396,0
3862,-0.02139919806899143,0
3863,-0.008836335090327451,0
3864,0.018329568207661674,0
3865,-0.024193301551526335,0
3866,0.013725527719326884,0
3867,1.5798377727610742,0
3868,6.91127217465509,0
3869,-0.291718376338329,0
3870,-0.8889577120957961,0
3871,0.8255423614720003,0
3872,-0.3094203899742649,0
3873,0.157996210662678,0
3874,0.033809917278437206,0
3875,0.00515172776506443,0
3876,0.05870370193805144,0
3877,0.011083486111319572,0
3878,-0.006180109493359447,0
3879,0.01818794333979607,0
3880,0.08727816185914,0
3881,0.06374236837252412,0
3882,-0.059920198219078305,0
3883,0.144885209461561,0
3884,3.5645597756969423,0
3885,6.224931028500395,0
3886,-2.7755887585169177,0
3887,1.094765369631687,0
3888,-0.33754969787017247,0
3889,0.13161940364651314,0
3890,-0.017056530956226584,0
3891,0.09570364670394735,0
3892,0.030803672672516977,0
3893,0.03482455347336353,0
3894,0.01880656908914238,0
3895,-0.009255428934630319,0
3896,0.02148314821631315,0
3897,-0.018898011042364646,0
3898,-0.010851008462456633,0
3899,0.09876746122812999,0
3900,0.6166914550165302,0
3901,5.578460950531629,0
3902,3.3660036263317474,0
3903,-2.6290328593770593,0
3904,1.6462064496999862,0
3905,-0.737456264389201,0
3906,0.4262405140642536,0
3907,0.011255878934970251,0
3908,0.06366818760784379,0
3909,0.04144101757314471,0
3910,0.13541542069367596,0
3911,0.0913646840094936,0
3912,0.07819356058487417,0
3913,0.021171864750742564,0
3914,-0.03186175888298806,0
3915,0.004400992965508679,0
3916,0.08674754268712502,0
3917,1.7410048842279626,0
3918,6.969500653049873,0
3919,-0.24781060341927544,0
3920,-0.7241260399844146,0
3921,0.6796585149917029,0
3922,-0.4132015915260745,0
3923,0.14628866789907863,0
3924,0.008264391208142704,0
3925,0.12492590984000632,0
3926,0.06030576831991124,0
3927,0.06056591023701905,0
3928,0.04701808037260943,0
3929,0.12443949276132044,0
3930,0.1351540504031951,0
3931,5.9820927698822635e-05,0
3932,0.10121595701269023,0
3933,0.18694753776186707,0
3934,3.6351193414825405,0
3935,6.270121582585845,0
3936,-2.6636249472601423,0
3937,1.2292033620898954,0
3938,-0.38715533613479886,0
3939,0.14559364125994623,0
3940,-0.011190976779955498,0
3941,0.03587917570876393,0
3942,0.06279688033176131,0
3943,0.05622634630614912,0
3944,0.04568553303465228,0
3945,0.16900298727153865,0
3946,0.032460237232854246,0
3947,0.00879143074617457,0
3948,-0.011895864433431769,0
3949,0.025057983175462664,0
3950,0.6597316392049444,0
3951,5.677856236107419,0
3952,3.322366239337299,0
3953,-2.6279705177337034,0
3954,1.5843301145814328,0
3955,-0.6979653234527144,0
3956,0.4640881018690436,0
3957,-0.09687149566316684,0
3958,0.04596425872516707,0
3959,0.03165683787448237,0
3960,0.03307591838599544,0
3961,0.04240933522792645,0
3962,-0.021398661743721747,0
3963,-0.020825098797407283,0
3964,-0.017401233639187046,0
3965,0.01474218284231233,0
3966,-0.028628383264277052,0
3967,1.806583400870134,0
3968,6.99841038411809,0
3969,-0.24908206164710694,0
3970,-0.7738063740772386,0
3971,0.7332956748877947,0
3972,-0.367476241356388,0
3973,0.1449072437753485,0
3974,-0.012310729402284521,0
3975,0.16835365518166878,0
3976,0.03340031122251322,0
3977,0.1491594255394266,0
3978,0.08723185924178534,0
3979,0.08521329758943236,0
3980,-0.009199012619120539,0
3981,0.026259520089769398,0
3982,0.04638084910291204,0
3983,0.21237715786576147,0
3984,3.611983965267096,0
3985,6.132828379369083,0
3986,-2.6855393431771715,0
3987,1.1622612680446582,0
3988,-0.39194996095619683,0
3989,0.1002034339586079,0
3990,-0.07763340979313427,0
3991,0.0816110713004016,0
3992,-0.001046585815946105,0
3993,-0.007227759216028588,0
3994,-0.005558834336014944,0
3995,-0.007333168352475557,0
3996,0.003522022762571155,0
3997,-0.04469836425672507,0
3998,0.01939769557015461,0
3999,0.05554258095593274,0
4000,0.6087503542393288,0
4001,5.7225844256838805,0
4002,3.260930479662011,0
4003,-2.704563613664847,0
4004,1.6634437072289194,0
4005,-0.781549633414094,0
4006,0.4233511093597856,0
4007,-0.14782020336344553,0
4008,0.038938346698058415,0
4009,0.0649836749391828,0
4010,0.012570323052140897,0
4011,0.07120255780057506,0
4012,0.03632892329188475,0
4013,0.07568568512059318,0
4014,0.010575297683910898,0
4015,-0.10728382053591295,0
4016,0.012779718952547228,0
4017,1.6247073559982077,0
4018,6.9394066349215455,0
4019,-0.37449165814878144,0
4020,-0.8093902019761917,0
4021,0.7642600432209428,0
4022,-0.3329675807052474,0
4023,0.1122344926939988,0
4024,-0.025539487918074887,0
4025,0.058866896872930674,0
4026,-0.12992551179466497,0
4027,0.007304353281389986,0
4028,0.008810478481560774,0
4029,-0.06837143359696798,0
4030,0.034522906608661204,0
4031,0.07708480742205091,0
4032,0.012947973794627214,0
4033,0.12461627599238642,0
4034,3.576817375950893,0
4035,6.094119821637875,0
4036,-2.8450558393276153,0
4037,1.0638746374627983,0
4038,-0.39210522185222674,0
4039,0.12026983671249572,0
4040,-0.041234005995643856,0
4041,0.07630874997804911,0
4042,-0.014163368152563971,0
4043,-0.05476753623278187,0
4044,-0.02556868383472849,0
4045,0.02283614206683488,0
4046,-0.05852870938609585,0
4047,0.027059918799535416,0
4048,0.09427526188602403,0
4049,-0.05920714061129155,0
4050,0.5397576050718781,0
4051,5.6526882246703,0
4052,3.1611482211179904,0
4053,-2.7930254808915502,0
4054,1.5228081930939652,0
4055,-0.8491196474532139,0
4056,0.18238284187281623,0
4057,-0.016652031846646445,0
4058,-0.05634796236772528,0
4059,-0.06066590517560874,0
4060,0.05103808710024662,0
4061,-0.039708603355019044,0
4062,-0.011122785235498625,0
4063,-0.03710085538969702,0
4064,0.0277616959032423,0
4065,-0.03855441772429977,0
4066,-0.03437280922505053,0
4067,1.5654200506742901,0
4068,6.944125462130132,0
4069,-0.36537512654810156,0
4070,-1.0086244997738614,0
4071,0.5800115828409741,0
4072,-0.3859153455822183,0
4073,0.17560415117229405,0
4074,-0.04145504847497439,0
4075,-0.04929615795993282,0
4076,-0.061104145260706205,0
4077,-0.025740255538782016,0
4078,0.011503409347998188,0
4079,0.00956897682261031,0
4080,0.05012343734976728,0
4081,0.03702634770918061,0
4082,0.018588638639665152,0
4083,0.13242366658987653,0
4084,3.6724130019328274,0
4085,6.14057351270224,0
4086,-2.8024587005190345,0
4087,1.1514009325723253,0
4088,-0.3343275385933911,0
4089,0.1525451043180415,0
4090,-0.0040423783871806306,0
4091,0.012313038216419485,0
4092,0.028582566595496125,0
4093,0.06923377838915912,0
4094,0.07321555671311894,0
4095,0.035243621659426086,0
4096,-0.0005911194650589802,0
4097,0.03866537385490947,0
4098,0.0712868784368296,0
4099,0.013867657278459993,0
4100,0.5476826430716764,0
4101,5.69520989748675,0
4102,3.271247164382862,0
4103,-2.691978529577623,0
4104,1.4195134798690099,0
4105,-0.7438607704977226,0
4106,0.3370724645691849,0
4107,-0.199781487175464,0
4108,0.019159876885405984,0
4109,0.030273346594522365,0
4110,-0.04442350995907922,0
4111,-0.0014945898290483327,0
4112,-0.06132536137716604,0
4113,-0.03433412442739436,0
4114,-0.10585620359783571,0
4115,-7.071396065957622e-05,0
4116,0.011977898444683293,0
4117,1.6875356728720396,0
4118,6.9236887273448495,0
4119,-0.4127137294283801,0
4120,-0.7826772381644234,0
4121,0.6981212839916553,0
4122,-0.4394959363819766,0
4123,0.11972465663186907,0
4124,-0.11822043250740275,0
4125,-0.02414116434980973,0
4126,0.03741608906912643,0
4127,-0.02751778517672198,0
4128,-0.025354271238767385,0
4129,-0.031231495698018398,0
4130,-0.042689429024615665,0
4131,0.02016730973997377,0
4132,0.07318092662369605,0
4133,0.20684182302967247,0
4134,3.6902541170003187,0
4135,6.06051376068402,0
4136,-2.767820735851757,0
4137,1.141405091265252,0
4138,-0.40112381828830035,0
4139,0.14122444758970307,0
4140,-0.04881320865477291,0
4141,0.0349785988620637,0
4142,-0.008752731148468881,0
4143,0.0710377175663965,0
4144,0.09506551945722394,0
4145,-0.08534196695278941,0
4146,-0.05217753771895557,0
4147,-0.0950029453187404,0
4148,-0.08725506893594093,0
4149,-0.06835032039246139,0
4150,0.5620757932266449,0
4151,5.643775028575049,0
4152,3.191180561573117,0
4153,-2.735243789019457,0
4154,1.3941867559943415,0
4155,-0.8907352742640945,0
4156,0.36828619831849835,0
4157,-0.18975231766669873,0
4158,0.01886332830393082,0
4159,-0.054134754921066314,0
4160,-0.14058128788629737,0
4161,-0.06120057112899882,0
4162,-0.04370156022871547,0
4163,-0.00419079862582572,0
4164,-0.04340014894538995,0
4165,-0.08501226909858535,0
4166,-0.026407440664439237,0
4167,1.6629984313174149,0
4168,6.987307446880814,0
4169,-0.5335250448747917,0
4170,-0.7417600946054855,0
4171,0.7066135432660037,0
4172,-0.3426986616937574,0
4173,0.17140846951914496,0
4174,0.015967719368126652,0
4175,-0.04193006033523035,0
4176,0.04998405068094922,0
4177,0.023146843100842567,0
4178,-0.010652038575072242,0
4179,0.06369725940240686,0
4180,0.05193825848232618,0
4181,-0.14711134416626137,0
4182,0.05972301476501943,0
4183,0.07371090000547893,0
4184,3.564088660855728,0
4185,6.134154693876366,0
4186,-2.783999058000954,0
4187,1.121117282944985,0
4188,-0.47575850278421694,0
4189,0.10519440592382487,0
4190,-0.00335259125366311,0
4191,0.020534291561109447,0
4192,0.0006698223542040277,0
4193,0.09249905062083874,0
4194,0.035588914017173706,0
4195,0.08326098039732775,0
4196,0.05211727294715167,0
4197,0.06165968339622611,0
4198,0.10650398187646462,0
4199,0.04591999829123542,0
4200,0.6424873383869467,0
4201,5.729508126281802,0
4202,3.129550104521516,0
4203,-2.6111685178716306,0
4204,1.6171624772842714,0
4205,-0.8175029407266382,0
4206,0.41077713346404116,0
4207,-0.054800111077292005,0
4208,-0.05942127752760054,0
4209,0.021900360756059875,0
4210,0.02422497212724963,0
4211,0.049621783474180316,0
4212,-0.06351887914627888,0
4213,0.07669883451572626,0
4214,-0.09233395140278619,0
4215,-0.03051140509130004,0
4216,-0.04522935366885879,0
4217,1.655385239642103,0
4218,6.93166087539604,0
4219,-0.49261637775819567,0
4220,-0.788151698142872,0
4221,0.6412511369258826,0
4222,-0.43952042015234855,0
4223,0.18503426118441618,0
4224,-0.052349324878914506,0
4225,-0.07151538703666074,0
4226,0.006719645458559803,0
4227,0.05655005584937634,0
4228,-0.05560915456112462,0
4229,0.0061213110670648545,0
4230,-0.034283321767003765,0
4231,0.001124900911104794,0
4232,0.051052128169532904,0
4233,0.03821449950362797,0
4234,3.5392363472888233,0
4235,5.961145456485569,0
4236,-2.762248552581728,0
4237,1.147387060678799,0
4238,-0.3579313431295824,0
4239,0.10980389975450505,0
4240,-0.06238645503399137,0
4241,0.17974115223384607,0
4242,-0.011030034095052994,0
4243,0.1568238647872579,0
4244,0.09609681142886406,0
4245,0.034342740114072144,0
4246,0.0007985050322484033,0
4247,0.049454408479885546,0
4248,0.10065784735820311,0
4249,-0.010173104931595879,0
4250,0.6686647833580802,0
4251,5.759458369045811,0
4252,3.208206701457229,0
4253,-2.583286283104815,0
4254,1.5204159671108353,0
4255,-0.7457482819705757,0
4256,0.2292713077717555,0
4257,-0.11126900896169124,0
4258,0.035436801782782315,0
4259,-0.0893561771942048,0
4260,0.041514210569521225,0
4261,-0.11720220311566668,0
4262,0.03782519279375907,0
4263,0.024307127472826588,0
4264,-0.050257238109933,0
4265,-0.1391565749062822,0
4266,-0.03901545792931784,0
4267,1.642033712996948,0
4268,6.896353781628896,0
4269,-0.5021078723034673,0
4270,-0.7931970212739892,0
4271,0.70586685317629,0
4272,-0.36007438695106436,0
4273,0.060131448521740585,0
4274,0.030321963442514602,0
4275,-0.06209801797177467,0
4276,-0.03801899769834037,0
4277,-0.052482505993498685,0
4278,0.09325455724584948,0
4279,-0.019415074460374587,0
4280,0.06507528478105755,0
4281,-0.04422626114202954,0
4282,0.021689774072673824,0
4283,0.10610475281902317,0
4284,3.6702486653802677,0
4285,6.007470840047561,0
4286,-2.7512328248963858,0
4287,1.2132775276393606,0
4288,-0.4992850688380797,0
4289,0.13758393252944207,0
4290,-0.16117913406099732,0
4291,-0.010815073023582887,0
4292,-0.06647556051873352,0
4293,0.05817855828879301,0
4294,-0.07397711962294679,0
4295,0.09296419449047658,0
4296,-0.06537017990386815,0
4297,0.023271298896006723,0
4298,0.017037864778250394,0
4299,-0.048511346203334464,0
4300,0.5158748251708017,0
4301,5.7449709371881275,0
4302,3.149942260071969,0
4303,-2.613825965491326,0
4304,1.524668251111927,0
4305,-0.9050686168496307,0
4306,0.2897875490956496,0
4307,-0.0990627203166136,0
4308,-9.152524418868865e-05,0
4309,-0.015107495095304836,0
4310,-0.021587468754649633,0
4311,0.0658605558456068,0
4312,0.04746984030818138,0
4313,-0.023264323465138938,0
4314,0.003160721963275534,0
4315,-0.01315965096989469,0
4316,-0.03516282392379538,0
4317,1.7519950574473635,0
4318,6.853496046752334,0
4319,-0.5448831517760264,0
4320,-0.8526739258818771,0
4321,0.48150309757201304,0
4322,-0.4331306359053026,0
4323,-0.12232428648208252,0
4324,-0.18669262426011207,0
4325,-0.040337996818218536,0
4326,-0.10595615503644513,0
4327,-0.10254687274137014,0
4328,-0.1081001328743728,0
4329,-0.19629098591666008,0
4330,-0.08175246847290533,0
4331,-0.09496701383939726,0
4332,-0.13958295300393045,0
4333,0.07324041115008814,0
4334,3.673116540185002,0
4335,5.999544627035293,0
4336,-2.8456163952790257,0
4337,1.1129729872406742,0
4338,-0.5029143803731473,0
4339,0.046776310200648125,0
4340,-0.12084328346066987,0
4341,-0.01802553015859067,0
4342,-0.02803602031661169,0
4343,-0.05817832156472406,0
4344,-0.04412715905519486,0
4345,-0.0326019093863638,0
4346,-0.002272131384390738,0
4347,-0.03556656406804448,0
4348,-0.0005051665930695289,0
4349,0.06589862865795179,0
4350,0.6142529220515663,0
4351,5.797705755438852,0
4352,3.0236998548379788,0
4353,-2.671426728414451,0
4354,1.5458647466502675,0
4355,-0.7943979486020571,0
4356,0.27549834299138076,0
4357,-0.11388005444926937,0
4358,0.06742366012926226,0
4359,0.07395445387827235,0
4360,-0.08799839632982612,0
4361,-0.028207285831861738,0
4362,-0.07333104338563638,0
4363,-0.011945528404748978,0
4364,0.039132661439921744,0
4365,0.013170858561633275,0
4366,0.04301247931199445,0
4367,1.7242153297848637,0
4368,7.02538403134684,0
4369,-0.5458091887808794,0
4370,-0.7227459517608213,0
4371,0.6400614897185658,0
4372,-0.3736219785214892,0
4373,0.1489763731652312,0
4374,-0.1376855201665872,0
4375,-0.05566849970734361,0
4376,-0.05903471245879739,0
4377,0.08203380805107134,0
4378,-0.01740257563841023,0
4379,0.05777622668863542,0
4380,-0.07581043827454585,0
4381,-0.08127070486980417,0
4382,0.04905534894640953,0
4383,0.10513587245637068,0
4384,3.603470777114759,0
4385,6.004486845783146,0
4386,-2.9032759657809337,0
4387,1.0996903100317645,0
4388,-0.5016467551779045,0
4389,0.15359186392350452,0
4390,-0.10962746615250481,0
4391,0.00663105869868956,0
4392,-0.06143076459343765,0
4393,-0.021956135525644557,0
4394,-0.03580483183291805,0
4395,0.0037826580482540214,0
4396,0.008756383911297305,0
4397,0.02349905202223181,0
4398,0.016048801667100935,0
4399,0.04020323888622161,0
4400,0.6779724970317165,0
4401,5.814747303422427,0
4402,3.1400532023536663,0
4403,-2.5610698594692485,0
4404,1.534192652639237,0
4405,-0.6621876567707712,0
4406,0.3735276998756841,0
4407,-0.06534387177854598,0
4408,0.0757017750699867,0
4409,0.08936127590368209,0
4410,0.11744781177812194,0
4411,0.0396451234767391,0
4412,0.024244683431768728,0
4413,0.050008606586799925,0
4414,0.08500658760348356,0
4415,0.14707809103806324,0
4416,0.15316685950466313,0
4417,1.8490801873069853,0
4418,7.009856975630253,0
4419,-0.5286220758994493,0
4420,-0.6075327919669076,0
4421,0.720344413991956,0
4422,-0.20947869562671498,0
4423,0.1913303709449777,0
4424,-0.049325664926892165,0
4425,0.040734448079833833,0
4426,0.03897532892196879,0
4427,0.027143935933690765,0
4428,0.06934246996160504,0
4429,0.03422706493594115,0
4430,0.05626458694414939,0
4431,0.10650945112524882,0
4432,0.02109351610871174,0
4433,0.13792996111874287,0
4434,3.6927226513067097,0
4435,6.129711005770355,0
4436,-2.698490756501562,0
4437,1.1536364080670276,0
4438,-0.42645558726293764,0
4439,0.2323965901955281,0
4440,-0.07231841787149608,0
4441,0.07472758336369714,0
4442,0.04252172593740346,0
4443,0.0923591622986358,0
4444,0.13685460431476346,0
4445,0.08365485787385521,0
4446,0.07188441524330501,0
4447,0.07813082028415728,0
4448,0.15542215450367047,0
4449,0.08899289270040245,0
4450,0.7036019151735287,0
4451,5.832188513013567,0
4452,3.1270156827678024,0
4453,-2.534635595064153,0
