timestamp,value-0,is_anomaly
0,0.22582242882525783,0
1,4.450537942201523,0
2,4.863779741701626,0
3,-3.1650586325654,0
4,1.343764906798467,0
5,-0.7377913395449012,0
6,0.1990825565760076,0
7,-0.20846748956375047,0
8,-0.13396493156923195,0
9,-0.03553740036305583,0
10,-0.037662554372055096,0
11,0.026204871691669074,0
12,-0.012277427246755068,0
13,0.013430079144645002,0
14,-0.1739110891965397,0
15,0.02977387503124046,0
16,-0.0057660914164636284,0
17,0.908507866686724,0
18,6.3378608391976945,0
19,1.6224623314215465,0
20,-2.113126110069659,0
21,1.0387263592088185,0
22,-0.8637254832463301,0
23,0.13881744206653682,0
24,-0.1833570000775303,0
25,-0.17825478427059827,0
26,-0.08418565126492246,0
27,-0.13872388375661127,0
28,-0.20477409228715765,0
29,-0.1023339028819274,0
30,-0.11366389287076265,0
31,-0.10516453597822452,0
32,-0.07340492140013609,0
33,-0.06497806686075729,0
34,2.507427206178112,0
35,6.785093018034241,0
36,-1.8166517206210095,0
37,0.1161222856932921,0
38,0.0656544774518942,0
39,-0.11246701061110304,0
40,0.06487929527992445,0
41,0.09328692119900307,0
42,0.007127012212318807,0
43,-0.045457520697254485,0
44,-0.04155274429763606,0
45,-0.01568992486242836,0
46,-0.1403036619619977,0
47,-0.038703428157764966,0
48,-0.0807607895257671,0
49,0.010872231068665653,0
50,0.14841977149215946,0
51,4.553385588067732,0
52,4.878995512672184,0
53,-3.1018653851594067,0
54,1.3795704047724433,0
55,-0.8250408455608125,0
56,0.29025992719031973,0
57,-0.18036293895443417,0
58,0.07774497747774647,0
59,-0.08609899404892934,0
60,-0.08596746904739255,0
61,-0.0007033525632518106,0
62,-0.08389417117958671,0
63,-0.06013369384195419,0
64,-0.06454423880595506,0
65,-0.024948530037937604,0
66,-0.03453568283317907,0
67,0.9834917771396676,0
68,6.470730009024798,0
69,1.5125473436297943,0
70,-1.9690478045259678,0
71,1.3121410698795593,0
72,-0.7241363210656444,0
73,0.28130781440609154,0
74,0.016170378730475166,0
75,-0.035748826347943116,0
76,0.0014658354478385366,0
77,-0.0068076896852634836,0
78,0.005898032935215832,0
79,0.013213602372199856,0
80,0.12490511694412258,0
81,-0.058180234721519716,0
82,0.004595935867707988,0
83,0.022658788417040335,0
84,2.6133862593026804,0
85,6.911950270583001,0
86,-1.7316640778282963,0
87,0.15779404958535878,0
88,0.2240539466491987,0
89,-0.04991578634304554,0
90,0.03316544181907657,0
91,-0.05103632254542388,0
92,-0.04920763230396719,0
93,0.027770696703850684,0
94,-0.09579586417552137,0
95,0.04709002182506722,0
96,0.003802048279314284,0
97,-0.0851160860155981,0
98,-0.014547154218044478,0
99,0.026797072517736324,0
100,0.2417833175975403,0
101,4.6086609468608835,0
102,5.02416917579276,0
103,-2.9376419973241714,0
104,1.4934032890494404,0
105,-0.7667506736200898,0
106,0.30188102776174125,0
107,-0.15388637820068385,0
108,0.04142757201371443,0
109,0.0007344368635227276,0
110,0.0027982541307878745,0
111,-0.04378239699799806,0
112,0.04222956484136955,0
113,0.059402772692442124,0
114,0.055608662778030615,0
115,0.13146255764413226,0
116,0.017759930705158557,0
117,1.0378620580340525,0
118,6.432066821930063,0
119,1.5099108459622854,0
120,-1.9274141373600318,0
121,1.2454184727726234,0
122,-0.527981644694432,0
123,0.3076083974295526,0
124,-0.022990974348533685,0
125,-0.05453933494424172,0
126,0.027597989705351468,0
127,0.0027984915974660213,0
128,0.029366281914588947,0
129,0.08812445710879761,0
130,0.07653431197324274,0
131,0.07593470566573932,0
132,0.006180799925900968,0
133,0.10334443108612,0
134,2.611515913381255,0
135,6.965951905031854,0
136,-1.8572603083885553,0
137,0.25933422044553234,0
138,0.19173390727794723,0
139,-0.08174231464104875,0
140,0.20251800695447397,0
141,0.051695095678203434,0
142,-0.021126276109664145,0
143,0.05860380768019864,0
144,-0.08948924959205357,0
145,-0.04952870597831406,0
146,0.05318397016638062,0
147,-0.048040263337519554,0
148,0.006767136298528314,0
149,-0.02293395349996081,0
150,0.345450828590282,0
151,4.639883083387907,0
152,4.864724565647075,0
153,-2.982904552879048,0
154,1.5640915880847788,0
155,-0.7305750900801861,0
156,0.31208070340454663,0
157,-0.10376472972213968,0
158,0.028337504303540102,0
159,-0.04515692130099517,0
160,-0.011991706488553817,0
161,-0.04846156897497096,0
162,-0.01158166743572124,0
163,0.013764241770697055,0
164,0.03307020605906509,0
165,-0.033273523623294464,0
166,-0.010075322445112986,0
167,1.0034664152957344,0
168,6.448854996038135,0
169,1.5862170292264428,0
170,-1.9255500228368982,0
171,1.3213844594678443,0
172,-0.6040111757149336,0
173,0.28053506557334584,0
174,-0.05384374960525365,0
175,-0.01791555349275621,0
176,-0.044221977689012204,0
177,-0.009069746123959563,0
178,-0.08722437882962106,0
179,-0.025393026512241915,0
180,0.026378268257995417,0
181,-0.003526334453202216,0
182,-0.028908508623102024,0
183,0.06001691118472209,0
184,2.4139498824714116,0
185,6.907481440108492,0
186,-1.7797022744857758,0
187,0.21915172517519027,0
188,0.23687704509149587,0
189,-0.049601966981342296,0
190,0.036942137254265275,0
191,0.024119496678046665,0
192,-0.01765678381342836,0
193,-0.04430641232579947,0
194,-0.015542539521918974,0
195,0.09089557698061293,0
196,0.006187397397234156,0
197,-0.011613376531831112,0
198,0.04710997325761257,0
199,-0.010665588772517352,0
200,0.2662725643880138,0
201,4.688657734667015,0
202,4.831282608217582,0
203,-3.032927452924598,0
204,1.5839539823972646,0
205,-0.6333178430675062,0
206,0.3965992565837976,0
207,-0.08269674533567586,0
208,0.02644209399890835,0
209,-0.022668189291450924,0
210,0.0053581336771555965,0
211,-0.14183518746549348,0
212,0.04681289532271099,0
213,0.054195600092249524,0
214,0.02262425852439266,0
215,0.016578777837538368,0
216,0.10365083490115948,0
217,1.0300475001042018,0
218,6.428535968408904,0
219,1.4275590339830615,0
220,-1.8977556434811984,0
221,1.2339399212597721,0
222,-0.6224229269909581,0
223,0.323403989606659,0
224,-0.1217164828436463,0
225,0.10496491953551307,0
226,-0.023878772378636517,0
227,0.07279863527640364,0
228,0.0590319421338734,0
229,-0.0005952218936086939,0
230,0.16280747455824227,0
231,0.09204339266133627,0
232,0.1025558219593375,0
233,0.0437432980162373,0
234,2.5505873538163804,0
235,6.960247963940601,0
236,-1.8307904465572313,0
237,0.33498472068189866,0
238,0.11192519119949342,0
239,-0.03814014405939751,0
240,0.09277045755120844,0
241,0.10121276494522466,0
242,-0.0010547406185830444,0
243,0.071966638412577,0
244,0.042382863610634605,0
245,0.02223110519282561,0
246,0.061963977192255236,0
247,0.1486823751719859,0
248,0.037478616436382076,0
249,-0.09304605004831155,0
250,0.27627107437391135,0
251,4.694327594335135,0
252,4.8604782089802,0
253,-2.9708015058074677,0
254,1.4678320193771088,0
255,-0.7136851715301652,0
256,0.37422447334785425,0
257,-0.04206378780190948,0
258,0.13101855132899354,0
259,0.09234768642723745,0
260,-0.03601012051493102,0
261,0.027013020658672945,0
262,0.07382150199483548,0
263,0.06747730856938502,0
264,-0.05976461886192893,0
265,-0.036889478303501186,0
266,0.04521181899994303,0
267,1.1059465065252378,0
268,6.509335393487151,0
269,1.3533217932221173,0
270,-1.9039685204114496,0
271,1.2606343579624624,0
272,-0.6370107139376007,0
273,0.17063967597779095,0
274,-0.13997887942668424,0
275,0.12656078438902632,0
276,0.07191305801552378,0
277,-0.04345534782780251,0
278,-0.06770024544825014,0
279,0.10252048727560492,0
280,0.0347820532937038,0
281,0.04830977616413444,0
282,0.0986457851513351,0
283,0.12693849438850205,0
284,2.5922199642477715,0
285,6.871304112545177,0
286,-1.838824286343079,0
287,0.23154052420361862,0
288,0.11433215103283499,0
289,-0.16454893523877734,0
290,0.09337664623220185,0
291,-0.0666755571879297,0
292,-0.06480041467267397,0
293,-0.05362057523858116,0
294,-0.058079741722389805,0
295,-0.016169647157729672,0
296,-0.03894744814078509,0
297,-0.010740226530726125,0
298,0.04586179598171684,0
299,0.03183484568777027,0
300,0.3153584335762185,0
301,4.732698484484998,0
302,4.8360358306214195,0
303,-2.9390725747552606,0
304,1.6180481129219615,0
305,-0.8000506649111202,0
306,0.30313279492339035,0
307,-0.1398797342223289,0
308,0.02858903247324996,0
309,-0.014254443126933903,0
310,0.0189789968349128,0
311,-0.1291295386339137,0
312,-0.1112240877529513,0
313,0.03695673558356698,0
314,-0.004522059596872796,0
315,-0.007380697809051588,0
316,-0.011018442078167403,0
317,1.1113881526390683,0
318,6.560452519731149,0
319,1.4761602580124082,0
320,-1.9266967864429365,0
321,1.2158555005835046,0
322,-0.5750602931223036,0
323,0.26193677716737823,0
324,-0.08314472342342441,0
325,-0.009001602391660268,0
326,0.0015724982041094154,0
327,0.061284788777343766,0
328,0.034268284374301156,0
329,-0.07526504553651629,0
330,-0.11381089095658314,0
331,-0.08443598437908684,0
332,-0.04897203608422183,0
333,-0.023115680203235293,0
334,2.523648111617378,0
335,6.790677439045471,0
336,-1.9142116301012855,0
337,0.26325193166773064,0
338,0.014813623491004568,0
339,-0.09434029450247348,0
340,-0.02766454642298736,0
341,0.05844309202501287,0
342,-0.04051831972117596,0
343,-0.024644505666944504,0
344,0.13630948417176,0
345,0.013515657366512966,0
346,0.0018048732399510783,0
347,0.10268949146089615,0
348,-0.03553743997785988,0
349,0.0012691149103037647,0
350,0.37252028258935393,0
351,4.766913161206223,0
352,4.852183561988395,0
353,-2.9442109402036283,0
354,1.6444123063895588,0
355,-0.7113166949978863,0
356,0.37104792414273907,0
357,-0.06211515819242755,0
358,0.006235942150879185,0
359,-0.010299064437929653,0
360,-0.033135563591440986,0
361,-0.036733928956186726,0
362,-0.0012072424419444054,0
363,-0.07208412017938376,0
364,-0.06847508164014952,0
365,0.023787763137633984,0
366,0.038506594571462674,0
367,1.0672956991983584,0
368,6.420069588809584,0
369,1.3628054472783342,0
370,-1.839692805073981,0
371,1.1705790153957927,0
372,-0.7474651005085289,0
373,0.18473904576054206,0
374,-0.17608103229052702,0
375,-0.051857226352943014,0
376,0.0497110229334504,0
377,-0.07472112956104654,0
378,-0.09361267619101146,0
379,-0.07065774764141108,0
380,0.0033299476137768486,0
381,-0.0660189307491023,0
382,-0.03892886286376079,0
383,0.036653619981983875,0
384,2.624191537047317,0
385,6.860802061816148,0
386,-1.9224419027359758,0
387,0.17568933778393514,0
388,0.12348878828442798,0
389,-0.13249294276163964,0
390,0.028887555212778516,0
391,-0.029891061601879463,0
392,0.004715507467138606,0
393,-0.08492098975955431,0
394,-0.035845540365386494,0
395,-0.04413667899781917,0
396,0.007107111250555201,0
397,-0.04282559778338472,0
398,-0.08597515907314286,0
399,-0.07909906942035985,0
400,0.1961491220518443,0
401,4.682423765038936,0
402,4.7883352453514005,0
403,-3.081431103563485,0
404,1.5623838107196406,0
405,-0.7991874832108959,0
406,0.243705997174005,0
407,-0.15969963829231254,0
408,-0.016777771671183057,0
409,-0.019704384473188133,0
410,-0.1313496657450896,0
411,0.05106532099699852,0
412,0.05691654003765162,0
413,0.06988459465014142,0
414,-0.09192118967888341,0
415,-0.04833560198595027,0
416,6.833281582933198e-05,0
417,1.0098542901293224,0
418,6.503406972320424,0
419,1.3692233522408979,0
420,-1.8528976810714604,0
421,1.1940817995919888,0
422,-0.5498283472515672,0
423,0.3116031722740112,0
424,-0.1331435625031268,0
425,-0.09809893639100067,0
426,0.056483337750777324,0
427,0.02724253547972286,0
428,0.02774810118972381,0
429,0.01463963426717076,0
430,-0.03505446472931816,0
431,0.0026660892554925745,0
432,0.018144382016674173,0
433,0.09124964034480312,0
434,2.580141026125334,0
435,6.771271983819288,0
436,-1.9735304981677075,0
437,0.1514997816039684,0
438,0.16402244837108204,0
439,-0.1282532570309862,0
440,0.0541376647223794,0
441,0.03179051541306581,0
442,-0.014398522106040798,0
443,0.0971416082824005,0
444,0.09446607079399555,0
445,0.11216599216681161,0
446,0.000691913020903297,0
447,-0.025608405435933613,0
448,0.118784989071749,0
449,-0.04279109942157881,0
450,0.2976812939375438,0
451,4.694236164366407,0
452,4.8623099671368895,0
453,-3.068725118398573,0
454,1.4937145330000703,0
455,-0.7910125649689477,0
456,0.29186181591318255,0
457,-0.08512903325018237,0
458,0.06591045460663145,0
459,0.008923445824630479,0
460,0.038840806205423455,0
461,-0.03851894502241416,0
462,0.016467285062087132,0
463,-0.003457553717756424,0
464,0.08183009597969768,0
465,0.010011573750918313,0
466,-0.004705515003217383,0
467,1.128786267930279,0
468,6.557716284766146,0
469,1.3114943205409688,0
470,-1.8346922040875324,0
471,1.138644595988694,0
472,-0.6399618990583827,0
473,0.22701662896272198,0
474,-0.09268336885888624,0
475,0.007947451758264413,0
476,-0.10352977656231498,0
477,-0.0699851563894954,0
478,0.014649888018138647,0
479,-0.01720318513961481,0
480,-0.05348407216888973,0
481,-0.05224278593470914,0
482,-0.013768709108179374,0
483,7.15215990206991e-05,0
484,2.6463918370284945,0
485,6.734461277620302,0
486,-1.94478534948959,0
487,0.2877721772309756,0
488,0.19445906128068796,0
489,-0.04544691110313335,0
490,0.10618244425935433,0
491,0.069386699527763,0
492,0.07053475660614097,0
493,0.09650926496754111,0
494,0.051135100584459636,0
495,0.04739026479211145,0
496,0.035109121759416044,0
497,0.051999699124205774,0
498,0.06260258679329733,0
499,0.1352995491600615,0
500,0.2967704850465503,0
501,4.751835529982047,0
502,4.796643061460318,0
503,-2.937711696310186,0
504,1.592882103342547,0
505,-0.7272896268249158,0
506,0.31179908620553237,0
507,-0.06595922593582093,0
508,0.033662878957594164,0
509,0.03429351475978014,0
510,-0.02048032562901372,0
511,0.012039958903110697,0
512,-0.004690299925476011,0
513,-0.022251285644809566,0
514,-0.04282040792940714,0
515,0.03768444877061483,0
516,0.050857434527181444,0
517,1.102867632949801,0
518,6.6372250820487535,0
519,1.3099356400550533,0
520,-1.7779445514269123,0
521,1.2473009433929376,0
522,-0.504540698459265,0
523,0.3384103729175447,0
524,-0.10220598117925231,0
525,0.09187721534505018,0
526,0.08572814197584128,0
527,-0.012840668465587485,0
528,0.07629880169281054,0
529,0.10945593372686413,0
530,0.09750731911276211,0
531,0.06450026235708443,0
532,0.11539684208584879,0
533,0.0863145375651128,0
534,2.678444853890756,0
535,6.893728459828105,0
536,-1.9911905621530372,0
537,0.3229885950422362,0
538,0.08905318373963364,0
539,-0.02678066256928341,0
540,0.018478021092063687,0
541,-0.04355941350363385,0
542,0.01706982542949607,0
543,0.020137619529969904,0
544,-0.035580909690145296,0
545,-0.024430962674010955,0
546,-0.05227873290415123,0
547,0.03871611311997555,0
548,0.03507552549213511,0
549,-0.02729860483798604,0
550,0.3149288567462505,0
551,4.757362886247448,0
552,4.820532113101598,0
553,-2.989447040232176,0
554,1.612719930613867,0
555,-0.6972304414599358,0
556,0.25505287436435886,0
557,-0.1088408143899715,0
558,0.08459433462812906,0
559,0.053282774902408556,0
560,0.09849671675490086,0
561,-0.061484942051160354,0
562,-0.04662322834862796,0
563,0.0066158917128959676,0
564,0.062017177176559815,0
565,-0.04963708945190248,0
566,0.0014569822572161185,0
567,1.052688572334776,0
568,6.607591529190832,0
569,1.3383673648077905,0
570,-1.7556563491153454,0
571,1.1400789751702487,0
572,-0.688649923208588,0
573,0.2947786625141763,0
574,-0.025352729734217094,0
575,0.03875234546596753,0
576,0.03179666073279077,0
577,-0.044882378091396086,0
578,0.008637197364316715,0
579,-0.08973569908544544,0
580,0.007118155920481132,0
581,-0.01831796064681066,0
582,0.005317813765435539,0
583,0.03464923583948496,0
584,2.596027000629436,0
585,6.77722427214657,0
586,-1.9435677097439052,0
587,0.3497762588201632,0
588,0.10801225027367031,0
589,-0.0791474779280295,0
590,0.1433707504945549,0
591,0.11398910504339936,0
592,0.03708834508464643,0
593,0.00774568455931866,0
594,0.010089405799005786,0
595,0.0706599399476755,0
596,0.04891294698047935,0
597,0.04790107554799068,0
598,0.036271601866787836,0
599,-0.0005706781990959626,0
600,0.30142481604352817,0
601,4.774396808662016,0
602,4.777529308697091,0
603,-2.9579993889676635,0
604,1.5576510625454774,0
605,-0.8568946559049784,0
606,0.2328332876865245,0
607,-0.09574113018590359,0
608,-0.029314684155123505,0
609,0.08184832686150448,0
610,0.008526212680862816,0
611,0.050440205465931386,0
612,-0.0010793154327166515,0
613,-0.029516526876129143,0
614,-0.07213728954948352,0
615,-0.013603823974906948,0
616,-0.04326148520272263,0
617,0.97272935374276,0
618,6.40649685966768,0
619,1.1586768624152086,0
620,-1.9171634814001732,0
621,1.08902117786848,0
622,-0.821261666057914,0
623,0.2898779197600366,0
624,-0.2123352827274019,0
625,-0.04289165175516088,0
626,-0.1725968934218119,0
627,-0.0329194269225567,0
628,-0.05735544844009044,0
629,-0.08333078779945807,0
630,-0.024035031310268396,0
631,0.047216345278267104,0
632,-0.1656717692768673,0
633,-0.021043760824043453,0
634,2.656636792860411,0
635,6.764957749840746,0
636,-1.9889166751581089,0
637,0.33134133607265287,0
638,0.021622736127119943,0
639,-0.10778104874671031,0
640,-0.053086551581415606,0
641,-0.05122394211372565,0
642,-0.017836547472834995,0
643,0.03433759395366255,0
644,-0.0414409852989966,0
645,-0.013823328109440806,0
646,-0.04637919768378775,0
647,0.012207480822314515,0
648,-0.006575166133613305,0
649,-0.10129207480591279,0
650,0.2558996045792286,0
651,4.768329557607532,0
652,4.808791246385446,0
653,-3.0366177007741477,0
654,1.494252387690394,0
655,-0.6980081417290117,0
656,0.2699011942006805,0
657,-0.08775891296096938,0
658,-0.005364759158659631,0
659,-0.133145732795139,0
660,-0.035852482562503334,0
661,-0.09766681261458107,0
662,-0.06725113154929262,0
663,-0.11958591333004967,0
664,-0.03965004138784127,0
665,-0.03196655282379017,0
666,-0.048530251074583836,0
667,1.0450915550447852,0
668,6.562908463337248,0
669,1.2161945107471386,0
670,-1.7247582451835721,0
671,1.1690623891806085,0
672,-0.6182365491079601,0
673,0.26758594682385917,0
674,-0.13128059547487736,0
675,-0.08237504792507144,0
676,0.003952254210727854,0
677,-0.006300158992574708,0
678,-0.018189331356791606,0
679,-0.010136117652730425,0
680,-0.049373281596885144,0
681,0.03235403566798456,0
682,-0.038052355804575576,0
683,-0.03485593219176703,0
684,2.620616604675065,0
685,6.654503492154162,0
686,-2.0771231024479127,0
687,0.35597365680761434,0
688,-0.0086469696117887,0
689,-0.06727844178531173,0
690,-0.11976366995383497,0
691,-0.01782388785972334,0
692,0.05199640611708142,0
693,-0.01647988548919447,0
694,0.02448607784384931,0
695,0.03113637787773335,0
696,-0.06826029908944554,0
697,0.09845396498715134,0
698,0.03448982197380137,0
699,0.016767188457074724,0
700,0.36566623129603143,0
701,4.82389731024497,0
702,4.83313386881529,0
703,-3.0034291815278884,0
704,1.5119216857335642,0
705,-0.7975999652385566,0
706,0.26398324933059775,0
707,-0.05485448608324874,0
708,0.09443189457400372,0
709,0.015049749160100916,0
710,-0.00481367529357046,0
711,0.08766448763677616,0
712,0.0014247254987929002,0
713,-0.0013132809196025894,0
714,0.05010212724073799,0
715,0.018916254991331795,0
716,0.01700570681545277,0
717,1.1433246299111148,0
718,6.564067213741261,0
719,1.0669791416762913,0
720,-1.8136367561888247,0
721,1.289325974042937,0
722,-0.5922929096477606,0
723,0.28274680293937077,0
724,-0.03341927394675579,0
725,0.03603996175525407,0
726,0.037322001009794485,0
727,0.03776598487128088,0
728,0.07550901959728776,0
729,0.04830675428064307,0
730,0.05552658608037461,0
731,0.014400637494452199,0
732,0.021751394196346613,0
733,0.052486465685355935,0
734,2.637176590628719,0
735,6.8666719153654086,0
736,-1.975244991041581,0
737,0.4148388518827401,0
738,0.0654620340518057,0
739,-0.08336910744756196,0
740,0.0051222114738857585,0
741,-0.02425502459724482,0
742,0.08774146148856304,0
743,-0.016996831380530476,0
744,-0.059433064521392534,0
745,0.062335108482160714,0
746,0.06005694447228478,0
747,0.010204599505812015,0
748,0.05124723657270282,0
749,0.00563989226460913,0
750,0.3940138496740896,0
751,4.9403331173253875,0
752,4.805585188436858,0
753,-2.8958629773204136,0
754,1.6391000322330853,0
755,-0.7669118550534658,0
756,0.30399691982036886,0
757,-0.09122629183254861,0
758,0.11677244615962123,0
759,0.06142265294025035,0
760,0.005928211271314779,0
761,0.02812086616474724,0
762,0.02602459933095274,0
763,0.13173361093791433,0
764,0.026785103111903803,0
765,-0.009683298252736464,0
766,0.017613907796635995,0
767,1.2069633157731605,0
768,6.633601153536787,0
769,1.1421633477402036,0
770,-1.7368830130200745,0
771,1.2161187272820186,0
772,-0.5933367761323062,0
773,0.33544222173493565,0
774,-0.15525010884574847,0
775,0.07437138531985238,0
776,-0.0010219064913845055,0
777,-0.011499373979814528,0
778,0.006035313427261574,0
779,0.01910950377546238,0
780,-0.0019322527652306486,0
781,0.011894593560865734,0
782,-0.011002749568449082,0
783,0.06190505015352576,0
784,2.7188634378482655,0
785,6.835012046772605,0
786,-1.96481710667787,0
787,0.4458762684059309,0
788,0.08345425674897777,0
789,0.05383555953002783,0
790,-0.04504190604993756,0
791,-0.010840358105609363,0
792,0.030626876132674834,0
793,-0.05868827991831539,0
794,0.027639637131174087,0
795,0.012162015280429423,0
796,-0.008396228605482513,0
797,-0.0007825182907755523,0
798,0.01443085727571046,0
799,-0.007983945523708517,0
800,0.3244858463609573,0
801,4.811888313830274,0
802,4.6851550182800965,0
803,-3.0111165055089235,0
804,1.5665075622022695,0
805,-0.7718229886229213,0
806,0.30544498424883726,0
807,-0.10302060599663322,0
808,0.004590934172679487,0
809,0.027533747678836585,0
810,-0.11367708549199261,0
811,0.0718177328723949,0
812,0.0325343232953251,0
813,-0.09354366707491267,0
814,0.00812058946635306,0
815,-0.01613140082728582,0
816,0.040023458660953845,0
817,1.2274922144566864,0
818,6.5678792199755645,0
819,1.2113387422727013,0
820,-1.6903357864928592,0
821,1.107919795717799,0
822,-0.505273988621061,0
823,0.37382818009374014,0
824,-0.060994757772811506,0
825,0.04389218531437844,0
826,-0.03249547133346664,0
827,-0.023510909293062886,0
828,-0.030422641780271428,0
829,0.09760929703123353,0
830,-0.009654755207443242,0
831,-0.027788399785192625,0
832,-0.022488021801090326,0
833,0.11389286433895934,0
834,2.7599394782268423,0
835,6.746218052259199,0
836,-2.021533364487421,0
837,0.43751011276391527,0
838,0.03046875301966555,0
839,-0.03328692213692566,0
840,-0.025182757310440382,0
841,-0.01120586437513145,0
842,0.04572546647669582,0
843,0.07759277461941239,0
844,-0.031164915345917,0
845,0.047578790310727745,0
846,-0.06584177917772437,0
847,0.006758851513521076,0
848,-0.0813404548171036,0
849,-0.07579077980495215,0
850,0.26186411415889294,0
851,4.791844771279821,0
852,4.679560166849829,0
853,-3.0921509412639696,0
854,1.5296771409393246,0
855,-0.7811901066643401,0
856,0.2824002770390018,0
857,-0.08926453866404462,0
858,-0.027954284170481396,0
859,-0.11706854742903361,0
860,-0.010016026552131121,0
861,-0.08816999945399664,0
862,-0.027659047999617686,0
863,-0.022815027061924294,0
864,0.16051498324009683,0
865,0.023475442842546893,0
866,0.03327778567694394,0
867,1.0596215394361288,0
868,6.572552436123297,0
869,1.126855187684057,0
870,-1.7894706763289339,0
871,1.1960845913019453,0
872,-0.572464068039236,0
873,0.1990457380816194,0
874,-0.13541252700509088,0
875,0.12434378815181246,0
876,-0.08935745157340248,0
877,-0.0020910977806555455,0
878,0.0027804340904110493,0
879,-0.019425783759667938,0
880,-0.009634093016271442,0
881,0.026368190551280885,0
882,-0.05473627813916525,0
883,-0.062138057797894844,0
884,2.691599189484589,0
885,6.761490393898837,0
886,-2.001321649511798,0
887,0.43049225684479503,0
888,0.08384022762614057,0
889,-0.12975556386467502,0
890,0.05444300927881099,0
891,0.024136595099874494,0
892,-0.0008321874558191236,0
893,0.005125337910367411,0
894,-0.05087687579680143,0
895,0.025447352141251645,0
896,-0.04093932504595621,0
897,-0.05390226446338535,0
898,-0.017334378858925026,0
899,-0.009624574795632456,0
900,0.3061986522789992,0
901,4.781895581208243,0
902,4.590000544051639,0
903,-2.974463340375069,0
904,1.5835159277691302,0
905,-0.7462101882445368,0
906,0.2635981406292593,0
907,-0.06552126427551797,0
908,-0.02296171697982827,0
909,-0.045046128945244276,0
910,0.035320053291324524,0
911,0.012935504251082983,0
912,0.014857357182486722,0
913,-0.14043290182416202,0
914,0.041871864124643304,0
915,0.012204680252475437,0
916,-0.0023310268011599716,0
917,1.1351075727770943,0
918,6.578717633125933,0
919,1.1526178452777236,0
920,-1.6984823541868577,0
921,1.1361809178497726,0
922,-0.5935159825904843,0
923,0.15176464341782991,0
924,-0.1178706277936081,0
925,-0.0028688036270523407,0
926,-0.030166807184662282,0
927,0.03648357537460471,0
928,-0.026372827510079737,0
929,-0.042681447731025425,0
930,0.0122781182000017,0
931,0.07245266608599918,0
932,-0.037031676703207214,0
933,0.021310018645936867,0
934,2.6737642585804084,0
935,6.749694072363851,0
936,-2.128130161918452,0
937,0.4224957810568835,0
938,0.04661483888091266,0
939,-0.03633504006078052,0
940,-0.045419991882702536,0
941,-0.014317951122556166,0
942,-0.039201603300499044,0
943,-0.010624458408938473,0
944,0.005772973850070251,0
945,-0.07984436478883826,0
946,0.02558376140454907,0
947,0.0071045464337066815,0
948,-0.011650107405976651,0
949,-0.05763666023969908,0
950,0.32351837384948523,0
951,4.851611714687136,0
952,4.62017631135498,0
953,-2.98282597767501,0
954,1.5205288749557435,0
955,-0.8799850834433798,0
956,0.2913347791994112,0
957,-0.1165838416876705,0
958,-0.007874698923481645,0
959,-0.030868520565540087,0
960,0.02330509477162225,0
961,0.006786638533347093,0
962,-0.039347055803775635,0
963,0.05544476690808929,0
964,-0.09499110199122383,0
965,-0.025233404284928478,0
966,0.010252362443655797,0
967,1.1279717726247602,0
968,6.600213182686932,0
969,1.0810782922046462,0
970,-1.685972686933429,0
971,1.0698090974858414,0
972,-0.5825342422763133,0
973,0.24693321280823347,0
974,-0.0691889523067132,0
975,0.016433024121175088,0
976,0.0030595733098410724,0
977,0.0009931130226724719,0
978,0.044078647793751036,0
979,-0.06253688422896736,0
980,-0.02684677400126759,0
981,-0.014175457779575778,0
982,-0.05964980707291406,0
983,0.007308528987229508,0
984,2.7181283073903177,0
985,6.772294639172764,0
986,-2.1788587698656623,0
987,0.38202447929815986,0
988,0.028763051334691755,0
989,-0.03226815765876467,0
990,-0.024602884628534896,0
991,0.03159012416644214,0
992,-0.013621793070416143,0
993,0.055440694645642545,0
994,-0.0284331905285782,0
995,-0.11176695636835718,0
996,-0.024617798502141984,0
997,-0.036361370506458546,0
998,-0.10457221447932215,0
999,-0.08680015620515724,0
1000,0.2521288568117014,0
1001,4.763154014719341,0
1002,4.567350527540741,0
1003,-3.138710035417661,0
1004,1.4854166102152393,0
1005,-0.8438170522453495,0
1006,0.2685294266969927,0
1007,-0.13793034219604927,0
1008,-0.049272240272087015,0
1009,-0.10397923179436466,0
1010,-0.06031299279492157,0
1011,0.005622326320696459,0
1012,-0.03882559930017857,0
1013,-0.03589663614809804,0
1014,0.0057725710992666355,0
1015,0.052436022084887075,0
1016,0.0409380706533925,0
1017,1.1536786875839504,0
1018,6.650346717439404,0
1019,1.0464455343586154,0
1020,-1.6064155391613748,0
1021,1.2663042156295852,0
1022,-0.49435417672905574,0
1023,0.27947876457537324,0
1024,-0.03773561088385196,0
1025,0.05648054685436916,0
1026,0.01305182898126896,0
1027,0.11402410544633745,0
1028,0.03137070796901962,0
1029,-0.008562527339595161,0
1030,-0.04775515742328698,0
1031,-0.02299539593114428,0
1032,-0.040233127542590716,0
1033,0.10842003241984363,0
1034,2.7162984316199585,0
1035,6.7730347890683085,0
1036,-2.2393157404473127,0
1037,0.4535032826016296,0
1038,-0.01848862420888577,0
1039,-0.05992448549444514,0
1040,-0.00572326845127839,0
1041,-0.12288903552959057,0
1042,-0.11761385497994087,0
1043,-0.0015105133306518893,0
1044,0.013815185168884869,0
1045,0.00744281570634309,0
1046,-0.019642773463436698,0
1047,-0.006919122089059428,0
1048,-0.036007305492599395,0
1049,-0.12960371435293186,0
1050,0.3628495738201486,0
1051,4.881153160534854,0
1052,4.55969739583648,0
1053,-3.0199241921076867,0
1054,1.5059106556996227,0
1055,-0.7912315701662734,0
1056,0.3035454642025092,0
1057,-0.08350328147975664,0
1058,-0.003203716511538439,0
1059,-0.0017721131961413762,0
1060,0.13782188855789518,0
1061,0.025171149416541694,0
1062,0.07520074104521147,0
1063,0.034707727188559634,0
1064,0.031906475918310126,0
1065,0.13161766955968734,0
1066,0.06083932204295998,0
1067,1.1619270919694173,0
1068,6.629100973343427,0
1069,1.1207528563489335,0
1070,-1.7711376383294972,0
1071,1.189589453919465,0
1072,-0.5705053018837004,0
1073,0.28389049113301945,0
1074,-0.1265248970446884,0
1075,0.09726292157241123,0
1076,0.03723053459028252,0
1077,0.02602230197000251,0
1078,-0.008579000404976174,0
1079,0.10420773108798073,0
1080,0.01905184660935965,0
1081,-0.010998943642931122,0
1082,0.010912899454283618,0
1083,0.15543237389716807,0
1084,2.776232771448332,0
1085,6.697808727563742,0
1086,-2.0897679358394656,0
1087,0.5056080177523901,0
1088,0.03066303154069082,0
1089,-0.12516195720158935,0
1090,0.007674843056673141,0
1091,-0.01892089901549311,0
1092,-0.055661358087073246,0
1093,-0.00878942621148937,0
1094,-0.10270193029164387,0
1095,-0.07523885388960747,0
1096,-0.03633515883213195,0
1097,0.05973325418591125,0
1098,-0.04533219979586489,0
1099,-0.007213095770614608,0
1100,0.3289906223044577,0
1101,4.807102102520916,0
1102,4.534982825791292,0
1103,-2.934699003712364,0
1104,1.5750879000990987,0
1105,-0.7898889425164628,0
1106,0.24068216791396627,0
1107,-0.1484901394627448,0
1108,0.0625309321389999,0
1109,0.033150183232537815,0
1110,0.08283026761818774,0
1111,0.004603024461392484,0
1112,0.06443308740621909,0
1113,0.09398611977896543,0
1114,0.038369045846034754,0
1115,-0.02369175275789034,0
1116,0.03302371255415653,0
1117,1.223057494019192,0
1118,6.666527472786335,0
1119,1.038035819986425,0
1120,-1.6155794906197225,0
1121,1.143816937199962,0
1122,-0.4907592436979299,0
1123,0.16167173397603535,0
1124,-0.0007903909669565168,0
1125,-0.03832277306452879,0
1126,-0.032909304244540825,0
1127,0.04441962739843054,0
1128,0.02029399360807074,0
1129,0.0550477992529836,0
1130,-0.1221156667413485,0
1131,0.05691817314740595,0
1132,0.04634550680399628,0
1133,0.06543621634903682,0
1134,2.791723055462835,0
1135,6.686103644362153,0
1136,-2.1457020246334157,0
1137,0.44989246134793187,0
1138,-0.03776653644047254,0
1139,-0.05551753160631933,0
1140,-0.09097711811889556,0
1141,0.0020639257064865163,0
1142,-0.10048569742151794,0
1143,0.06989623298477002,0
1144,0.031245376730713904,0
1145,-0.06484303832699478,0
1146,-0.031506410897759206,0
1147,0.07582621183909519,0
1148,-0.13038340195462034,0
1149,0.06037777615408889,0
1150,0.2478249161532824,0
1151,4.828688302728016,0
1152,4.513806283214866,0
1153,-2.9472793669241097,0
1154,1.6049073231007038,0
1155,-0.8110753573440728,0
1156,0.2754432834464188,0
1157,-0.18186135085251953,0
1158,-0.1382662074866125,0
1159,-0.05787740266875673,0
1160,0.07485713311118479,0
1161,-0.021560828595686317,0
1162,0.013059474373745989,0
1163,0.0032129558440625984,0
1164,-0.014093445728685946,0
1165,0.06015273330550596,0
1166,-0.039727533564360484,0
1167,1.1497854492267334,0
1168,6.560503420526084,0
1169,1.0386675026954635,0
1170,-1.665024784491164,0
1171,1.1725300518075086,0
1172,-0.5808472925601763,0
1173,0.2538828870049947,0
1174,-0.12312451839612747,0
1175,0.029701483409172245,0
1176,0.09075349006079172,0
1177,-0.002459048579138438,0
1178,-0.010327803935889345,0
1179,0.010442525715796524,0
1180,-0.019154991869741404,0
1181,-0.011370953590389064,0
1182,-0.11403135820823754,0
1183,0.08419134543365403,0
1184,2.6862136884991616,0
1185,6.72318304350339,0
1186,-2.2294500875390373,0
1187,0.37038400659209425,0
1188,-0.11926802972119724,0
1189,-0.08862920605326627,0
1190,-0.09171059715840008,0
1191,-0.07639699809811429,0
1192,-0.14646827245363753,0
1193,-0.0011580680060001639,0
1194,-0.07648148778334474,0
1195,-0.021415192733770336,0
1196,0.054186309485578454,0
1197,-0.10327168873502861,0
1198,0.019064993475226097,0
1199,0.020965131718695604,0
1200,0.36757196234755646,0
1201,4.984088153287124,0
1202,4.543141871351333,0
1203,-2.896494591046248,0
1204,1.652362215291035,0
1205,-0.7142317793275623,0
1206,0.4381967204312953,0
1207,-0.04967803873791594,0
1208,0.10229571167850024,0
1209,0.025560755018414684,0
1210,0.047337696404663884,0
1211,-0.0379631394961876,0
1212,0.04880027912705541,0
1213,0.03395145901223995,0
1214,-0.032464145199717895,0
1215,0.04846397321497714,0
1216,-0.06587879708399975,0
1217,1.12837257392146,0
1218,6.574203527762897,0
1219,0.9843775871339545,0
1220,-1.6811749720337528,0
1221,1.0929633464867559,0
1222,-0.5900967953380059,0
1223,0.2209734849505346,0
1224,-0.17661323318708655,0
1225,-0.01352591747971024,0
1226,-0.08351864209960383,0
1227,-0.024730035242707588,0
1228,0.03493991459390424,0
1229,0.012804490276615572,0
1230,-0.013939621910886008,0
1231,0.012397343602543137,0
1232,0.07786403247168684,0
1233,0.05753498445714027,0
1234,2.6831470992946636,0
1235,6.762950818808089,0
1236,-2.1481712234117967,0
1237,0.38343051283164314,0
1238,0.06080396235987285,0
1239,-0.07841443104059213,0
1240,0.01054699719722493,0
1241,-0.03897688595431622,0
1242,-0.021109258558209994,0
1243,-0.05121216212171071,0
1244,-0.08835530409079353,0
1245,-0.06210889112818569,0
1246,-0.008239666224732635,0
1247,-0.03713589526791347,0
1248,-0.03896683726465453,0
1249,0.13188811114890572,0
1250,0.4134510349203305,0
1251,4.8859045105321695,0
1252,4.449562947882432,0
1253,-3.0358327405074927,0
1254,1.5342208004999511,0
1255,-0.704508549934225,0
1256,0.3819048011246775,0
1257,-0.15009486784788684,0
1258,0.07823289328848772,0
1259,-0.00038694052889555247,0
1260,0.0014315109262946664,0
1261,0.007103024537839035,0
1262,-0.01041563013149353,0
1263,0.004657008504275521,0
1264,-0.11964804131481079,0
1265,-0.039646764404502204,0
1266,0.08452337454630686,0
1267,1.1960907776950678,0
1268,6.604417096345116,0
1269,0.9936279853527694,0
1270,-1.6623992493244908,0
1271,1.0710599388702753,0
1272,-0.5693707978903647,0
1273,0.29104579089322247,0
1274,-0.09437690228230311,0
1275,0.036986795092662124,0
1276,0.023128705786804343,0
1277,-0.029587401646251843,0
1278,0.06267383372763075,0
1279,0.031192829292642263,0
1280,0.02600894975638881,0
1281,-0.013041696744505494,0
1282,0.04600446550881901,0
1283,0.013807716736084823,0
1284,2.8140798140139553,0
1285,6.780418178165282,0
1286,-2.146915066947342,0
1287,0.5188615319930963,0
1288,-0.02073642250536516,0
1289,0.013453313950634246,0
1290,0.03739097225390801,0
1291,-0.01843854830161202,0
1292,-0.029219865709569182,0
1293,0.014259054849722157,0
1294,-0.06095426303263146,0
1295,0.00136985523037704,0
1296,0.028756829647737826,0
1297,0.0489713187024064,0
1298,-0.030442622458107905,0
1299,0.012655232691105531,0
1300,0.337613659804177,0
1301,5.004691643581879,0
1302,4.463106179473624,0
1303,-2.9213942926356697,0
1304,1.6232277313781986,0
1305,-0.8164504636218377,0
1306,0.2888062986666711,0
1307,-0.1802681060423053,0
1308,-0.02359095018529839,0
1309,-0.12803026758823646,0
1310,-0.077057064472641,0
1311,-0.10035377753986185,0
1312,-0.057803816432283335,0
1313,0.0053761528723207455,0
1314,-0.05160624715519176,0
1315,0.06925794869269852,0
1316,-0.03224655463729199,0
1317,1.11037267677642,0
1318,6.6547789597544345,0
1319,1.0190687009711643,0
1320,-1.6205585115222525,0
1321,1.1280668047824816,0
1322,-0.47135618124881457,0
1323,0.3315802200865112,0
1324,-0.17116750475539325,0
1325,0.008400803005742728,0
1326,-0.04244852097168502,0
1327,0.08002344683847791,0
1328,0.009741517372473286,0
1329,0.08447704376455606,0
1330,0.026760901135992055,0
1331,0.06442021305289104,0
1332,-0.0718463155994084,0
1333,-0.0352420448856344,0
1334,2.7885779253468472,0
1335,6.818454907620796,0
1336,-2.164986423659981,0
1337,0.47538268624620256,0
1338,0.052536629176806945,0
1339,0.06325375854243953,0
1340,0.03132348625144346,0
1341,0.07730325365437091,0
1342,-0.08395877405924844,0
1343,0.10806951368705127,0
1344,0.04305436553223951,0
1345,0.08834825186953636,0
1346,0.11950173860370593,0
1347,0.07354135985342124,0
1348,0.013066945471774324,0
1349,0.0674134680148025,0
1350,0.4031287292632516,0
1351,4.947724527860237,0
1352,4.484330804171075,0
1353,-2.9346211123370276,0
1354,1.5687676216070048,0
1355,-0.7583848924626786,0
1356,0.2294276283136873,0
1357,-0.05278152767109378,0
1358,0.10186408826690238,0
1359,-0.09281356795845913,0
1360,-0.05273333764469443,0
1361,0.025486770413725372,0
1362,0.0006625477898839702,0
1363,0.01203861146459682,0
1364,-0.08863020901293245,0
1365,0.006558177216760977,0
1366,0.007965866352867664,0
1367,1.1952900399805801,0
1368,6.7462947048645585,0
1369,0.8649993726437751,0
1370,-1.6143229285711589,0
1371,1.033130890323568,0
1372,-0.47143994594720684,0
1373,0.21048335215029995,0
1374,-0.14042880297892507,0
1375,-0.059179078146662165,0
1376,-0.02174342166907622,0
1377,-0.018989133843347505,0
1378,-0.0847859688384513,0
1379,-0.02943358271224613,0
1380,-0.024827081547002555,0
1381,-0.020003003436157157,0
1382,0.016408786979860864,0
1383,0.09257280955543526,0
1384,2.773420763460132,0
1385,6.68680613228319,0
1386,-2.2114070050869,0
1387,0.5312836032205384,0
1388,-0.059657859413837486,0
1389,0.018226141329382033,0
1390,-0.0008901047363647635,0
1391,0.06585525172011539,0
1392,-0.039773649264044225,0
1393,-0.015261222784917285,0
1394,0.004862048407242154,0
1395,-0.025776082963296552,0
1396,0.030093569942846215,0
1397,-0.07281185619488173,0
1398,-0.022395799755035896,0
1399,0.034652318689677504,0
1400,0.4444027082700801,0
1401,4.859168638649775,0
1402,4.382076139231046,0
1403,-2.939334570059849,0
1404,1.6504388068874412,0
1405,-0.6273069506488588,0
1406,0.2881593990613245,0
1407,-0.04197971444141328,0
1408,0.020928976715668242,0
1409,0.012988415049778487,0
1410,0.00575244152974452,0
1411,0.08190835230957279,0
1412,-0.07949208154601306,0
1413,0.07784864866203985,0
1414,-0.04827870955579877,0
1415,-0.0003814917719521596,0
1416,0.07869671490472929,0
1417,1.2311787431638037,0
1418,6.624341970621011,0
1419,0.8492199588760805,0
1420,-1.6216003790682698,0
1421,1.0410720654657957,0
1422,-0.6706610767706259,0
1423,0.22098459723527006,0
1424,-0.07765621927986505,0
1425,-0.0957607238468048,0
1426,0.061690670731312625,0
1427,0.010171838140463962,0
1428,-0.06122015405272802,0
1429,0.0034576689228493704,0
1430,-0.007687951721345308,0
1431,-0.06649869723738216,0
1432,-0.10442852788732102,0
1433,-0.00636003804489706,0
1434,2.8235432214040936,0
1435,6.676589478051345,0
1436,-2.271950602135651,0
1437,0.5261746439971696,0
1438,-0.09042444485041412,0
1439,0.0254281153231585,0
1440,-0.02600417090605907,0
1441,-0.049448566388635366,0
1442,-0.056049555389556985,0
1443,-0.05164792847679826,0
1444,-0.07737251975029077,0
1445,-0.0992761116197749,0
1446,-0.04477548858193035,0
1447,-0.045398930363265255,0
1448,-0.046626069924936966,0
1449,-0.07802220155424805,0
1450,0.4142360576974737,0
1451,4.980521431191787,0
1452,4.398550529953363,0
1453,-2.9597592462496394,0
1454,1.508615632119766,0
1455,-0.7949106864450723,0
1456,0.2805089436781805,0
1457,-0.11817991797877901,0
1458,0.008078955631716213,0
1459,-0.09801395986390517,0
1460,-0.006835724798797051,0
1461,0.06426238872095036,0
1462,0.04774163619512698,0
1463,0.09029149029551987,0
1464,-0.040553728692671466,0
1465,0.0006630624880150926,0
1466,-0.05789485215138438,0
1467,1.1943681422295411,0
1468,6.632997451224808,0
1469,0.8149708673215381,0
1470,-1.618305035397742,0
1471,0.9810231216957067,0
1472,-0.6127148053017483,0
1473,0.23852440626620453,0
1474,-0.09864985885595065,0
1475,0.0496997799794798,0
1476,-0.038802658529040135,0
1477,-0.041051578176839916,0
1478,0.01784595979202691,0
1479,-0.02114595252417268,0
1480,-0.08776761955119501,0
1481,-0.0477412595415248,0
1482,-0.05573938561068564,0
1483,0.06247379095677048,0
1484,2.8230187919485026,0
1485,6.695896065339889,0
1486,-2.260592747153307,0
1487,0.6018425478624878,0
1488,-0.11464490592469846,0
1489,-0.11047383328614677,0
1490,-0.023093293489516307,0
1491,0.03222546390943675,0
1492,-0.04838837317808482,0
1493,0.01878984660047583,0
1494,0.056567907250497755,0
1495,0.07761362230900441,0
1496,0.008772234762152695,0
1497,0.057808378203470734,0
1498,-0.01385040634874219,0
1499,0.04949658895999168,0
1500,0.40761673242132845,0
1501,5.030988560945145,0
1502,4.424585877083792,0
1503,-2.9439650775856068,0
1504,1.6311443312104037,0
1505,-0.7629065195400939,0
1506,0.3799859793745121,0
1507,-0.0731942771814496,0
1508,0.02166601336948869,0
1509,0.05382410533916552,0
1510,0.019483677860838107,0
1511,-0.02153313542068773,0
1512,-0.03029698132083599,0
1513,-0.06013856652112672,0
1514,0.02927012183834215,0
1515,-0.0260318676806573,0
1516,-0.04192262714060693,0
1517,1.2435783540723742,0
1518,6.62295614568718,0
1519,0.8653904034385365,0
1520,-1.5291248041787708,0
1521,1.1425514795330722,0
1522,-0.3658589946669216,0
1523,0.28803640790104307,0
1524,-0.014561914122591585,0
1525,0.01478343048984361,0
1526,0.025856377991690993,0
1527,-0.003254054769829616,0
1528,0.0614681976037233,0
1529,0.06431600022741843,0
1530,0.008546071033850904,0
1531,0.09186209045719908,0
1532,0.06532131915553628,0
1533,0.11708768243647252,0
1534,2.9841482602084324,0
1535,6.686529296765444,0
1536,-2.1174276657406224,0
1537,0.5684075296512138,0
1538,-0.039539299698371035,0
1539,0.07153386174171174,0
1540,0.01907653940709831,0
1541,0.06489400212340445,0
1542,0.06052336273266882,0
1543,0.06921311124378798,0
1544,0.0834319600851932,0
1545,0.023760529311472378,0
1546,0.10553237472643306,0
1547,0.04411095267967794,0
1548,0.09564630487442541,0
1549,0.014316004462632814,0
1550,0.4233979203911799,0
1551,5.099819990443565,0
1552,4.427230825360202,0
1553,-2.958112583661999,0
1554,1.6864905760766602,0
1555,-0.7296722083157484,0
1556,0.45285444458263474,0
1557,-0.012071933938926277,0
1558,0.037618447373026394,0
1559,0.06085851643952223,0
1560,0.06658339023190864,0
1561,-0.007818852184521607,0
1562,0.1356908108443792,0
1563,0.10771342873378034,0
1564,0.082208616207618,0
1565,-0.0010791451501894894,0
1566,0.14984382055689405,0
1567,1.3756021352765888,0
1568,6.793227073508144,0
1569,0.7361895562586831,0
1570,-1.4251781293947352,0
1571,1.069341962050288,0
1572,-0.3189351329261979,0
1573,0.3151000096232378,0
1574,0.002168554844428249,0
1575,0.09732234337329547,0
1576,-0.015762349265179137,0
1577,0.1361356086168115,0
1578,0.07043019931388655,0
1579,0.11379144260017235,0
1580,0.023522516310594925,0
1581,-0.06237960914361077,0
1582,-0.01885549007744919,0
1583,0.09202256781211039,0
1584,2.8780280676034726,0
1585,6.628795095297779,0
1586,-2.2460306822964164,0
1587,0.550753832503198,0
1588,-0.023700132339848495,0
1589,-0.030042568740742945,0
1590,-0.010064852367614202,0
1591,-0.00046646560502804774,0
1592,0.07867073573921121,0
1593,0.012811834291662792,0
1594,-0.03709428864374366,0
1595,-0.017205111766151054,0
1596,0.10660424336683219,0
1597,0.060828252889569584,0
1598,0.08425393655134389,0
1599,0.03362125767895344,0
1600,0.458960646088001,0
1601,5.102212743087585,0
1602,4.440502668324486,0
1603,-2.949276347474905,0
1604,1.5680137983055844,0
1605,-0.7495880496842874,0
1606,0.3239410711624372,0
1607,-0.11979601984542138,0
1608,0.03641747143105535,0
1609,-0.058927367702077335,0
1610,-0.02004253760635851,0
1611,-0.050061110654244866,0
1612,-0.008452315988715698,0
1613,-0.04049550192098836,0
1614,0.007589895369891746,0
1615,-0.03698932770098853,0
1616,-0.04135844107183345,0
1617,1.23102113621959,0
1618,6.751808665611167,0
1619,0.7451911521557273,0
1620,-1.4867870797717893,0
1621,1.123721264489628,0
1622,-0.48707346050022216,0
1623,0.21166371854398364,0
1624,-0.048773993288230066,0
1625,0.14016159225538835,0
1626,0.004744972724204259,0
1627,0.03635847383680257,0
1628,0.03454879903320236,0
1629,-0.015590332064358801,0
1630,0.05203188994972782,0
1631,0.08997469944661977,0
1632,0.10804866869824298,0
1633,0.06482951717709344,0
1634,3.0112964002468128,0
1635,6.679753709624499,0
1636,-2.2378684569295455,0
1637,0.6546542633934753,0
1638,0.02155856110064491,0
1639,0.03791807721422909,0
1640,0.11053545121052633,0
1641,0.11474356116626616,0
1642,0.11316952139004528,0
1643,0.15812207289743235,0
1644,0.07131379537317149,0
1645,0.08775881786801644,0
1646,0.056705766399487406,0
1647,-0.062158802806060134,0
1648,0.07003925832730033,0
1649,0.022381361293933828,0
1650,0.35262611298859553,0
1651,5.020303223678838,0
1652,4.314852784905336,0
1653,-2.9553461362978206,0
1654,1.5443658064452177,0
1655,-0.8420589548462375,0
1656,0.35350266116434276,0
1657,-0.07262108254697082,0
1658,-0.04550992953792343,0
1659,-0.056087884377903435,0
1660,0.03682837187477615,0
1661,0.07079778098615272,0
1662,0.03143840347692519,0
1663,0.005507339487412666,0
1664,0.029224128313232085,0
1665,0.09640753195985342,0
1666,0.14479491957023738,0
1667,1.3466094301564657,0
1668,6.664421632898985,0
1669,0.7360481556043955,0
1670,-1.4528577755343308,0
1671,1.0799831574427992,0
1672,-0.48111465170684486,0
1673,0.14812483219316738,0
1674,0.0034862815528675234,0
1675,-0.034559682008260026,0
1676,-0.08313823195483883,0
1677,0.06659854956678174,0
1678,0.06835245278500875,0
1679,0.05084381433697283,0
1680,0.04012956397898307,0
1681,0.15847006597513194,0
1682,0.005735508495444075,0
1683,0.11129145113938606,0
1684,3.0193902594070794,0
1685,6.768184761461273,0
1686,-2.255652035820019,0
1687,0.6870633360101916,0
1688,0.04940782967660249,0
1689,0.06989138718393147,0
1690,0.09723479270680786,0
1691,0.09889419420356492,0
1692,0.034311987881261156,0
1693,-0.06448374147912773,0
1694,0.09824533704052386,0
1695,0.08361909530989062,0
1696,0.06386480078616051,0
1697,0.01903397467656868,0
1698,0.053472460445515554,0
1699,0.02476392354795761,0
1700,0.3023693746390781,0
1701,5.041184948199143,0
1702,4.168675573075878,0
1703,-2.851896599281078,0
1704,1.4823754024876394,0
1705,-0.7896827556434969,0
1706,0.40967755767797565,0
1707,-0.08262776508828351,0
1708,0.005657609470849877,0
1709,-0.037553401916276194,0
1710,-0.005344298417235953,0
1711,0.05057343753699689,0
1712,0.04998875894747573,0
1713,-0.014841276154757683,0
1714,-0.008512518626900258,0
1715,-0.043935980582369305,0
1716,-0.07043404081785258,0
1717,1.2903027683768027,0
1718,6.706858179746752,0
1719,0.6957842442279124,0
1720,-1.5454035454911694,0
1721,0.9393757041424904,0
1722,-0.5306613368198456,0
1723,0.13232225176496853,0
1724,-0.1524357115592312,0
1725,-0.060384666022271855,0
1726,-0.032745819409925055,0
1727,0.01376935826854545,0
1728,-0.026086336208190054,0
1729,0.05515084367510428,0
1730,0.09790594401807579,0
1731,0.020510968906384458,0
1732,-0.0058682195526415445,0
1733,0.1667301086034215,0
1734,3.0555571701694713,0
1735,6.687771804387719,0
1736,-2.277979132738582,0
1737,0.641241408947817,0
1738,-0.01272834983509788,0
1739,0.07669660800377778,0
1740,0.01001642504649145,0
1741,0.03542137577579704,0
1742,0.1030378363951132,0
1743,0.026503750623016263,0
1744,-0.023471675629889867,0
1745,0.028081288135436554,0
1746,0.08853801043624242,0
1747,-0.006667355735616368,0
1748,0.0077239666834731345,0
1749,0.011142630548234677,0
1750,0.3762098400492246,0
1751,5.028332034980912,0
1752,4.325441862933471,0
1753,-2.9083280836380725,0
1754,1.5861165826867734,0
1755,-0.6231925068177695,0
1756,0.389791646939433,0
1757,-0.062685386166161,0
1758,0.17722765043342736,0
1759,0.04785802624472109,0
1760,0.07408723628147357,0
1761,0.06944229260637716,0
1762,-0.013263915019952624,0
1763,0.079270939463382,0
1764,0.032351448938364585,0
1765,0.03574868717331979,0
1766,0.09085131966920461,0
1767,1.2975875316838572,0
1768,6.73372143657501,0
1769,0.7358840917595868,0
1770,-1.4593184386978386,0
1771,1.0364061152878568,0
1772,-0.47729531413081,0
1773,0.2805525028457688,0
1774,0.010261011946398765,0
1775,0.0762700033374634,0
1776,-0.05195490245313305,0
1777,-0.017338323630819923,0
1778,0.05488746338123016,0
1779,-0.0022498223875785737,0
1780,0.06418987692248057,0
1781,-0.0022752231420491934,0
1782,-0.033906943612749846,0
1783,0.15592411299636982,0
1784,2.9193338025363595,0
1785,6.6142135857477875,0
1786,-2.2657743634558893,0
1787,0.6221239433860282,0
1788,-0.1571342372499347,0
1789,0.05981777687961379,0
1790,0.02516394166931054,0
1791,0.07963041668550955,0
1792,0.04432309717850526,0
1793,-0.0007438632980174779,0
1794,0.006689237376303026,0
1795,-0.05003315379841719,0
1796,-0.009785555938231601,0
1797,-0.04414118869406193,0
1798,0.04880761905597114,0
1799,0.08062430714248314,0
1800,0.3856379650427321,0
1801,5.171173503540871,0
1802,4.246742282474015,0
1803,-2.9436921987006466,0
1804,1.609376471085977,0
1805,-0.7792963072407612,0
1806,0.4050184044402745,0
1807,-0.1058496424618784,0
1808,0.04602367368531617,0
1809,0.11511970045571601,0
1810,0.04184582460466664,0
1811,-0.013745844337129278,0
1812,-0.0025186054522303818,0
1813,0.0510382637498625,0
1814,0.03104742813408198,0
1815,0.059422432878376466,0
1816,-0.021203495253466334,0
1817,1.3114172347840463,0
1818,6.854180923563144,0
1819,0.780063079933238,0
1820,-1.4338039311543083,0
1821,1.118490599326269,0
1822,-0.44487522970783266,0
1823,0.34011759038187195,0
1824,-0.004936534127147958,0
1825,0.08116541363467716,0
1826,-0.046857304458397746,0
1827,0.038482294542252965,0
1828,-0.0007437942837446553,0
1829,0.02280293774925715,0
1830,0.10159260707469073,0
1831,-0.029708085072127237,0
1832,0.0031145679546586468,0
1833,0.04410177187889433,0
1834,3.0204499119824897,0
1835,6.613505952258397,0
1836,-2.299863551225284,0
1837,0.591630354990534,0
1838,-0.03266224206841241,0
1839,0.0682352349130863,0
1840,0.061776240181017,0
1841,0.11269175613643065,0
1842,0.04949766745272821,0
1843,0.0041713222242257715,0
1844,-0.0048728153056325635,0
1845,0.05809321696419388,0
1846,0.10822914788375919,0
1847,0.027153193210835862,0
1848,0.006282433344695884,0
1849,0.009351330893306387,0
1850,0.36305543893880593,0
1851,5.112439958938214,0
1852,4.300547305911321,0
1853,-2.943437780888778,0
1854,1.6244491931067635,0
1855,-0.7436393817679658,0
1856,0.40666290290341567,0
1857,-0.0659582094017743,0
1858,0.008569154021187957,0
1859,-0.0350868954821684,0
1860,0.07082305852822314,0
1861,0.009831373088484625,0
1862,-0.04065942445456947,0
1863,0.018631613551707973,0
1864,0.10066208775767951,0
1865,0.003031855212100764,0
1866,-0.07576426445156123,0
1867,1.318092411187503,0
1868,6.775666101562767,0
1869,0.634920414638643,0
1870,-1.5168303317637963,0
1871,0.998465020091675,0
1872,-0.4672906542935579,0
1873,0.19734071568742326,0
1874,-0.15188593978200332,0
1875,-0.04465330287438556,0
1876,-0.04961696365179226,0
1877,-0.05971904287638509,0
1878,-0.0465602313112017,0
1879,-0.05822882064366277,0
1880,-0.00836225781843878,0
1881,0.043779489687688786,0
1882,0.02351291282966494,0
1883,-0.04819758337491219,0
1884,2.858100554536973,0
1885,6.6194978153577555,0
1886,-2.391781706363999,0
1887,0.6512509760242746,0
1888,-0.14630242952795663,0
1889,0.008341478654689,0
1890,-0.04475639100588494,0
1891,0.030481531080718667,0
1892,-0.03509058007591692,0
1893,0.04849097041935988,0
1894,0.04806507708581577,0
1895,0.08666051195939176,0
1896,-0.06472831467547875,0
1897,0.03377153204993621,0
1898,0.08013884301688404,0
1899,0.15211486297851612,0
1900,0.43125569372739236,0
1901,5.0562195923737665,0
1902,4.325369081689906,0
1903,-2.948118417960877,0
1904,1.588999535273316,0
1905,-0.7467500833349883,0
1906,0.2573667477332996,0
1907,-0.07907604848817286,0
1908,0.07218736919907,0
1909,0.01684809865759892,0
1910,0.08922239927060656,0
1911,0.026456427401526202,0
1912,-0.04521143045964056,0
1913,0.047682232469951444,0
1914,0.05063951352819289,0
1915,0.024881333147387212,0
1916,0.006507820592743589,0
1917,1.3170633791429138,0
1918,6.799469246620601,0
1919,0.6743397239138196,0
1920,-1.4089644675852073,0
1921,1.0232246784038248,0
1922,-0.5211270757809668,0
1923,0.27479792265325853,0
1924,-0.06425527345479799,0
1925,0.0017732443672100681,0
1926,-0.013009049009268334,0
1927,0.05072455197103291,0
1928,-0.023349015954109847,0
1929,-0.027710947605571717,0
1930,-0.04646044443280051,0
1931,0.040229777242022945,0
1932,-0.07354212069500493,0
1933,-0.00042178282655547933,0
1934,3.0203410013411904,0
1935,6.546520989015555,0
1936,-2.3568881981414633,0
1937,0.6958573373736555,0
1938,-0.07788419651940767,0
1939,0.11537400012184867,0
1940,-0.08221130597854491,0
1941,0.025298738191157404,0
1942,0.0029209642289550336,0
1943,-0.04582667123709035,0
1944,-0.02337203048196624,0
1945,-0.016718734677887048,0
1946,-0.007205450671625521,0
1947,-0.05436539194182115,0
1948,-0.015796542612745823,0
1949,-0.0012428331174876182,0
1950,0.3370518863200804,0
1951,5.147110034665791,0
1952,4.363088650094215,0
1953,-2.8693264295421925,0
1954,1.623420491572074,0
1955,-0.8019659996354573,0
1956,0.35429261471864343,0
1957,-0.08283128631167158,0
1958,0.0005191070173658566,0
1959,0.09474027721189317,0
1960,0.08275016187226658,0
1961,0.08769995555768853,0
1962,0.12484418878490419,0
1963,0.039979100307644025,0
1964,-0.02516707585952744,0
1965,0.036102376890056714,0
1966,0.04125314956822751,0
1967,1.3043569766097873,0
1968,6.737507935562188,0
1969,0.5906257316849454,0
1970,-1.437083301416209,0
1971,1.0546966620551645,0
1972,-0.475021753429942,0
1973,0.25210725376432574,0
1974,-0.09994710585076697,0
1975,-0.05884318225422635,0
1976,-0.03324058673834264,0
1977,-0.028562969531103218,0
1978,0.03362780722151702,0
1979,0.0025205416154065116,0
1980,-0.04734265485303484,0
1981,-0.05034182709576123,0
1982,0.04474423403162052,0
1983,0.09178481283384213,0
1984,3.1346832908560565,0
1985,6.616225010237352,0
1986,-2.4187667325596762,0
1987,0.6672360356627332,0
1988,-0.18632216488297187,0
1989,0.034608842430196705,0
1990,-0.08337928566318778,0
1991,0.03578606707480991,0
1992,0.01747879048267252,0
1993,-0.06672005700606727,0
1994,-0.00503544044854299,0
1995,-0.010677678241858604,0
1996,-0.04776044047775816,0
1997,0.009507811163768701,0
1998,0.06883838053406247,0
1999,-0.07761438700400472,0
2000,0.3687963309924004,0
2001,5.210282110505339,0
2002,4.194734007579056,0
2003,-2.8841416500571024,0
2004,1.5715593785139907,0
2005,-0.8185344776947271,0
2006,0.2937598026783399,0
2007,-0.14545925496532702,0
2008,0.05078534677150971,0
2009,-0.0506651701828342,0
2010,0.010288280892103907,0
2011,0.0404452538427846,0
2012,-0.11175814793189727,0
2013,-0.07057723256916905,0
2014,-0.046787642547321456,0
2015,-0.041044274367051665,0
2016,0.07786780289818211,0
2017,1.3255962789327724,0
2018,6.689060410502886,0
2019,0.6884333142181768,0
2020,-1.4437445973130691,0
2021,0.9757733379972333,0
2022,-0.6033424573314669,0
2023,0.20693070553278434,0
2024,-0.10535084954218828,0
2025,-0.038920665381267296,0
2026,-0.046022675846365525,0
2027,-0.0374431240738511,0
2028,-0.12449748781723964,0
2029,-0.006551925023889179,0
2030,0.024514836073243153,0
2031,-0.08682571046601603,0
2032,0.00884500197962174,0
2033,0.11620270648542497,0
2034,3.0838850124609216,0
2035,6.528897603765016,0
2036,-2.509986971979661,0
2037,0.625058552299798,0
2038,-0.20959142992196741,0
2039,-0.015925612324102487,0
2040,-0.038395703128550854,0
2041,-0.04149555729314846,0
2042,-0.04015192130424889,0
2043,0.042987825745517974,0
2044,-0.008876529521682337,0
2045,0.1037606637802015,0
2046,-0.006240815005461061,0
2047,0.1326051072651675,0
2048,0.0846245913911372,0
2049,0.02320921126836833,0
2050,0.3897596413543253,0
2051,5.116979786711168,0
2052,4.221946856789574,0
2053,-2.9452929916125687,0
2054,1.5957087300219324,0
2055,-0.6886076507662409,0
2056,0.3534247999913257,0
2057,-0.11993722920545946,0
2058,-0.06094709534038234,0
2059,-0.15651424130365937,0
2060,-0.11690051689281988,0
2061,-0.13715060502990617,0
2062,-0.15997251934575915,0
2063,-0.04889250453030543,0
2064,-0.060209848736280006,0
2065,-0.17486895332344513,0
2066,0.007724801960664676,0
2067,1.282142455664285,0
2068,6.627350781924899,0
2069,0.5608628921206207,0
2070,-1.4419012617460196,0
2071,0.9226612925831174,0
2072,-0.48051715999040334,0
2073,0.1401868065265916,0
2074,-0.20489849319812992,0
2075,-0.025228328231951293,0
2076,0.08465472181609311,0
2077,0.06642169352285404,0
2078,-0.11012246073068556,0
2079,-0.02060786980877338,0
2080,-0.04236421338474085,0
2081,-0.05156131933550556,0
2082,-0.0799363585232711,0
2083,-0.004466164788170149,0
2084,3.0093893719325884,0
2085,6.493627200257985,0
2086,-2.2818144335664914,0
2087,0.7248520266432594,0
2088,-0.18527348203189967,0
2089,-0.08784230001665938,0
2090,-0.05621393835243427,0
2091,-0.008724836378152467,0
2092,-0.09380600220183076,0
2093,0.07891879918600009,0
2094,-0.031034111823215697,0
2095,-0.04289642933858319,0
2096,0.008829106466548739,0
2097,0.014362382005517793,0
2098,-0.03490072214578627,0
2099,0.0088463118882804,0
2100,0.38665574745415004,0
2101,5.045104234019622,0
2102,4.157082395879292,0
2103,-2.806740810820905,0
2104,1.456103727468149,0
2105,-0.7924062074200364,0
2106,0.3049127501338833,0
2107,-0.06968809157853759,0
2108,-0.02688828366387458,0
2109,0.00850872277814476,0
2110,0.013216810494130257,0
2111,0.015732784374373157,0
2112,-0.0216752386305283,0
2113,0.02085992785341179,0
2114,-0.04512581635430807,0
2115,0.025932220769930226,0
2116,0.006245050965175407,0
2117,1.2349980633039892,0
2118,6.796782155808149,0
2119,0.4806222931405602,0
2120,-1.4254036733562403,0
2121,0.9427112852803393,0
2122,-0.4853981369463857,0
2123,0.17360201411027898,0
2124,-0.07754657392899346,0
2125,-0.019888437820073095,0
2126,0.018971484331518036,0
2127,-0.032922966163136086,0
2128,0.042892603925007426,0
2129,0.035635456544331985,0
2130,-0.08490599633430379,0
2131,-0.016533420169345604,0
2132,-0.01828115648756854,0
2133,0.11263183126909543,0
2134,3.0183502463751855,0
2135,6.474165675112607,0
2136,-2.4663570078619856,0
2137,0.7127737047189582,0
2138,-0.1571781088768875,0
2139,-0.030132094918149305,0
2140,-0.003958814867125744,0
2141,-0.030027772316921532,0
2142,-0.051878778962173536,0
2143,-0.06971963394137366,0
2144,0.04826353100500594,0
2145,-0.036144683688648586,0
2146,-0.042368453713583054,0
2147,-0.09249255519336455,0
2148,0.027000014294645318,0
2149,0.02794684005035601,0
2150,0.41036809815397923,0
2151,5.143470299188459,0
2152,4.166509925581479,0
2153,-2.928122888140177,0
2154,1.526308535814878,0
2155,-0.8542364942732752,0
2156,0.2232946016987532,0
2157,-0.14488187011403916,0
2158,0.07323585199489038,0
2159,-0.06045548791406104,0
2160,0.009996358036865416,0
2161,-0.0898561042659621,0
2162,0.007922856889804611,0
2163,0.07979911636179886,0
2164,-0.05038204088163389,0
2165,0.04241222256032155,0
2166,-0.01107704641666209,0
2167,1.2584698244674182,0
2168,6.806867907023642,0
2169,0.5047981086027463,0
2170,-1.3877687004056607,0
2171,1.030531849611778,0
2172,-0.47848822381327566,0
2173,0.28878551483226467,0
2174,-0.10555039727589108,0
2175,0.065670590317396,0
2176,0.03461454664072349,0
2177,-0.004445689390732085,0
2178,-0.04873725999912178,0
2179,0.05985430342838919,0
2180,-0.05481986870646138,0
2181,0.004563350639089906,0
2182,-0.03959126935087162,0
2183,0.11938334901449876,0
2184,3.0250363207958806,0
2185,6.574267509286418,0
2186,-2.5210440299787837,0
2187,0.6815472258172623,0
2188,-0.1867851912479777,0
2189,0.08632301710315186,0
2190,-0.04264081022503517,0
2191,-0.026797605938413613,0
2192,-0.07028570037474084,0
2193,0.01099686660432298,0
2194,-0.026804676244284512,0
2195,9.539736068570927e-05,0
2196,-0.019315093813080473,0
2197,0.09378208663570034,0
2198,0.10103546944638288,0
2199,-0.04838431559505789,0
2200,0.39401894765677237,0
2201,5.139980108044937,0
2202,4.085537725537116,0
2203,-2.935037267285329,0
2204,1.6166588538521252,0
2205,-0.7013238757841305,0
2206,0.299882487973748,0
2207,-0.08871337375809124,0
2208,0.008570199103009978,0
2209,0.0029612726621526912,0
2210,0.006009331790169676,0
2211,0.0120184670380135,0
2212,0.001200103137866903,0
2213,-0.02193855322824828,0
2214,0.0286708444542697,0
2215,-0.049606863182513006,0
2216,0.02825221017079839,0
2217,1.3298492522432643,0
2218,6.710133667139241,0
2219,0.46838846748852475,0
2220,-1.343928643549282,0
2221,0.9489995603108655,0
2222,-0.4746375024534132,0
2223,0.24743234889737717,0
2224,-0.05151974284230794,0
2225,-0.02135259466378739,0
2226,-0.02217805557026302,0
2227,0.029270074861474885,0
2228,0.017903456158275072,0
2229,0.07400602367572023,0
2230,-0.0521850709314884,0
2231,0.003610189659876282,0
2232,0.03402992152788317,0
2233,0.08443167169028412,0
2234,3.0758686429739117,0
2235,6.542906504407022,0
2236,-2.410357871238148,0
2237,0.7422601251196493,0
2238,-0.2637217857901933,0
2239,0.020592443142271464,0
2240,-0.0514808201519866,0
2241,-0.02542891336394089,0
2242,-0.06596649465702689,0
2243,-0.04719617212576257,0
2244,0.09953376067951092,0
2245,0.02506179702347864,0
2246,-0.0218255485373512,0
2247,-0.01854273703126851,0
2248,0.09886938610429416,0
2249,-0.03856449956915096,0
2250,0.4004211456441737,0
2251,5.247819368284143,0
2252,4.171429728976805,0
2253,-2.8634853152420625,0
2254,1.598021224898647,0
2255,-0.7654484733656477,0
2256,0.38131229207885453,0
2257,-0.15660923533731153,0
2258,0.011441202372443504,0
2259,0.025200896335596926,0
2260,0.04237996346826317,0
2261,0.1369212832421074,0
2262,-0.023360199059796555,0
2263,-0.0015179055986810804,0
2264,0.034060286365704455,0
2265,0.022106069747546093,0
2266,0.08768166798821844,0
2267,1.2861171913393226,0
2268,6.802946372859026,0
2269,0.43905910900555406,0
2270,-1.4026036025713746,0
2271,1.0144153349467175,0
2272,-0.541707937498356,0
2273,0.20882848506639815,0
2274,-0.055976833926996566,0
2275,0.02747632175073572,0
2276,-0.006225703209431546,0
2277,-0.011324123338991288,0
2278,-0.013451811934147547,0
2279,-0.05462923025481181,0
2280,-0.03917336760499129,0
2281,0.047769583682968915,0
2282,0.07507706129179667,0
2283,0.06170520575347023,0
2284,3.03589390104472,0
2285,6.609295548720668,0
2286,-2.462494836167594,0
2287,0.6835874671652408,0
2288,-0.12632150719088922,0
2289,0.04797041825907758,0
2290,0.08691213927833662,0
2291,0.040593744151863155,0
2292,0.04999902092082405,0
2293,-0.06288532325623211,0
2294,0.02412861530456055,0
2295,0.04919230877913268,0
2296,-0.04839822233865547,0
2297,-0.018669848447417724,0
2298,0.00873649901206034,0
2299,-0.03820454646577951,0
2300,0.35484097721193003,0
2301,5.206520416387042,0
2302,3.9062996604997884,0
2303,-2.962892760009163,0
2304,1.5387188182905527,0
2305,-0.7912995128546634,0
2306,0.2845725830248896,0
2307,-0.16391256513241084,0
2308,-0.015522738659912237,0
2309,0.0072083193440548796,0
2310,-0.03391441022725122,0
2311,-0.009903426548938315,0
2312,0.03651263549156023,0
2313,-0.045266503520122875,0
2314,0.026357629909490317,0
2315,0.024062154503730112,0
2316,0.060664380120526336,0
2317,1.3607468337738262,0
2318,6.7334867338779265,0
2319,0.33706109333005163,0
2320,-1.3804568039029597,0
2321,0.922899952370549,0
2322,-0.4900712769230298,0
2323,0.15874278441952291,0
2324,-0.08985245977252668,0
2325,0.05826209523478461,0
2326,-0.02364418526043393,0
2327,0.010727499002190548,0
2328,0.051167548538029704,0
2329,-0.03892003074835085,0
2330,0.02453436623314806,0
2331,-0.09658548203313193,0
2332,0.04739704641745968,0
2333,-0.06949817572361504,0
2334,3.0384774416342606,0
2335,6.429176491987192,0
2336,-2.533622558665923,0
2337,0.7342370024617545,0
2338,-0.2647212458553845,0
2339,0.026768150955652548,0
2340,-0.10875531625749502,0
2341,-0.002972286345395571,0
2342,0.03490049035003817,0
2343,-0.059066086835595714,0
2344,-0.021562623487530935,0
2345,-0.0353124962391721,0
2346,0.01859008159602922,0
2347,0.019683608968992752,0
2348,-0.04734233891117649,0
2349,-0.028449538413190804,0
2350,0.46671026202137583,0
2351,5.186175217355079,0
2352,3.978043167387512,0
2353,-2.9290196253942113,0
2354,1.5750122716221702,0
2355,-0.7967339866412695,0
2356,0.26655192470715233,0
2357,-0.012916862738602014,0
2358,-0.025357228986185646,0
2359,-0.06436546927882304,0
2360,0.00844536989808611,0
2361,-0.04453721255381099,0
2362,0.005870431621400746,0
2363,-0.09135173537886701,0
2364,-0.03982471014081519,0
2365,-0.0691157125668963,0
2366,-0.0632356105151769,0
2367,1.382858640225624,0
2368,6.773984712668941,0
2369,0.3424853078864511,0
2370,-1.372051685045451,0
2371,0.8897914138364005,0
2372,-0.4673291620542991,0
2373,0.13034203880397052,0
2374,-0.15137757649189018,0
2375,-0.032861295444668766,0
2376,-0.08124597795085825,0
2377,-0.08100026688051504,0
2378,0.11545765755529469,0
2379,-0.010641232745617988,0
2380,-0.06629630681732931,0
2381,-0.013822120748102858,0
2382,-0.07621234284154588,0
2383,-0.018564487116047967,0
2384,3.0174803357434192,0
2385,6.501951803365674,0
2386,-2.548527894474836,0
2387,0.7203716003298635,0
2388,-0.2403680046705578,0
2389,0.03633358529959998,0
2390,-0.09611887800736835,0
2391,-0.013924290837070571,0
2392,0.006599879910523715,0
2393,-0.00048682384815233737,0
2394,-0.04183447080822781,0
2395,-0.041187992122610394,0
2396,-0.028532761903280142,0
2397,-0.06409518537314954,0
2398,0.0753202051744064,0
2399,0.01740948167902915,0
2400,0.3865105276497487,0
2401,5.317385224325487,0
2402,3.9148953038760874,0
2403,-2.8970421301871716,0
2404,1.5100813772542825,0
2405,-0.7796794127023284,0
2406,0.3106120842897282,0
2407,-0.13898493459477454,0
2408,-0.0844159447000163,0
2409,-0.01673107092237025,0
2410,-0.12224345345644942,0
2411,-0.11990529164018268,0
2412,-0.1114498966839115,0
2413,-0.04039622876103695,0
2414,-0.035328471516383575,0
2415,-0.04954232095835437,0
2416,0.010657990262576258,0
2417,1.3694986122786224,0
2418,6.814747215886195,0
2419,0.3275889106877707,0
2420,-1.3946082716786288,0
2421,0.9350265767685713,0
2422,-0.46415962832720264,0
2423,0.17271822660331865,0
2424,-0.14434345580207747,0
2425,-0.06511180474404515,0
2426,-0.06124933120946518,0
2427,-0.0644699250791563,0
2428,-0.0640356683773831,0
2429,-0.09093218517319077,0
2430,0.050168857134932826,0
2431,-0.15601866976820974,0
2432,-0.008373375939914685,0
2433,0.12144739023135871,0
2434,3.072987872849597,0
2435,6.511071605117942,0
2436,-2.5570416393031485,0
2437,0.8310333278223785,0
2438,-0.1905601473926689,0
2439,0.06361656524907394,0
2440,-0.05503303542783801,0
2441,0.07126740244491013,0
2442,-0.030525952044754265,0
2443,0.07588887740127274,0
2444,0.013272236539994153,0
2445,0.015891361273765996,0
2446,-0.03166498697897284,0
2447,0.05403273422278963,0
2448,0.07796737218817693,0
2449,-0.058918366055553006,0
2450,0.3629198879607676,0
2451,5.190896815568039,0
2452,3.9210417674965705,0
2453,-2.838831656938297,0
2454,1.6429615098721713,0
2455,-0.7986278584052088,0
2456,0.30504945394719096,0
2457,-0.17092751826498398,0
2458,0.0318247532480368,0
2459,0.015411916269219113,0
2460,0.010525649911606191,0
2461,-0.08248003009053936,0
2462,0.0041264806231105025,0
2463,-0.039452019874809965,0
2464,-0.029536155242037808,0
2465,0.021537606528568815,0
2466,-0.0039066110618103484,0
2467,1.4370282514188693,0
2468,6.808048854051767,0
2469,0.3726967512323842,0
2470,-1.3073661996208252,0
2471,0.9458358960737456,0
2472,-0.5281624204785584,0
2473,0.2006284974413353,0
2474,-0.08975828456383288,0
2475,-0.006205658080326658,0
2476,-0.0630714492261617,0
2477,0.027296839414828016,0
2478,-0.032550782082954935,0
2479,-0.06806344190588098,0
2480,0.05506593789179767,0
2481,-0.12141813530939885,0
2482,-0.028242450077250146,0
2483,-0.01572867675747599,0
2484,3.035672975282479,0
2485,6.517045900216695,0
2486,-2.5369847086296398,0
2487,0.8258531462557956,0
2488,-0.2032866716971398,0
2489,0.022670454074180196,0
2490,0.06645712953563482,0
2491,0.11009270252336345,0
2492,0.049670589288478104,0
2493,0.003431814218631625,0
2494,0.09788321420383839,0
2495,0.09854328267108062,0
2496,0.09160053135086257,0
2497,0.036431171303135924,0
2498,0.019714798918495497,0
2499,0.09605617400465058,0
2500,0.43529420052751444,0
2501,5.305215448052732,0
2502,4.05176681389878,0
2503,-2.9093694152224936,0
2504,1.6191024438942405,0
2505,-0.7948914304498523,0
2506,0.24021761151326482,0
2507,-0.10016157498144182,0
2508,-0.08006794429245868,0
2509,-0.10951099836780535,0
2510,-0.06986893439459435,0
2511,-0.037392681969589524,0
2512,-0.010902065149807471,0
2513,-0.024977468159733954,0
2514,-0.04496728694232949,0
2515,0.023920142461908787,0
2516,0.0014658842795533256,0
2517,1.3589936613072613,0
2518,6.792882823409127,0
2519,0.2881233084521004,0
2520,-1.2188767726213117,0
2521,0.8648087116570294,0
2522,-0.46451327387979885,0
2523,0.22645277298815225,0
2524,-0.19733043001972278,0
2525,-0.019890640579550194,0
2526,-0.04069100665898859,0
2527,0.013381331237896407,0
2528,-0.026569751884334105,0
2529,0.01182174751447559,0
2530,-0.024599799534038683,0
2531,0.014672869020218821,0
2532,0.0005035866480118216,0
2533,0.07613595906276448,0
2534,3.2544016571134478,0
2535,6.601469025621335,0
2536,-2.575476332949053,0
2537,0.7797179295084565,0
2538,-0.17063048919739407,0
2539,0.14703747377200538,0
2540,0.04422279506783197,0
2541,0.07501621899163236,0
2542,0.04371949688119842,0
2543,-0.05016505158562756,0
2544,0.09667520049817493,0
2545,0.08682009263682305,0
2546,0.1160757413107864,0
2547,0.083623446172214,0
2548,0.08378116977650396,0
2549,-0.06777561647786699,0
2550,0.4165233403518042,0
2551,5.257938848398337,0
2552,3.938065261412836,0
2553,-2.9013685663423665,0
2554,1.660762917888059,0
2555,-0.7278419193138838,0
2556,0.34102799316702376,0
2557,-0.06053910735178721,0
2558,0.052230588560613196,0
2559,0.11474957113027068,0
2560,-0.012122177383145805,0
2561,-0.001695994236860926,0
2562,0.013971069568699986,0
2563,0.08308565601873158,0
2564,0.0023674847762325535,0
2565,0.031728657869257916,0
2566,0.07584197678837504,0
2567,1.4196450466589894,0
2568,6.8151403263346015,0
2569,0.4260145588870083,0
2570,-1.2433943438309103,0
2571,0.8343596161249381,0
2572,-0.5602627261806137,0
2573,0.24295112219207632,0
2574,-0.029324592491492954,0
2575,-0.06143029259830362,0
2576,0.035641751611653116,0
2577,0.02519493769131153,0
2578,0.07934106349209644,0
2579,0.01526399441420364,0
2580,0.09884592648768128,0
2581,0.09316925113710305,0
2582,0.033193546976153177,0
2583,0.09733590395005129,0
2584,3.168010115012665,0
2585,6.514430377280516,0
2586,-2.443935102593743,0
2587,0.8781574947279133,0
2588,-0.17360927908653054,0
2589,0.1041406521075224,0
2590,0.015188795623249367,0
2591,0.05485963973700113,0
2592,-0.09271292909433135,0
2593,0.03649160690810524,0
2594,0.05794765439117809,0
2595,0.015638483511278445,0
2596,-0.014925802522591427,0
2597,0.10841788025289995,0
2598,0.03662396644506684,0
2599,-0.00450758168626576,0
2600,0.4790244784042788,0
2601,5.299547415968311,0
2602,3.9878611637159653,0
2603,-2.769123855255617,0
2604,1.5212437407859252,0
2605,-0.8455026169005482,0
2606,0.4003530789504949,0
2607,-0.06637567789069193,0
2608,0.03176702236645483,0
2609,0.01633178586771345,0
2610,0.0984970183804221,0
2611,0.02376220796683804,0
2612,-0.032676724724978276,0
2613,0.022023930621761268,0
2614,0.05818157673062478,0
2615,-0.017632889951101773,0
2616,0.04235330061124791,0
2617,1.4159705282628108,0
2618,6.8352866497978075,0
2619,0.32431819102066506,0
2620,-1.3291925890462972,0
2621,0.9281549875815561,0
2622,-0.47524133952296,0
2623,0.20189139802030037,0
2624,-0.05891535505922911,0
2625,0.0803009841355722,0
2626,0.04635968974890764,0
2627,0.02459182273320544,0
2628,0.04182367823622447,0
2629,0.01704865491690739,0
2630,0.04427227800939204,0
2631,0.028471894608157113,0
2632,-0.06398421232303872,0
2633,0.10813864741647813,0
2634,3.2122647788908503,0
2635,6.502049661954118,0
2636,-2.524196001940116,0
2637,0.7938194769135839,0
2638,-0.2744064653674976,0
2639,0.12076462280644795,0
2640,0.045802576385288264,0
2641,0.11813114964187753,0
2642,0.04976892103560297,0
2643,0.08130172068740302,0
2644,-0.007457919961319108,0
2645,0.1332451484425089,0
2646,-0.02546947295763504,0
2647,0.07675202975307267,0
2648,0.0322275908241377,0
2649,0.041992656191853765,0
2650,0.586561018496405,0
2651,5.317835743864917,0
2652,4.016782126660399,0
2653,-2.8272034407904267,0
2654,1.547115286965654,0
2655,-0.7622086817025484,0
2656,0.2925235825146392,0
2657,-0.08964881170457864,0
2658,0.08090987511640381,0
2659,-0.07005368560019426,0
2660,0.018450897854495968,0
2661,0.07906445283695773,0
2662,0.024618933566449015,0
2663,0.08694711149736647,0
2664,0.02010688127594714,0
2665,0.04749315696159106,0
2666,-0.007096161728858148,0
2667,1.4581807811437533,0
2668,6.806383260396183,0
2669,0.32313030210209137,0
2670,-1.222909122300527,0
2671,0.8938464309522494,0
2672,-0.46949936200308223,0
2673,0.19094207321241177,0
2674,0.001413079210343407,0
2675,0.10247109196306603,0
2676,0.03484008832460644,0
2677,-0.031599319819514644,0
2678,0.005796473761316328,0
2679,-0.025384500906613004,0
2680,-0.06925926180335859,0
2681,-0.02142507742497718,0
2682,-0.04882955206107356,0
2683,0.07256921542889695,0
2684,3.1764082058566436,0
2685,6.485253363226204,0
2686,-2.5079955593974415,0
2687,0.8161929423781394,0
2688,-0.3004735338483524,0
2689,0.10087654967290297,0
2690,-0.010553088335107479,0
2691,0.021040088045292536,0
2692,-0.0432110447764793,0
2693,-0.02486440704764875,0
2694,0.009394177437076521,0
2695,-0.02480487784903779,0
2696,0.05200549079441875,0
2697,-0.023137478625732087,0
2698,0.002212245966794678,0
2699,0.00034986532648948257,0
2700,0.3856374139387308,0
2701,5.349346371660724,0
2702,3.829273394913277,0
2703,-2.7489333068556525,0
2704,1.5995172343359967,0
2705,-0.8112447597954252,0
2706,0.240908831232836,0
2707,-0.16658933907884946,0
2708,0.058042715328960756,0
2709,-0.03673953230412492,0
2710,-0.003753935123088907,0
2711,-0.03871343410995236,0
2712,-0.07715103817771728,0
2713,-0.159915619663269,0
2714,0.018053297712367265,0
2715,-0.10617916974256338,0
2716,0.04466115154285728,0
2717,1.4109024199812803,0
2718,6.812384737747334,0
2719,0.249529608685045,0
2720,-1.1603792231053245,0
2721,0.9031675731871902,0
2722,-0.4220734297851851,0
2723,0.2756721587196499,0
2724,-0.1272267860163802,0
2725,-0.017661078486574777,0
2726,-0.04727557399228466,0
2727,-0.1480190319285799,0
2728,-0.01725624646912021,0
2729,-0.04302977814219055,0
2730,-0.023952719481190855,0
2731,-0.08500534649082195,0
2732,0.09813677735918631,0
2733,0.11476891942789379,0
2734,3.2838727951661753,0
2735,6.503031195283437,0
2736,-2.51232979702171,0
2737,0.8958434503324145,0
2738,-0.1707028889604441,0
2739,0.049843494407674306,0
2740,-0.07351195339212134,0
2741,-0.03840312521216609,0
2742,-0.09052071895672091,0
2743,-0.03454852254057394,0
2744,0.06277271124780731,0
2745,0.038324207975179644,0
2746,0.025014300409266603,0
2747,0.034398745987025484,0
2748,-0.024765004716927285,0
2749,-0.1063583767557019,0
2750,0.4239825655022929,0
2751,5.398968056990881,0
2752,3.814737091161057,0
2753,-2.9478434695770908,0
2754,1.5978700607212362,0
2755,-0.7711207108973964,0
2756,0.2635923331061546,0
2757,-0.20948912978453946,0
2758,-0.03368020914108255,0
2759,0.02704241298890918,0
2760,-0.019360235830476347,0
2761,0.00545681284759944,0
2762,-0.05730519929669859,0
2763,-0.04598771450866712,0
2764,-0.05741461940801503,0
2765,-0.09291049566954993,0
2766,0.029345101272931294,0
2767,1.3348322052592798,0
2768,6.787029223937741,0
2769,0.19979555562806828,0
2770,-1.25956217816107,0
2771,0.9629105760026142,0
2772,-0.57299648061387,0
2773,0.09920723653363114,0
2774,-0.0022049199042803724,0
2775,0.014972516642991866,0
2776,0.07616946416339791,0
2777,0.02203951308604053,0
2778,-0.04311879324577903,0
2779,0.009941354110095904,0
2780,-0.002719917345503871,0
2781,-0.11155912512951624,0
2782,-0.0012884971239489479,0
2783,0.04899860498211873,0
2784,3.1305737572590138,0
2785,6.362937710750465,0
2786,-2.59300864534562,0
2787,0.8573150261986535,0
2788,-0.24036268097411057,0
2789,0.029053372618711135,0
2790,-0.14954049416571097,0
2791,-0.005296395263061162,0
2792,-0.021251718168313755,0
2793,-0.05656177899700625,0
2794,-0.17706135729285896,0
2795,-0.16494290729534694,0
2796,0.007090541477057271,0
2797,-0.02613056075365839,0
2798,-0.0011336851777542076,0
2799,-0.09481634731132632,0
2800,0.5850898220119758,0
2801,5.394917401012566,0
2802,3.8681983378115627,0
2803,-2.800805024687408,0
2804,1.6266295133644741,0
2805,-0.7848192797200754,0
2806,0.3762154490883606,0
2807,-0.18287720711222819,0
2808,0.017134800891179663,0
2809,-0.04643575928011105,0
2810,0.005493044788605407,0
2811,-0.00444278909808549,0
2812,0.0015936718784488775,0
2813,-0.05559013323322399,0
2814,-0.035220981495574205,0
2815,-0.04562543480785059,0
2816,-0.03208530228913943,0
2817,1.436445207609358,0
2818,6.884588295269045,0
2819,0.2405221401294965,0
2820,-1.2189392702562047,0
2821,0.9320644379776579,0
2822,-0.380506955298816,0
2823,0.15644997658902457,0
2824,-0.02017991538552343,0
2825,0.11102640505799762,0
2826,-0.05358367966106529,0
2827,0.03721219151473977,0
2828,-0.06243700542384636,0
2829,-0.06320605673691534,0
2830,-0.004411340640233925,0
2831,0.032136310515410216,0
2832,-0.045287933867628236,0
2833,0.03912022770469473,0
2834,3.2774095301500994,0
2835,6.34074865367666,0
2836,-2.591279447763848,0
2837,0.7959471256780196,0
2838,-0.2390903163178129,0
2839,0.031045211268125497,0
2840,-0.07783411907531045,0
2841,0.06275749756487602,0
2842,0.03258324543810156,0
2843,0.058607325564663255,0
2844,-0.05594535299415235,0
2845,-0.07432186294346022,0
2846,-0.005889857083495957,0
2847,0.010374379060190586,0
2848,-0.08317604880294985,0
2849,-0.05823871642281898,0
2850,0.4381500548144427,0
2851,5.460016511649934,0
2852,3.8917063864014674,0
2853,-2.936506838215708,0
2854,1.589874490309048,0
2855,-0.8427786366392379,0
2856,0.37943907083424067,0
2857,-0.19496602017049394,0
2858,0.05808234165055797,0
2859,-0.03176374924728869,0
2860,0.0004680436133135818,0
2861,-0.08201042549148999,0
2862,0.020832255644339392,0
2863,0.0019850854107203997,0
2864,-0.08676808790800805,0
2865,-0.011607682649369391,0
2866,-0.07206345082706982,0
2867,1.4754252659819715,0
2868,6.801760464649623,0
2869,0.10197401257848175,0
2870,-1.1593778857700239,0
2871,0.9128483553238866,0
2872,-0.3814009828777738,0
2873,0.2465941512643142,0
2874,0.006199863615117859,0
2875,-0.05842361946104532,0
2876,-0.19701528768430907,0
2877,-0.09334538174444093,0
2878,-0.08640251408622883,0
2879,-0.030946406733057964,0
2880,-0.07989423029920054,0
2881,0.043467776378734835,0
2882,-0.07880145014317752,0
2883,0.04209309000415364,0
2884,3.159375150134331,0
2885,6.341908829736402,0
2886,-2.691784183444742,0
2887,0.7783385917737735,0
2888,-0.1705740257043871,0
2889,0.05953139916706185,0
2890,-0.05907863422908228,0
2891,-0.0674666738450837,0
2892,0.005234114846285758,0
2893,-0.05384108603838842,0
2894,0.009637319039220184,0
2895,-0.04132645290951132,0
2896,-0.022773617438638864,0
2897,-0.02722168479267862,0
2898,-0.052080636935027125,0
2899,0.008864975503378184,0
2900,0.43937817953886854,0
2901,5.386083863757057,0
2902,3.80559946165469,0
2903,-2.9117013159725067,0
2904,1.5702284663910433,0
2905,-0.8093044428052987,0
2906,0.29971085404697245,0
2907,-0.12961910832233708,0
2908,-0.01603097367398203,0
2909,-0.03385843472933301,0
2910,0.004709037527667466,0
2911,-0.006404923604027267,0
2912,0.07017451050699366,0
2913,0.01150331029123615,0
2914,-0.05565484801883295,0
2915,0.006386975630751919,0
2916,0.004115186359415499,0
2917,1.4325134022642545,0
2918,6.8521658298674915,0
2919,0.12820389131198248,0
2920,-1.1827306338332164,0
2921,0.7923905236899695,0
2922,-0.43880116230784283,0
2923,0.13489579730981072,0
2924,-0.08477296740823373,0
2925,-0.06527691623931042,0
2926,0.046841254681602496,0
2927,0.09801324856642837,0
2928,-0.04731177384140779,0
2929,0.021040540203195766,0
2930,-0.04061223264801031,0
2931,0.00042213625179810844,0
2932,-0.10017707240142673,0
2933,0.11595648859536895,0
2934,3.3247688449497312,0
2935,6.4759404666918385,0
2936,-2.6103806891077324,0
2937,0.885169628373269,0
2938,-0.25636220291530876,0
2939,0.06809552116527741,0
2940,-0.061822200202093294,0
2941,0.01419262250104273,0
2942,0.0358043030219517,0
2943,0.12019090720176134,0
2944,-0.10926277494922043,0
2945,-0.013132709131630949,0
2946,-0.04171407824439579,0
2947,-0.04749517717632938,0
2948,-0.05203927805982564,0
2949,-0.09892980954229397,0
2950,0.3448634149067959,0
2951,5.324098432671138,0
2952,3.687386937058841,0
2953,-2.8519415338386067,0
2954,1.5594529638670467,0
2955,-0.8172966611730524,0
2956,0.24651423145696777,0
2957,-0.16347444057518457,0
2958,0.042445084513195314,0
2959,-0.06342920179962641,0
2960,0.02719922179745784,0
2961,0.01879310534709777,0
2962,0.027358954856872383,0
2963,-0.0789916016891463,0
2964,0.026775760588499342,0
2965,-0.08450584058594242,0
2966,-0.02849347430466799,0
2967,1.4494815659591713,0
2968,6.770769575128054,0
2969,0.06839453417346117,0
2970,-1.1763746623905837,0
2971,0.8185204637667356,0
2972,-0.4108506458245464,0
2973,0.2165085458717732,0
2974,-0.07992437163102459,0
2975,0.005143642669679432,0
2976,0.04076848731242173,0
2977,-0.008713776790885835,0
2978,-0.09087528749518217,0
2979,0.06855584862584889,0
2980,-0.021188263477421917,0
2981,-0.1266198935673976,0
2982,0.020461103296575505,0
2983,0.14146069058232852,0
2984,3.181235393150623,0
2985,6.370988067972237,0
2986,-2.601482620434854,0
2987,0.9883066871175762,0
2988,-0.24115382296528182,0
2989,0.07518473556436302,0
2990,0.0004669056711889136,0
2991,0.06423202009341196,0
2992,0.028204779380977995,0
2993,0.010581285068136107,0
2994,0.0013634626686320605,0
2995,0.07382996366676164,0
2996,-0.053617228341721376,0
2997,-0.007123583378075261,0
2998,-0.01208597410244731,0
2999,0.055176707125459586,0
3000,0.4772253306549416,0
3001,5.373572746748476,0
3002,3.646449758249087,0
3003,-2.8777835205499187,0
3004,1.591304132286958,0
3005,-0.8748970960327761,0
3006,0.3957672549658775,0
3007,-0.07392871290884613,0
3008,0.04880436896137333,0
3009,0.04966578861425249,0
3010,-0.08911035005941056,0
3011,-0.02987304417390249,0
3012,-0.038337812954281715,0
3013,-0.0019013657990361796,0
3014,-0.03161362972715018,0
3015,-0.03801366146725659,0
3016,0.08194046318869172,0
3017,1.4810369746914467,0
3018,6.847433187008765,0
3019,0.10856179926849113,0
3020,-1.098373348590617,0
3021,0.8381179826170332,0
3022,-0.5320898241308697,0
3023,0.19210227297178237,0
3024,-0.0707308696445505,0
3025,0.0025466454637757714,0
3026,-0.037736344539394284,0
3027,0.05452024470458135,0
3028,0.03332434999389419,0
3029,0.01868610059665724,0
3030,-0.024531271505838698,0
3031,0.01521781257381084,0
3032,-0.03428650988667631,0
3033,0.040618265611839934,0
3034,3.2924964205057123,0
3035,6.383911638864885,0
3036,-2.593776174848115,0
3037,0.8605917131327477,0
3038,-0.24702874557349633,0
3039,0.038539470870097244,0
3040,-0.0962973145369264,0
3041,-0.074108217297311,0
3042,-0.0077048390785418985,0
3043,0.0030178356919353987,0
3044,0.008916388023341926,0
3045,0.02466933329662097,0
3046,0.02402793503681049,0
3047,-0.021882277357705295,0
3048,0.13978231115615572,0
3049,-0.02452059645277825,0
3050,0.5895779584383666,0
3051,5.415917188741446,0
3052,3.7520327813029817,0
3053,-2.7328654367319114,0
3054,1.5730770356327501,0
3055,-0.7849166878708569,0
3056,0.3726738749315918,0
3057,-0.12404418358170638,0
3058,0.0489239619480062,0
3059,0.01573105807559827,0
3060,-0.0060710157861715176,0
3061,-0.0048500939062467805,0
3062,0.018406675483960383,0
3063,0.031150036198322673,0
3064,-0.08147865363002617,0
3065,-0.04278616815987078,0
3066,-0.006039180761101468,0
3067,1.4370763132481403,0
3068,6.8341781518886275,0
3069,0.05418106173762617,0
3070,-1.245893947439211,0
3071,0.8089761259601326,0
3072,-0.45925155597860773,0
3073,0.13090697676875782,0
3074,0.0017675993007239335,0
3075,-0.04961828570300011,0
3076,0.04542273370947983,0
3077,-0.018636414875567907,0
3078,0.0057566529665755185,0
3079,0.02983026299482046,0
3080,-0.01327702947425836,0
3081,-0.025098705363152184,0
3082,-0.07140630671189788,0
3083,0.146395361408651,0
3084,3.3296888309930313,0
3085,6.3094422741693394,0
3086,-2.652623491182303,0
3087,0.9176578037846128,0
3088,-0.28007942421518545,0
3089,0.14722571354472375,0
3090,0.02007825829058197,0
3091,0.07194250414751543,0
3092,-0.016495410254356208,0
3093,-0.012051053569162768,0
3094,-0.052532931178722854,0
3095,-0.05273104151876809,0
3096,0.021746376904054822,0
3097,-0.12121799208969881,0
3098,0.0737268375565621,0
3099,-0.10130618593163483,0
3100,0.47926982900342086,0
3101,5.429481011548351,0
3102,3.675685905074346,0
3103,-2.7798720510607335,0
3104,1.5543830907692735,0
3105,-0.8028245516011666,0
3106,0.34869293852942734,0
3107,-0.1584204925439546,0
3108,0.12157121060437528,0
3109,-0.0494646459694288,0
3110,0.04395660940825322,0
3111,0.11347530326816997,0
3112,-0.0375899715396503,0
3113,0.09845930302291589,0
3114,0.04402760884629341,0
3115,0.007803794091305912,0
3116,0.03966084386060001,0
3117,1.454790785558264,0
3118,6.879172062041907,0
3119,0.04943328966942045,0
3120,-1.1037074262010644,0
3121,0.7999678743479584,0
3122,-0.48638249790761023,0
3123,0.16360119838536377,0
3124,-0.1301264878627525,0
3125,-0.012254985428804457,0
3126,-0.09716290833255117,0
3127,-0.07837920552925277,0
3128,0.006240325650837354,0
3129,-0.1030379625413208,0
3130,0.01815047804643312,0
3131,-0.10938897059966185,0
3132,-0.12213653713311295,0
3133,0.015860436688760755,0
3134,3.1616327356311245,0
3135,6.40728084155489,0
3136,-2.6762266996269313,0
3137,0.9547163937456202,0
3138,-0.351545019788314,0
3139,0.07735947068193375,0
3140,-0.11932346244589959,0
3141,0.04149355382582911,0
3142,0.05950013804783985,0
3143,0.024584339174762368,0
3144,-0.03885979816181212,0
3145,0.0024962264388870108,0
3146,0.039690418102767216,0
3147,0.049544570410605046,0
3148,0.023675292446654027,0
3149,-0.02484792274687419,0
3150,0.4817714825465195,0
3151,5.515817764338312,0
3152,3.7145890369725953,0
3153,-2.8379380265804857,0
3154,1.6281204894083403,0
3155,-0.7674422312526672,0
3156,0.34455998004100646,0
3157,-0.0684848865403068,0
3158,-0.006760510468445287,0
3159,-0.023696707726953564,0
3160,0.02413274991435067,0
3161,0.05956832722673931,0
3162,-0.025226932125112282,0
3163,0.03018508319417738,0
3164,0.021412746159133706,0
3165,-0.0003242177188669624,0
3166,0.0037338945166428376,0
3167,1.5810392228972912,0
3168,6.828270043375064,0
3169,0.04889229814645121,0
3170,-1.0420677776064382,0
3171,1.016367281957062,0
3172,-0.3931922128353884,0
3173,0.17579715262060475,0
3174,0.007912915915900164,0
3175,0.013811170564561312,0
3176,-0.00841214618475809,0
3177,0.06238004171756914,0
3178,-0.0874561418203212,0
3179,-0.0135893083599069,0
3180,0.0283466818637933,0
3181,0.062034353977189226,0
3182,0.001202789291211254,0
3183,0.06682418472935055,0
3184,3.407607996787344,0
3185,6.392229070494739,0
3186,-2.6922759273246926,0
3187,1.0607135943525745,0
3188,-0.26887403209534166,0
3189,0.2160469427713383,0
3190,-0.03866601941170663,0
3191,0.06077368853011581,0
3192,0.13165081448564697,0
3193,0.07252200723705315,0
3194,0.06578282568217743,0
3195,0.04668776726208315,0
3196,0.07310609212493943,0
3197,0.015188266047739984,0
3198,0.10051111250666978,0
3199,0.03495022384001161,0
3200,0.4285064548818412,0
3201,5.5402902732529,0
3202,3.6309458567667354,0
3203,-2.6863409652954506,0
3204,1.5454497871992938,0
3205,-0.7186381672634112,0
3206,0.37541363240746234,0
3207,-0.08865044734049213,0
3208,0.05145383564867036,0
3209,0.13028096577060616,0
3210,0.03148281137687338,0
3211,0.03367833058178883,0
3212,0.12011600108779714,0
3213,0.05695117439243966,0
3214,0.06328056075246753,0
3215,0.06316752270709601,0
3216,0.04911480111530177,0
3217,1.5253934697527871,0
3218,6.948093962026145,0
3219,0.10482201561917374,0
3220,-1.0195333339593862,0
3221,0.9164486749946587,0
3222,-0.37980917852930335,0
3223,0.1932463441445551,0
3224,0.05597957715892096,0
3225,0.12517644569729705,0
3226,-0.029213441305567772,0
3227,0.028640875177309913,0
3228,0.02409560435934765,0
3229,0.09087256150085625,0
3230,0.05507520312482998,0
3231,0.07391381255765588,0
3232,-0.07142144675587778,0
3233,0.17679995246961178,0
3234,3.351890895822253,0
3235,6.380608960656977,0
3236,-2.6288864719077147,0
3237,1.0190735386467407,0
3238,-0.23583283324310067,0
3239,0.15228776640202485,0
3240,-0.039541100746783554,0
3241,-0.039137249362974504,0
3242,0.0827618286764574,0
3243,0.08880306827654572,0
3244,0.0682993181169109,0
3245,0.055363692885274186,0
3246,0.013952278248295313,0
3247,0.09710889702279579,0
3248,0.07519577159839129,0
3249,0.06491925571968934,0
3250,0.5916053897629919,0
3251,5.542025117485776,0
3252,3.753746152962043,0
3253,-2.7133538396607704,0
3254,1.6420487179741108,0
3255,-0.5796047620335062,0
3256,0.4803412105665369,0
3257,0.026868289230149743,0
3258,0.1027895062564199,0
3259,0.12964016142068224,0
3260,0.15602658314034706,0
3261,0.05685665785256713,0
3262,0.08801670709101535,0
3263,-0.010172316737406012,0
3264,-0.043210755208442794,0
3265,0.05014279073260337,0
3266,0.0693316597662193,0
3267,1.607895116650389,0
3268,6.9105422157194765,0
3269,-0.00575581572409558,0
3270,-0.9570322751748819,0
3271,0.8408967506065819,0
3272,-0.3587399180018292,0
3273,0.25635556029084616,0
3274,-0.020646739593428127,0
3275,0.01576544271643472,0
3276,0.10530769850835914,0
3277,0.04350498379429974,0
3278,0.06752507850470602,0
3279,0.04322748019696319,0
3280,0.08409649228107838,0
3281,0.0774470637607104,0
3282,0.04049420364401163,0
3283,0.12988554291392918,0
3284,3.3650116164949373,0
3285,6.480720660027158,0
3286,-2.6841959343631916,0
3287,1.0500668675055622,0
3288,-0.22682431825086372,0
3289,0.20634303362618256,0
3290,-0.0023657944205811993,0
3291,0.1040695931797345,0
3292,0.0974025168141748,0
3293,0.10398208710922238,0
3294,0.17021041455914926,0
3295,0.17085233479671602,0
3296,0.08939476879574546,0
3297,0.16842973991248184,0
3298,0.11346138183918203,0
3299,0.051942396792417606,0
3300,0.6389253862139725,0
3301,5.665561386429476,0
3302,3.733617457307125,0
3303,-2.633669212489726,0
3304,1.6841815592005756,0
3305,-0.6773021996086092,0
3306,0.4418329276573181,0
3307,-0.08077144573037383,0
3308,0.06627875069775827,0
3309,0.11574146772077873,0
3310,0.06428707727256605,0
3311,0.058278651659155974,0
3312,0.07905052381480204,0
3313,0.0491676460951789,0
3314,0.039718253705500944,0
3315,0.03052715736013728,0
3316,0.05876332202439369,0
3317,1.5498983932239077,0
3318,6.884242944506415,0
3319,-0.03350624431064058,0
3320,-1.0063436828598142,0
3321,0.7774667294003034,0
3322,-0.4372380445732728,0
3323,0.16741175914474118,0
3324,0.03743566115571921,0
3325,-0.1577230739279723,0
3326,0.05580896464114034,0
3327,0.022770943850620833,0
3328,0.013333043089842438,0
3329,0.011075863988508239,0
3330,0.02644141051434475,0
3331,0.03146384857805125,0
3332,0.09857515227108499,0
3333,0.11118641928509955,0
3334,3.411697667195751,0
3335,6.37948847819732,0
3336,-2.60810827686814,0
3337,1.0151391720229375,0
3338,-0.3019743101431654,0
3339,0.2276331479098468,0
3340,0.08026613190402454,0
3341,0.06814530985250841,0
3342,0.07016085708129735,0
3343,0.08683270152592285,0
3344,0.022160599011690603,0
3345,0.18449619445318252,0
3346,0.08082057603860696,0
3347,0.0201839193807139,0
3348,0.02030757291536798,0
3349,0.029229646065300895,0
3350,0.5444645646681846,0
3351,5.551432378276824,0
3352,3.6068717572592934,0
3353,-2.778379994289489,0
3354,1.6300137385728728,0
3355,-0.7747403896839877,0
3356,0.3159118247482239,0
3357,-0.14241570885943128,0
3358,0.1169375433541622,0
3359,0.028427296970115208,0
3360,0.04700156801550072,0
3361,0.07481218577676475,0
3362,0.03074433716998207,0
3363,-0.025742024654268898,0
3364,-0.005781702076730925,0
3365,0.10581726592047089,0
3366,0.03904162843391237,0
3367,1.6461746181708312,0
3368,6.919269746787605,0
3369,0.010037778550715623,0
3370,-0.9726763412297055,0
3371,0.8032501911870302,0
3372,-0.3666982791701813,0
3373,0.2358422435491834,0
3374,-0.1279166233941042,0
3375,0.06833788714512662,0
3376,0.09216850905519873,0
3377,-0.04670885734022921,0
3378,0.08673949828846356,0
3379,-0.04149419662413123,0
3380,0.0813075882313346,0
3381,-0.00444293059820652,0
3382,-0.006470117754568565,0
3383,0.10577826381688067,0
3384,3.4165411808653716,0
3385,6.318823549774913,0
3386,-2.7146993861182516,0
3387,1.0246198408882192,0
3388,-0.41123494156811274,0
3389,0.1276843666873919,0
3390,-0.060429809533725676,0
3391,0.020209292487011806,0
3392,-0.07916530467573171,0
3393,-0.0022961002380820785,0
3394,-0.03805800211431158,0
3395,0.014433894701793041,0
3396,0.07016842510538643,0
3397,-0.01626434715893209,0
3398,-0.05005925109186141,0
3399,-0.029965671987716443,0
3400,0.4766220334318303,0
3401,5.516209980208647,0
3402,3.56192644834891,0
3403,-2.79451176463344,0
3404,1.6147019878840236,0
3405,-0.7613669612534866,0
3406,0.3449610736879815,0
3407,-0.08732529234962506,0
3408,0.013240786873182309,0
3409,-0.01317912396863412,0
3410,-0.05616962774764912,0
3411,0.051807894984663476,0
3412,-0.03546711743072279,0
3413,0.014813981858972777,0
3414,0.05481928474239839,0
3415,0.02624639625373746,0
3416,0.02282891001161487,0
3417,1.4994097963308854,0
3418,6.895956608575767,0
3419,-0.04553977923592209,0
3420,-0.970535110361332,0
3421,0.6227526150781266,0
3422,-0.5258397139233875,0
3423,0.11713224546659841,0
3424,-0.04276609698245323,0
3425,0.013757102337435299,0
3426,0.012434263418976315,0
3427,0.05423680509536282,0
3428,0.012835711359880438,0
3429,0.028077761194702976,0
3430,0.04167677907099301,0
3431,0.011980594791119879,0
3432,0.02014519466216527,0
3433,0.11962332687738911,0
3434,3.466007734747483,0
3435,6.351020013755446,0
3436,-2.6616328144976458,0
3437,0.9788898373478097,0
3438,-0.2137998077844266,0
3439,0.07156972326568646,0
3440,-0.05492418454016017,0
3441,0.06914239217726284,0
3442,-0.059335364433824304,0
3443,0.039394155023632,0
3444,0.07616920055770217,0
3445,0.0060057333027089075,0
3446,0.04717440792381666,0
3447,0.13084111623660205,0
3448,0.08644928847900667,0
3449,0.035195818538688445,0
3450,0.5141713701892006,0
3451,5.548795633615836,0
3452,3.5661424789863485,0
3453,-2.7592723017548395,0
3454,1.5936305437940275,0
3455,-0.7936758930087192,0
3456,0.3190578273259317,0
3457,0.03215658838536331,0
3458,0.04162607220247043,0
3459,0.11127521715870901,0
3460,0.11970159731588834,0
3461,0.05212770211242139,0
3462,0.09732502521543612,0
3463,0.021962352302226554,0
3464,0.012619564191904117,0
3465,0.05618242189366558,0
3466,-0.02911873116251963,0
3467,1.685322671701303,0
3468,6.918731827573387,0
3469,-0.06541089617510623,0
3470,-0.9559273665220495,0
3471,0.9082432486245627,0
3472,-0.443226389433804,0
3473,0.05683650067875029,0
3474,-0.021688731374272033,0
3475,-0.001578052656757624,0
3476,0.05681072007213113,0
3477,0.03184961699446149,0
3478,0.009957276418963608,0
3479,0.03998996353865427,0
3480,-0.005723341850115894,0
3481,0.1452931200180306,0
3482,0.18116901815987857,0
3483,0.148256849864922,0
3484,3.455197705876538,0
3485,6.338578615760638,0
3486,-2.6591040610755785,0
3487,1.050404249340981,0
3488,-0.38257964067797157,0
3489,0.1730005012178707,0
3490,0.018588781683039957,0
3491,0.004060859218907489,0
3492,0.07720332487368407,0
3493,0.16805773386233192,0
3494,0.10682063531092356,0
3495,-0.0020282917451344,0
3496,-0.004372471697312877,0
3497,-0.02992411802937634,0
3498,0.0018192081151259254,0
3499,0.06634238915559587,0
3500,0.5664337375312629,0
3501,5.658579354199059,0
3502,3.5365592917787247,0
3503,-2.7312156423178453,0
3504,1.631795842888819,0
3505,-0.6987301034797532,0
3506,0.45524417789176413,0
3507,-0.10950751605605533,0
3508,0.06487197552359976,0
3509,-0.01611755282159455,0
3510,0.060650329787095884,0
3511,0.1575025200781903,0
3512,0.08891775635413679,0
3513,0.11443563937664768,0
3514,0.0671008558495815,0
3515,0.12082619134091066,0
3516,0.12453070100301095,0
3517,1.6712744159625472,0
3518,7.005631324607934,0
3519,-0.08825689945192107,0
3520,-0.9092096806201722,0
3521,0.8813620042245034,0
3522,-0.4359790471207059,0
3523,0.2522185060038029,0
3524,-0.10994565993997088,0
3525,0.07449696828863614,0
3526,0.027414053190360284,0
3527,0.011302278836367481,0
3528,0.08736460661787672,0
3529,0.06556933340004702,0
3530,0.08471949107023401,0
3531,-0.033562824212223404,0
3532,0.08036625671682489,0
3533,0.13616204387658565,0
3534,3.4769831802020827,0
3535,6.390797503160955,0
3536,-2.626490070428957,0
3537,1.006380841700743,0
3538,-0.3551306796801956,0
3539,0.1966569225411624,0
3540,0.005038764187700769,0
3541,0.00907164816301563,0
3542,0.002947984347772173,0
3543,-0.03817109867552479,0
3544,0.05324107439621942,0
3545,0.08271832450916619,0
3546,0.02524784287931839,0
3547,0.13905565210676077,0
3548,0.10471996879461379,0
3549,0.14588207189188002,0
3550,0.650808727072485,0
3551,5.6295675969647245,0
3552,3.566898610842945,0
3553,-2.653984713847242,0
3554,1.5657238278222048,0
3555,-0.7328188113842014,0
3556,0.3189203720345694,0
3557,-0.0720320881467593,0
3558,0.09510161635215003,0
3559,0.10771262424699557,0
3560,0.13392839544615298,0
3561,0.059524075641157775,0
3562,0.1487452365453634,0
3563,0.13996373729396658,0
3564,0.15813894872818546,0
3565,0.14391319878796663,0
3566,0.041373316101847454,0
3567,1.6928277273748598,0
3568,7.004677072596535,0
3569,-0.16411942361178122,0
3570,-0.8383020399591552,0
3571,0.8552653002407827,0
3572,-0.34879818063743945,0
3573,0.27766884306614753,0
3574,0.11363775639437423,0
3575,0.053485153127630164,0
3576,0.08750076563301445,0
3577,0.0836803656138924,0
3578,0.030887096523687138,0
3579,0.1290213785197725,0
3580,0.052268371376076095,0
3581,0.016678149588266883,0
3582,0.10146243499963466,0
3583,0.1577080224999218,0
3584,3.529736756096165,0
3585,6.302982164984899,0
3586,-2.7053863362042825,0
3587,1.039688066990467,0
3588,-0.42722760328773923,0
3589,0.07981978521041291,0
3590,-0.11125764889917833,0
3591,0.001951914596134324,0
3592,0.06603039598761923,0
3593,-0.003255197264998809,0
3594,-0.007234865666529221,0
3595,0.0871189369415399,0
3596,-0.002395028065246025,0
3597,-0.0013671875099194796,0
3598,-0.09194012014572596,0
3599,-0.05249525960977969,0
3600,0.5377933618289437,0
3601,5.664911278978755,0
3602,3.5164992246362714,0
3603,-2.6446041613607436,0
3604,1.6488733161962112,0
3605,-0.6876672597546877,0
3606,0.40077213387759886,0
3607,0.04493309885966765,0
3608,0.05825975908204889,0
3609,0.09395378394710491,0
3610,0.03184460809437659,0
3611,0.04922759329106601,0
3612,0.05574902744195531,0
3613,0.022910431732673042,0
3614,0.08140492135216323,0
3615,0.030397548243392705,0
3616,0.023721705634794216,0
3617,1.6179671778121123,0
3618,6.947883847149313,0
3619,-0.23849900230219725,0
3620,-0.9109868606236496,0
3621,0.712596433894026,0
3622,-0.4109346454875933,0
3623,0.22416797235653815,0
3624,-0.026709645819121216,0
3625,-0.03651678830890908,0
3626,0.043835966617517944,0
3627,-0.03555905869320112,0
3628,-0.012640999780564897,0
3629,0.05651951604766228,0
3630,-0.044067429967643415,0
3631,-0.05464326878795392,0
3632,-0.02607202546698848,0
3633,0.1693546576113527,0
3634,3.4031956895256728,0
3635,6.17385394941443,0
3636,-2.724096935593559,0
3637,1.0336031888224861,0
3638,-0.35371417317935255,0
3639,0.18997340724341272,0
3640,-0.09195117142640197,0
3641,0.04202252188327507,0
3642,0.036025951855551235,0
3643,0.040373290957133504,0
3644,0.062171930021999285,0
3645,-0.07569305516752821,0
3646,0.07966116426933892,0
3647,-0.011017474363844856,0
3648,0.012216257404157773,0
3649,-0.07404728618041025,0
3650,0.6021943108306862,0
3651,5.661765363501016,0
3652,3.4311044881311066,0
3653,-2.739434839118173,0
3654,1.5458554925970471,0
3655,-0.7705938087089149,0
3656,0.2849174534976986,0
3657,-0.15923224159981295,0
3658,0.07345355819031454,0
3659,-0.021589574910847002,0
3660,-0.03499484529776076,0
3661,0.01804770625421899,0
3662,0.03707234918993768,0
3663,-0.005926923405034042,0
3664,-0.014689861798236156,0
3665,0.10135392802453068,0
3666,-0.028684877093120183,0
3667,1.6048828317344475,0
3668,6.947989810257416,0
3669,-0.14999221524256404,0
3670,-0.9655943348824234,0
3671,0.7582079476810907,0
3672,-0.37641604891920943,0
3673,0.2784321818838871,0
3674,-0.0007681627740779053,0
3675,0.049223535681223535,0
3676,0.0030075680115956016,0
3677,0.10296418070408356,0
3678,-0.08945259593838736,0
3679,0.012600119889356517,0
3680,0.06736834037593835,0
3681,-0.047609188491988405,0
3682,0.010596328708998388,0
3683,0.1084828473335218,0
3684,3.5481518940794206,0
3685,6.305499959233779,0
3686,-2.7939867665461366,0
3687,1.0162516490929419,0
3688,-0.43478484945487905,0
3689,0.045452315541649316,0
3690,-0.12073540904645685,0
3691,0.08879636761903169,0
3692,0.059455888538414194,0
3693,-0.04904948122938681,0
3694,0.027008554425261302,0
3695,0.05324818328308026,0
3696,0.10893386400415951,0
3697,0.0649176816777755,0
3698,-0.036866176455326416,0
3699,0.044049200649405554,0
3700,0.5261164669539814,0
3701,5.526929186043656,0
3702,3.3694900505588627,0
3703,-2.660400173013392,0
3704,1.6254755620686747,0
3705,-0.8002692935709861,0
3706,0.4649038231330827,0
3707,-0.11156726971326118,0
3708,-0.004985783785711656,0
3709,-0.010957928996843353,0
3710,-0.008440137064867386,0
3711,0.06221001355757706,0
3712,-0.009852305983629732,0
3713,0.004744972343917998,0
3714,0.02444058335052214,0
3715,0.06639455057161701,0
3716,0.04687336564010029,0
3717,1.709714094516199,0
3718,6.927244892367323,0
3719,-0.3418454755551258,0
3720,-0.8683215571246992,0
3721,0.8056396743497987,0
3722,-0.5018436684111861,0
3723,0.1901570403543782,0
3724,0.024106173049624445,0
3725,-0.0045686597132498525,0
3726,-0.03133486539699146,0
3727,-0.010661201563135029,0
3728,0.0013429255085448473,0
3729,0.009181213034261615,0
3730,-0.1068328745562624,0
3731,0.02526336604683078,0
3732,0.06064533014326937,0
3733,0.07156843443863031,0
3734,3.4306226367368793,0
3735,6.251029686305666,0
3736,-2.7339931005250464,0
3737,1.1481523928437718,0
3738,-0.3291415674250171,0
3739,0.12361967751732851,0
3740,-0.01820337752853861,0
3741,0.16619427218968658,0
3742,0.09806986858299346,0
3743,0.1014281014479951,0
3744,0.024468568738446037,0
3745,0.05564808511339238,0
3746,-0.010412562234719258,0
3747,0.07339465993111131,0
3748,0.036044333930846724,0
3749,0.07971185868737285,0
3750,0.4911441297415045,0
3751,5.608111441270893,0
3752,3.523254620518057,0
3753,-2.638962139971554,0
3754,1.6200862975608268,0
3755,-0.8487763224471073,0
3756,0.3321449947753067,0
3757,-0.10491065770012684,0
3758,0.029455640181968647,0
3759,-0.08809869174315575,0
3760,-0.1076013060874507,0
3761,-0.0055497990831241475,0
3762,0.04447875060628209,0
3763,-0.011915933899420313,0
3764,-0.05217644422601341,0
3765,-0.007720326525004805,0
3766,-0.02292583538373932,0
3767,1.6131474239542067,0
3768,6.906093092805565,0
3769,-0.32419909634601063,0
3770,-0.9899047955913957,0
3771,0.7066908690501804,0
3772,-0.29639843899804497,0
3773,0.13725021889538244,0
3774,-0.09415554961994137,0
3775,-0.025787002666429804,0
3776,-0.010208077299234258,0
3777,-0.03090979994767452,0
3778,-0.01805311278612564,0
3779,0.10253639494224191,0
3780,0.03829647596356704,0
3781,-0.03651119951162661,0
3782,0.05212714995950799,0
3783,0.0536224422913254,0
3784,3.5395908198053743,0
3785,6.189199539574157,0
3786,-2.7933151541705086,0
3787,0.9838738600786582,0
3788,-0.3715336795472619,0
3789,0.06252762195328562,0
3790,-0.025360588899061058,0
3791,0.03445814707239822,0
3792,-0.050033270795300816,0
3793,-0.06407863382647111,0
3794,0.03188456364149484,0
3795,-0.013530784129210192,0
3796,-0.060472681114947635,0
3797,-0.038045776880183214,0
3798,-0.07645238689847733,0
3799,0.0830913619197014,0
3800,0.5564980629029121,0
3801,5.648427551976954,0
3802,3.348037867244261,0
3803,-2.653791801036289,0
3804,1.4979905137169762,0
3805,-0.8662760030135273,0
3806,0.29194481783051734,0
3807,-0.1285736329105847,0
3808,-0.11534462159050694,0
3809,-0.060157287442055785,0
3810,-0.03170668183752262,0
3811,-0.05758974891329052,0
3812,-0.1037521967298073,0
3813,-0.009188277457003478,0
3814,-0.04694611608698283,0
3815,-0.006830544860678731,0
3816,-0.1533611788860829,0
3817,1.6091156033518865,0
3818,6.934834130387964,0
3819,-0.419541261883931,0
3820,-0.910114393097377,0
3821,0.7047332756445922,0
3822,-0.32684021557732884,0
3823,0.06563162498727279,0
3824,-0.0883528721572295,0
3825,-0.03126027528481008,0
3826,-0.030604378921928434,0
3827,-0.004159385575290296,0
3828,0.1014560971394356,0
3829,0.025127111907646743,0
3830,-0.053895986047716185,0
3831,-0.010724199496515457,0
3832,-0.08722294917055805,0
3833,0.07802162966305146,0
3834,3.4662207294885596,0
3835,6.143340259690404,0
3836,-2.745011983290295,0
3837,1.0170615210819933,0
3838,-0.2845971155609939,0
3839,0.15287302135084435,0
3840,-0.11626564801060621,0
3841,0.028686090362917242,0
3842,-0.038094834001163425,0
3843,0.04840942998540404,0
3844,0.07577534978134151,0
3845,0.021530188215068406,0
3846,0.021886276065494138,0
3847,0.054866007766411,0
3848,-0.009838769978335032,0
3849,-0.08917093351664926,0
3850,0.5209167024272715,0
3851,5.60738967888994,0
3852,3.2335548143240294,0
3853,-2.757610287006118,0
3854,1.4929388481217216,0
3855,-0.8192554526208676,0
3856,0.2860662940706342,0
3857,-0.1857368550592311,0
3858,-0.08643442808965565,0
3859,-0.049892264223922324,0
3860,-0.09339353655882432,0
3861,-0.07917339381792879,0
3862,-0.0372913790215823,0
3863,-0.06554487875635484,0
3864,-0.08124274702823533,0
3865,-0.05799846976353245,0
3866,-0.008002178686223417,0
3867,1.684140175203916,0
3868,6.907706402403263,0
3869,-0.2929210488750906,0
3870,-0.9481745693165788,0
3871,0.7163731490206743,0
3872,-0.3445111330620589,0
3873,0.048836163645944675,0
3874,-0.10716287428749297,0
3875,-0.013255882826556847,0
3876,-0.024964726355222525,0
3877,-0.11248285176159384,0
3878,-0.06954802374413385,0
3879,-0.04598489824911545,0
3880,-0.16787250049799185,0
3881,-0.10151174563220187,0
3882,-0.04461440662279067,0
3883,0.09691809165587052,0
3884,3.5099765267230385,0
3885,6.153223344257623,0
3886,-2.8211921918083736,0
3887,1.0572373728152933,0
3888,-0.5000096326114781,0
3889,0.13235790451543927,0
3890,-0.058177866451171324,0
3891,-0.038305372114155786,0
3892,-0.03572828345141633,0
3893,-0.06031949373131035,0
3894,-0.06243360737026417,0
3895,-0.13224873031669956,0
3896,0.04099833392556948,0
3897,-0.07182059305531309,0
3898,-0.049669924766651,0
3899,0.00923799088712212,0
3900,0.5110837501496703,0
3901,5.59688458242787,0
3902,3.272383780035707,0
3903,-2.784740640938833,0
3904,1.4624148184350747,0
3905,-0.8332665357064395,0
3906,0.34272102093489065,0
3907,-0.20981824443576017,0
3908,-0.05865343638225441,0
3909,-0.1283743344964308,0
3910,-0.05817590001659243,0
3911,-0.03740322265156835,0
3912,-0.06535136744653475,0
3913,0.006405498761428706,0
3914,-0.11139897901444949,0
3915,-0.02421787120807676,0
3916,-0.07339404115839498,0
3917,1.6439383911406105,0
3918,6.848951467935907,0
3919,-0.41347316309385784,0
3920,-0.8226143894187257,0
3921,0.6624747950082633,0
3922,-0.4583320312275945,0
3923,0.19004881363553475,0
3924,-0.12170616103663276,0
3925,-0.029792166012802695,0
3926,-0.054661285030112,0
3927,-0.03543003466205088,0
3928,-0.11491307768767534,0
3929,-0.061963234034536345,0
3930,-0.039867940794656886,0
3931,-0.012800576668990087,0
3932,-0.08622952625522867,0
3933,0.11596529278905993,0
3934,3.480241186266237,0
3935,6.111848613840358,0
3936,-2.7932431431606686,0
3937,1.10960050435041,0
3938,-0.33956829456478255,0
3939,0.08597356885644421,0
3940,-0.014038561659179355,0
3941,-0.05524873273438373,0
3942,-0.08878395708330411,0
3943,0.0539522122224901,0
3944,-0.17516049623956564,0
3945,-0.041840977845253084,0
3946,-0.07218660638745164,0
3947,-0.06890654932782186,0
3948,-0.1315727267028,0
3949,-0.06413301408646474,0
3950,0.5382075336119001,0
3951,5.582338305042521,0
3952,3.1635847002924486,0
3953,-2.7407680155200476,0
3954,1.5603143160975155,0
3955,-0.7982029441904936,0
3956,0.2536677023398358,0
3957,-0.15312770344904844,0
3958,-0.02411630866863573,0
3959,0.03903353527335069,0
3960,-0.025879443484949822,0
3961,0.010619042524121176,0
3962,-0.11740934160859658,0
3963,-0.011508652010538705,0
3964,-0.010907332160461433,0
3965,-0.007424184726541675,0
3966,-0.00017948114958676962,0
3967,1.6910547438108747,0
3968,6.8592186355611675,0
3969,-0.37901790436599986,0
3970,-0.8642657151212357,0
3971,0.6941505000489268,0
3972,-0.44670162274491154,0
3973,0.17012055169716922,0
3974,-0.0560936049332518,0
3975,-0.058237987438166515,0
3976,-0.0035899998685972683,0
3977,-0.05091184044138807,0
3978,0.06164543006259396,0
3979,-0.001857799233569971,0
3980,0.00826395558228436,0
3981,-0.03795014315299296,0
3982,-0.058954369655803154,0
3983,0.08695834945533641,0
3984,3.5107531336768485,0
3985,6.108693574045799,0
3986,-2.8250586625611525,0
3987,1.1387592061427703,0
3988,-0.42091407795712155,0
3989,0.06000707722176597,0
3990,0.05109092866699258,0
3991,-0.00014201372623165454,0
3992,-0.035693829115335744,0
3993,-0.18509606912912496,0
3994,-0.03384472960085179,0
3995,0.07184610153436567,0
3996,0.007461431904252715,0
3997,-0.07270944228565795,0
3998,0.144957875261153,0
3999,0.008882077875129667,0
4000,0.6548898857910745,0
4001,5.596202305160761,0
4002,3.29663095379062,0
4003,-2.6739027520312186,0
4004,1.4488261017142845,0
4005,-0.7435632078235004,0
4006,0.38419194107545906,0
4007,-0.120723410559336,0
4008,0.015317805973919636,0
4009,0.003203266898643517,0
4010,0.00041169915067275006,0
4011,-0.023255034048219048,0
4012,-0.015780269135788318,0
4013,0.028791279859406445,0
4014,-0.0198974461906826,0
4015,0.03761071556136417,0
4016,0.07377101401087353,0
4017,1.6933594606403102,0
4018,7.061936396254543,0
4019,-0.4199386532439852,0
4020,-0.8222863750111177,0
4021,0.741238461351909,0
4022,-0.4290404587435576,0
4023,0.09672968982342756,0
4024,-0.08609060645087915,0
4025,-0.001197776659215971,0
4026,-0.10195738334978,0
4027,-0.07141574328163988,0
4028,0.04584722293572022,0
4029,-0.020013448097673248,0
4030,-0.0590291204658808,0
4031,0.008436988959858874,0
4032,0.04499021676091605,0
4033,0.14962378455363393,0
4034,3.652634936058035,0
4035,6.21156143729441,0
4036,-2.83678819940643,0
4037,1.2099567444194226,0
4038,-0.41497795402103776,0
4039,0.13045992192383613,0
4040,0.07633978185593367,0
4041,0.05320273768969331,0
4042,-0.007945805499669091,0
4043,-0.027102286379404154,0
4044,0.008406440808655161,0
4045,0.045919831783388744,0
4046,0.015698233655739923,0
4047,0.06754527125151738,0
4048,0.01396228408927775,0
4049,-0.04637078107437813,0
4050,0.5453514006740955,0
4051,5.571854759788203,0
4052,3.2585279608153797,0
4053,-2.7532451251094496,0
4054,1.5851876542543473,0
4055,-0.7352917713950059,0
4056,0.47392454774447834,0
4057,-0.08124173158082088,0
4058,0.10624760379802334,0
4059,0.039258527230138375,0
4060,0.0624662733497594,0
4061,0.05492963685080671,0
4062,0.005658726244384536,0
4063,0.02326275579088099,0
4064,0.06984883073375533,0
4065,0.05629510290441324,0
4066,0.07270786846135815,0
4067,1.6766375000863516,0
4068,7.025446529913635,0
4069,-0.2946929939797892,0
4070,-0.8592034382434006,0
4071,0.7614950112502286,0
4072,-0.43941037465529054,0
4073,0.24675452958709776,0
4074,0.0026958352419665706,0
4075,0.1006987259042397,0
4076,0.05939849541035238,0
4077,0.055063155755197324,0
4078,0.07622226719799467,0
4079,0.048015825634645036,0
4080,0.05856946199977349,0
4081,0.035324569493777144,0
4082,0.05045700131264752,0
4083,0.1381139191229044,0
4084,3.5755406980824955,0
4085,6.164152047111182,0
4086,-2.6539087346348915,0
4087,1.0904654438574668,0
4088,-0.3378581061461501,0
4089,0.15989873357646983,0
4090,-0.09359789328518274,0
4091,0.13580217517822848,0
4092,-0.0014564635657861626,0
4093,0.021900257244227096,0
4094,-0.10811350415219206,0
4095,0.0073259318827382305,0
4096,0.07990763316395255,0
4097,0.09179142369320097,0
4098,-0.011692909034169585,0
4099,0.028331629356990275,0
4100,0.6288113023215914,0
4101,5.719634363188,0
4102,3.274614871153237,0
4103,-2.6165668860927522,0
4104,1.5159426178081725,0
4105,-0.7363909709066604,0
4106,0.3581615305054192,0
4107,-0.0017522672813661336,0
4108,0.14166398951904458,0
4109,0.04818076330886151,0
4110,0.07980174364312176,0
4111,0.03492655193414111,0
4112,-0.06157715639672909,0
4113,0.051392004563665106,0
4114,0.00011061637580172395,0
4115,0.05063968029668212,0
4116,0.006769424455393205,0
4117,1.728101952745334,0
4118,7.005906529433364,0
4119,-0.30097600545014774,0
4120,-0.7942500122981621,0
4121,0.6595380471238681,0
4122,-0.2651706379281162,0
4123,0.12297160341677026,0
4124,-0.03725313715061814,0
4125,0.12394998003727012,0
4126,0.08337021686162877,0
4127,0.03546034832043178,0
4128,0.11544370561561933,0
4129,-0.11338771578693736,0
4130,-0.013635390686308937,0
4131,-0.0379090240180793,0
4132,-0.0055773052116053976,0
4133,0.11662574511249785,0
4134,3.7049060657910093,0
4135,6.278171270234975,0
4136,-2.7170881483623965,0
4137,1.1758246964211587,0
4138,-0.37194902677235,0
4139,0.20774696523849379,0
4140,0.051890264906891234,0
4141,0.08490949140745782,0
4142,0.03868054162619428,0
4143,0.05332681512438665,0
4144,0.05084628308794069,0
4145,-0.09948563286721704,0
4146,-0.04117619114008674,0
4147,0.003629958287448022,0
4148,-0.02387322671837821,0
4149,-0.04757136617459894,0
4150,0.5927675113370383,0
4151,5.740948497872806,0
4152,3.2282325554960978,0
4153,-2.539636401731446,0
4154,1.4726780074711772,0
4155,-0.8169294189045097,0
4156,0.32953852961121854,0
4157,-0.0533125775652875,0
4158,0.05341633565219052,0
4159,-0.06800434067073037,0
4160,0.035689529069366135,0
4161,0.042537779116717536,0
4162,-0.031222362738815852,0
4163,0.14429546437335347,0
4164,0.029392073788858542,0
4165,0.0674763471698625,0
4166,0.14423340552388111,0
4167,1.7759751069286207,0
4168,7.029263247721148,0
4169,-0.33770192004177224,0
4170,-0.8594127661668013,0
4171,0.6131002154842805,0
4172,-0.44413845753128606,0
4173,0.16485326753370141,0
4174,0.039331279956098156,0
4175,-0.05275386619711909,0
4176,-0.04865015399434432,0
4177,0.05422677241553913,0
4178,-0.03587376310785097,0
4179,0.01750142007176024,0
4180,-0.053537691530925316,0
4181,-0.0028662072562293727,0
4182,0.053822150102861344,0
4183,0.16817769958884982,0
4184,3.637026726164628,0
4185,6.1913936831029766,0
4186,-2.7721434525486046,0
4187,1.2436154122678333,0
4188,-0.31407380678812014,0
4189,0.18599057910963546,0
4190,0.09110382761486381,0
4191,0.17640447406517692,0
4192,0.09530125367501743,0
4193,0.13975245150403337,0
4194,0.012082843737243235,0
4195,0.08136826360059014,0
4196,0.07798297779656267,0
4197,0.14598746816404434,0
4198,0.09175533300310894,0
4199,0.002124579512444491,0
4200,0.6433792013348346,0
4201,5.754851848207438,0
4202,3.200618712652882,0
4203,-2.675605734000556,0
4204,1.4166046988001941,0
4205,-0.8101964748635455,0
4206,0.3575460228097788,0
4207,-0.06446029455093627,0
4208,0.06969050976435713,0
4209,-0.05892827637917736,0
4210,0.03234983769573092,0
4211,0.006696169084269968,0
4212,-0.023325392733714524,0
4213,0.01919411564662726,0
4214,-0.05691150222017523,0
4215,-0.06782703958496872,0
4216,0.09017050235595496,0
4217,1.7941837156537594,0
4218,6.988970516526473,0
4219,-0.4654214718001161,0
4220,-0.8303754103196186,0
4221,0.7452909143538448,0
4222,-0.4157118220504882,0
4223,0.17646315296167833,0
4224,-0.03985327322164928,0
4225,-0.002101328466502967,0
4226,-0.0387763643964474,0
4227,-0.06343661688126022,0
4228,0.02296044190373476,0
4229,-0.022965979370061326,0
4230,-0.022945273982224467,0
4231,-0.007879709664162229,0
4232,-0.02770318440293283,0
4233,0.1767884556407426,0
4234,3.754206165964096,0
4235,6.1043175774520995,0
4236,-2.7860445449969755,0
4237,1.167155838698139,0
4238,-0.38424569517700574,0
4239,0.06575344526771967,0
4240,-0.015143341354572605,0
4241,0.07154043685555586,0
4242,-0.011005626206952147,0
4243,0.029575825375915774,0
4244,0.03008841616906762,0
4245,-0.07687988207938419,0
4246,0.015056743376176168,0
4247,0.0621630047137317,0
4248,0.02415546020919479,0
4249,0.1197337277034533,0
4250,0.683880504767451,0
4251,5.777634928719035,0
4252,3.20966595540684,0
4253,-2.638799053859603,0
4254,1.5228282040742012,0
4255,-0.6952637555475659,0
4256,0.39311002209523654,0
4257,0.004818241223635278,0
4258,0.114406836994824,0
4259,0.06602531194750347,0
4260,-0.07513795676641143,0
4261,-0.05155383663497877,0
4262,0.012472032039459987,0
4263,0.020952220258665014,0
4264,-0.07573909028654197,0
4265,-0.030733479161694235,0
4266,0.02140613812790626,0
4267,1.7737207274849331,0
4268,6.923163409949416,0
4269,-0.4549768784420273,0
4270,-0.7401532307059118,0
4271,0.7207719677777821,0
4272,-0.3645087690436796,0
4273,0.16822984863284182,0
4274,-0.023940254535156958,0
4275,0.1070743387429469,0
4276,0.1128545662423484,0
4277,0.0446280619768553,0
4278,0.08782025698733875,0
4279,0.025630199925463823,0
4280,0.03329306554014648,0
4281,0.005334006831213545,0
4282,0.01133972306584903,0
4283,0.21335049762288566,0
4284,3.691676168649726,0
4285,6.140412700833591,0
4286,-2.829249481964983,0
4287,1.1506418669780973,0
4288,-0.35724227290809035,0
4289,0.10311175590557034,0
4290,-0.0940999326550285,0
4291,-0.07578653872649682,0
4292,-0.05753800366595591,0
4293,0.04406124308449687,0
4294,-0.005198273802780694,0
4295,-0.007135380410459737,0
4296,0.0009421611011606358,0
4297,-0.0361115200170502,0
4298,-0.060971030999104406,0
4299,0.0467569040646937,0
4300,0.6060226073072487,0
4301,5.84615530037968,0
4302,3.0963782888563327,0
4303,-2.571339431934157,0
4304,1.5450679071468703,0
4305,-0.6785682868560152,0
4306,0.4000257349556354,0
4307,-0.07624503225403496,0
4308,0.02942440918299033,0
4309,0.002544027433820725,0
4310,-0.002654873999827948,0
4311,0.059633244180376216,0
4312,-0.025602286498782687,0
4313,-0.07271941732817544,0
4314,-0.016662813755709147,0
4315,-0.057456104688312595,0
4316,0.026931188483572076,0
4317,1.6731422594255605,0
4318,6.943022989294075,0
4319,-0.35877846496449683,0
4320,-0.7698450694292083,0
4321,0.7684512012599851,0
4322,-0.32085856381971645,0
4323,0.13119363487040211,0
4324,0.08015279305323494,0
4325,0.12395180827215067,0
4326,0.03502002661539471,0
4327,-0.0028577093942461947,0
4328,0.04677107826923842,0
4329,0.02079725916140112,0
4330,0.010000648661519451,0
4331,-0.04988402380880049,0
4332,0.015447993734802025,0
4333,0.09622988677003014,0
4334,3.704420126825181,0
4335,6.1010099059824965,0
4336,-2.900517622890689,0
4337,1.0723495057300587,0
4338,-0.4122379744937766,0
4339,0.10604961903573806,0
4340,-0.017974745265221692,0
4341,0.037393953478713556,0
4342,0.08980086146823181,0
4343,-0.03433892763916831,0
4344,0.021586901440844693,0
4345,0.04533135477218196,0
4346,0.12087952132094351,0
4347,-0.010369239470611025,0
4348,0.07568349427877832,0
4349,-0.051283116428696596,0
4350,0.6963635489271777,0
4351,5.797037685050619,0
4352,3.1862558795254388,0
4353,-2.6271853231312328,0
4354,1.5179342976620134,0
4355,-0.7829885420542014,0
4356,0.32651050355293937,0
4357,-0.035236212454850174,0
4358,0.14262888614356978,0
4359,-0.02254824876604984,0
4360,0.11460475115270154,0
4361,0.01704103079279233,0
4362,0.07933198387114175,0
4363,0.0679953200354751,0
4364,0.04388979181312151,0
4365,-0.026997560814233913,0
4366,0.007623107600735956,0
4367,1.7807075114342998,0
4368,7.033317851954267,0
4369,-0.4624313500862162,0
4370,-0.7130372999312593,0
4371,0.6171160537364861,0
4372,-0.41035607761070775,0
4373,0.2208735987827905,0
4374,-0.0017141283512409657,0
4375,0.030989187891126667,0
4376,0.11028783411161105,0
4377,-0.04495335556807345,0
4378,0.05531840787803767,0
4379,0.07813902500451575,0
4380,0.03833670380458344,0
4381,0.060715187862433226,0
4382,0.038355139291412876,0
4383,0.24550156920108374,0
4384,3.7029966135515417,0
4385,6.049732669144788,0
4386,-2.759097462789063,0
4387,1.2545780005236218,0
4388,-0.37948075998834596,0
4389,0.23358052739647955,0
4390,-0.10392405489156648,0
4391,0.025912677021500588,0
4392,-0.11591817430403134,0
4393,-0.06276624272437432,0
4394,0.0052578678620352655,0
4395,-0.04679376824530007,0
4396,0.003713056122999929,0
4397,-0.0318576365100111,0
4398,0.10451275155532933,0
4399,0.041771499238498766,0
4400,0.5595490978719834,0
4401,5.7677116953983125,0
4402,3.040079216894408,0
4403,-2.65933480049318,0
4404,1.4941237265477363,0
4405,-0.7142065548562119,0
4406,0.33461326230303,0
4407,-0.1372543593662166,0
4408,-0.0184700217625089,0
4409,-0.07460038812729712,0
4410,-0.03869182871228963,0
4411,-0.03475048267870171,0
4412,-0.07107105065295333,0
4413,0.12308541300662929,0
4414,-0.05454257852424478,0
4415,0.06589160298979102,0
4416,0.023359610731972173,0
4417,1.7248376407457258,0
4418,6.999300852018306,0
4419,-0.5795040284700798,0
4420,-0.6946030445973325,0
4421,0.5401859076943517,0
4422,-0.3432943303552333,0
4423,0.20972452949077364,0
4424,-0.10628499242353233,0
4425,-0.08373352664021197,0
4426,-0.013525650480470336,0
4427,-0.07303399357736426,0
4428,-0.022872925970279744,0
4429,-0.016456427148483638,0
4430,-0.0293644483628765,0
4431,-0.04845184608373156,0
4432,-0.02817159569294031,0
4433,0.10167701319867653,0
4434,3.6803666680156732,0
4435,6.0283622430024,0
4436,-2.901425030452899,0
4437,1.0929378847665079,0
4438,-0.4847546496128603,0
4439,0.16934953429610325,0
4440,-0.10569838745352213,0
4441,0.03738961761175552,0
4442,-0.10132890068896287,0
4443,-0.05377182995573233,0
4444,0.023364884962912294,0
4445,-0.15371010163450033,0
4446,-0.13775126752451566,0
4447,-0.10535141143461349,0
4448,0.03794969178789591,0
4449,-0.06537994613930664,0
4450,0.6339431754174254,0
4451,5.732526152071392,0
4452,3.0893375858272547,0
4453,-2.5380371265892214,0
4454,1.4535827926582905,0
4455,-0.7736735293119871,0
4456,0.32136962489118404,0
4457,-0.07794885814092992,0
