timestamp,value-0,is_anomaly
0,0.17825175894974496,0
1,4.428694594125039,0
2,4.973160526994229,0
3,-3.0171042510054447,0
4,1.4333693537053471,0
5,-0.8521756352635419,0
6,0.21144175417534564,0
7,-0.20656553346192005,0
8,-0.0738541622972295,0
9,-0.13659338023705558,0
10,-0.08543523519502563,0
11,-0.11286612262677599,0
12,-0.11827253522922133,0
13,-0.011286911500763767,0
14,-0.06291995851260096,0
15,-0.04310014604739569,0
16,-0.03591494899483742,0
17,0.9229478795103081,0
18,6.409108380874203,0
19,1.4917595408118423,0
20,-2.002757348681821,0
21,1.0991900558843788,0
22,-0.7687091387891397,0
23,0.19000937888774996,0
24,-0.14591734299676978,0
25,-0.04786765065659061,0
26,-0.018400447755162336,0
27,-0.2309869709204958,0
28,-0.17686854699876797,0
29,-0.12343732703181462,0
30,-0.10975909018448207,0
31,-0.08753327538736583,0
32,0.014507612066187225,0
33,-0.009544694264536052,0
34,2.385070768857314,0
35,6.810883267297108,0
36,-1.9680124080823094,0
37,0.11693343513201356,0
38,-0.01186528705717238,0
39,-0.22428131495499185,0
40,-0.07208185828772977,0
41,-0.1521783305440445,0
42,-0.047781970502527304,0
43,-0.05461074076969626,0
44,-0.05609323059066898,0
45,-0.0808598759217513,0
46,-0.09194998223854721,0
47,-0.004740339332945029,0
48,0.00559844826109121,0
49,-0.08769605823855356,0
50,0.2340172583828935,0
51,4.415823785604372,0
52,4.990410838646379,0
53,-3.107632908586145,0
54,1.5022981671771647,0
55,-0.8048687135349413,0
56,0.24428912806207875,0
57,-0.2871979426631517,0
58,-0.053646312331342955,0
59,-0.06202593632449575,0
60,-0.055670146218219335,0
61,-0.09757841390387682,0
62,-0.05269153554891838,0
63,-0.1729662128693501,0
64,-0.10042426459120918,0
65,0.03106957754257858,0
66,-0.03021085110458007,0
67,0.8211452242289203,0
68,6.413033037998507,0
69,1.4598136781729472,0
70,-2.0934035323268234,0
71,1.1259490911064631,0
72,-0.7671068517973371,0
73,0.2522322023875105,0
74,-0.09577287935086343,0
75,-0.0485399376834597,0
76,-0.15116164725528608,0
77,-0.08233526694668003,0
78,-0.10444866082831283,0
79,-0.02521296598186419,0
80,-0.062398054214619615,0
81,-0.10224807853534418,0
82,-0.09736555075670429,0
83,0.012342091444719566,0
84,2.445111819332734,0
85,6.895438486752118,0
86,-1.8786052420235466,0
87,0.1418948478086764,0
88,0.03739854014846548,0
89,-0.22954142948100117,0
90,0.07074999694134151,0
91,-0.0879831986535295,0
92,0.00615430558949584,0
93,-0.04659548271714685,0
94,-0.007203634857835213,0
95,-0.10854905316812026,0
96,-0.08784539319450804,0
97,-0.03324119445628566,0
98,-0.00276680746944772,0
99,0.014941637623419983,0
100,0.20307763480105787,0
101,4.627908303179192,0
102,4.8951430806129,0
103,-3.05266421115179,0
104,1.4980847941288524,0
105,-0.744856783453108,0
106,0.24945718902017577,0
107,-0.17421790104790014,0
108,0.0935701755269649,0
109,-0.007807547111843345,0
110,-0.045111159418817194,0
111,-0.01703433358524612,0
112,0.08643185108503776,0
113,0.006645048112429323,0
114,-0.0401128761747984,0
115,0.04174159776971053,0
116,-0.047392653595364424,0
117,1.0073410459493692,0
118,6.409169929435623,0
119,1.5055638543112575,0
120,-1.9567668123410178,0
121,1.2029024416966296,0
122,-0.751818327143959,0
123,0.33818651735965394,0
124,-0.07813713794992498,0
125,0.02087106042293054,0
126,0.05422578967724355,0
127,0.0485321549465999,0
128,0.06466139732296351,0
129,0.1022000743297457,0
130,0.0492743775189442,0
131,0.05117443686267285,0
132,-0.019282167529027547,0
133,0.026787178766224887,0
134,2.4990711927201383,0
135,6.887140118079278,0
136,-1.891108477371865,0
137,0.14116785235657212,0
138,0.06300705059964397,0
139,-0.17323007332850998,0
140,-0.06296010861509337,0
141,-0.0853539007969799,0
142,0.0031995164711611374,0
143,-0.03342528332431937,0
144,-0.06756730297307013,0
145,0.057266402510106965,0
146,-0.09871391474445355,0
147,0.0058056591872813965,0
148,-0.06933745669448547,0
149,0.022442804774058404,0
150,0.26995835770345855,0
151,4.62610282232528,0
152,5.060810950550507,0
153,-3.1114670345063864,0
154,1.5772729227996631,0
155,-0.5764813797201287,0
156,0.3045040455128571,0
157,-0.14197980731721363,0
158,0.06131503761871174,0
159,0.0414233805471535,0
160,0.02534793009517868,0
161,0.028164960210633708,0
162,0.04222789428194883,0
163,0.0247491147643007,0
164,0.06558518054801732,0
165,-0.017185317115662603,0
166,0.029319649207821836,0
167,1.0058650199919965,0
168,6.528711904105877,0
169,1.604311779167135,0
170,-1.9961549071792204,0
171,1.2067517300484636,0
172,-0.633751642429434,0
173,0.3108790814566378,0
174,-0.13861646467662986,0
175,0.04342847260643998,0
176,-0.009970779537523275,0
177,0.0003666038522527615,0
178,-0.0013344676749868015,0
179,0.09397568985920948,0
180,0.02844707993457121,0
181,0.06414475108413462,0
182,-0.02712765311729429,0
183,0.03205090421097302,0
184,2.5619832599743595,0
185,6.866667247287302,0
186,-1.7877608900198887,0
187,0.2339539433521062,0
188,0.14030878776476396,0
189,-0.05712268908921394,0
190,-0.004954224261082538,0
191,0.042381209266095704,0
192,0.01149518703811408,0
193,-0.027192252600266302,0
194,0.053806814276922216,0
195,0.0067569734511591616,0
196,0.08549636378735177,0
197,-0.0006104924325548884,0
198,-0.05298869631528766,0
199,-0.006806981658421944,0
200,0.28800562086786435,0
201,4.6466913180588,0
202,4.916384570800695,0
203,-3.055335361904832,0
204,1.6006794413913497,0
205,-0.7100786644452756,0
206,0.29002682790819073,0
207,-0.02758541674438256,0
208,0.1325119593703952,0
209,0.041726663802897926,0
210,0.03406353993306205,0
211,0.016724333415309295,0
212,0.10183060956784701,0
213,0.044582155042043006,0
214,-0.008125725608416526,0
215,0.04991818479845535,0
216,-0.07892274089423118,0
217,1.0370334866564979,0
218,6.530548702477219,0
219,1.541890657344967,0
220,-1.9087478122935717,0
221,1.215505924241268,0
222,-0.6351113797398331,0
223,0.21643111072408333,0
224,-0.17732227323723648,0
225,-0.0038367698597210446,0
226,-0.01647029847142971,0
227,-0.10095088829299254,0
228,0.012591986124534733,0
229,0.04491556964086702,0
230,0.002617955736426404,0
231,0.07798668204351886,0
232,0.023360634952625525,0
233,0.06699761301748994,0
234,2.529752595172285,0
235,6.919542783997073,0
236,-1.8649813379478082,0
237,0.24817266810116775,0
238,0.1312614136034931,0
239,-0.12624185466539967,0
240,0.003825897907018344,0
241,0.11245569684588087,0
242,-0.011321968076269028,0
243,-0.02564850694276488,0
244,-1.8230753787007795e-05,0
245,0.03732572724439546,0
246,0.0329475533847197,0
247,-0.052340638406391624,0
248,-0.004403624864757502,0
249,-0.0026168941303075163,0
250,0.2619469879505663,0
251,4.660938517611009,0
252,4.929142735672635,0
253,-2.933202238694837,0
254,1.4892806741771234,0
255,-0.8478993042261146,0
256,0.2724641097860893,0
257,-0.11375973031389915,0
258,0.06753930976286676,0
259,-0.05657075183975156,0
260,0.02344304426358576,0
261,-0.04396367350437668,0
262,0.0010927012368494235,0
263,-0.09571470668184287,0
264,-0.07939289674036666,0
265,-0.05179997481029312,0
266,0.011660407409597149,0
267,0.9921987230589179,0
268,6.530891897951906,0
269,1.5331313072769162,0
270,-1.939662540644093,0
271,1.2249274076297376,0
272,-0.5576084201986203,0
273,0.2890804821722839,0
274,-0.0966515745113423,0
275,0.08059078674526025,0
276,0.020962924980222824,0
277,-0.0049100999193220415,0
278,-0.04543360026360845,0
279,-0.008968605246927329,0
280,-0.01741599616769617,0
281,0.02276027443142687,0
282,0.04143350412651573,0
283,0.014039916214457666,0
284,2.6095346999486617,0
285,6.85620460858279,0
286,-1.8815141530091664,0
287,0.21625221800299152,0
288,0.07179759370110605,0
289,-0.03150680623345713,0
290,0.09016987322220485,0
291,-0.05268724859401215,0
292,-0.02370773849084504,0
293,0.05327802423770001,0
294,0.007145352456969712,0
295,-0.021664366442341144,0
296,-0.07598993954172312,0
297,-0.009435008844666956,0
298,0.036385654094309036,0
299,0.07849296404262271,0
300,0.41381342282842953,0
301,4.672980506174315,0
302,4.905151793394586,0
303,-2.9960074400687193,0
304,1.538949827280694,0
305,-0.6865041837112493,0
306,0.26387051824044455,0
307,-0.15719254346401904,0
308,0.027329084067291506,0
309,0.040036067189872945,0
310,-0.05665500461953653,0
311,0.03668481464402999,0
312,0.025884097062786084,0
313,-0.09864859839234746,0
314,0.0277838494813824,0
315,-0.007425440105687013,0
316,0.030869864375001235,0
317,1.1298632650417684,0
318,6.56750832616095,0
319,1.4391763751630693,0
320,-1.7654558520699188,0
321,1.2776480596794577,0
322,-0.640527637472881,0
323,0.22033240654917824,0
324,0.01050392100413318,0
325,-0.026516140062405824,0
326,0.0041954572553047804,0
327,-0.06338853350777245,0
328,0.010177511684713925,0
329,0.00208007733702531,0
330,-0.035033810344925434,0
331,-0.10907469600914052,0
332,-0.0766037839477009,0
333,-0.04345546608339968,0
334,2.622905056772617,0
335,6.837796516235391,0
336,-1.873542817882315,0
337,0.19897003545740405,0
338,0.09439721064356228,0
339,-0.13226177345800078,0
340,-0.020849375014886994,0
341,-0.04082507992024784,0
342,-0.02409637981060268,0
343,-0.10085756951698477,0
344,-0.0514390965645163,0
345,0.05361499109648847,0
346,0.09327173711004487,0
347,0.04099844965024234,0
348,-0.025482054072575117,0
349,0.024924444229683183,0
350,0.2856275382280201,0
351,4.706034374284931,0
352,4.91293187491193,0
353,-3.0541970837331816,0
354,1.597305237212003,0
355,-0.6905071263334789,0
356,0.2267275996020634,0
357,-0.11477561211959147,0
358,0.024580425021723917,0
359,-0.025023839553287547,0
360,0.08342389767143521,0
361,-0.028399104331622505,0
362,0.03678874401649734,0
363,0.04735784182718904,0
364,0.03678639885543102,0
365,-0.012981373273389354,0
366,-0.023438546868745594,0
367,0.9909886370396344,0
368,6.461838490948411,0
369,1.4303164069232517,0
370,-1.9027605064721367,0
371,1.1838092641327036,0
372,-0.5686584063637469,0
373,0.2427655207776168,0
374,-0.04978952959056672,0
375,-0.0246268855942239,0
376,0.016562568740066747,0
377,0.013980075849582604,0
378,0.04810655870150286,0
379,-0.02047979789932476,0
380,-0.054166196443358613,0
381,-0.008625514007741086,0
382,-0.008921748380954303,0
383,-0.052550486581586425,0
384,2.4705538654112127,0
385,6.813687818333359,0
386,-2.0934584041512876,0
387,0.20053047636563912,0
388,0.172837643608497,0
389,-0.06373579724541036,0
390,-0.09580907063578833,0
391,0.0009921948782783338,0
392,-0.019127064853609165,0
393,-0.04104003347865048,0
394,-0.040506644328582836,0
395,-0.0904441742720207,0
396,0.012115435266303879,0
397,-0.01911238945771193,0
398,-0.04696908806075396,0
399,-0.0032294015528512854,0
400,0.28810671312922387,0
401,4.592342823341602,0
402,4.917626608064963,0
403,-3.062251167925797,0
404,1.4940967485396333,0
405,-0.7942738032808492,0
406,0.2324410568133091,0
407,-0.0578977640013342,0
408,-0.08885218609330496,0
409,-0.05793143492346248,0
410,0.028079944537599426,0
411,0.03464877168147373,0
412,-0.07597782128824725,0
413,0.02503018358296348,0
414,0.08987736236713474,0
415,0.10095183448750707,0
416,-0.0680366339406133,0
417,0.9898209035967921,0
418,6.520767002054916,0
419,1.2832730654637,0
420,-1.8083130789573831,0
421,1.2043544868908262,0
422,-0.5743520532469477,0
423,0.2786816271153613,0
424,-0.11349959796984771,0
425,0.06167747371253601,0
426,0.01652550624611196,0
427,0.13016291972673963,0
428,0.0861205970133559,0
429,0.006724995289070366,0
430,0.08858970734867438,0
431,-0.0032253818224871195,0
432,0.043006979155765616,0
433,0.10861897676789609,0
434,2.604104202388434,0
435,6.841586130729319,0
436,-1.9144903859325753,0
437,0.30360968838705243,0
438,0.025114883115594594,0
439,-0.07024087206554856,0
440,0.004829006559828146,0
441,-0.014274142786680079,0
442,-0.11569978584934493,0
443,-0.024176419352239346,0
444,-0.039882514646188215,0
445,-0.014658857646023867,0
446,-0.006141068096295655,0
447,0.03660657427068642,0
448,-0.0813478767469018,0
449,-0.06461871426381482,0
450,0.27587997705207795,0
451,4.792621975163988,0
452,4.783184620786734,0
453,-2.996556302519996,0
454,1.5081037460269244,0
455,-0.7702930070452815,0
456,0.32181884387520593,0
457,-0.05430593578442107,0
458,-0.09049630655071578,0
459,-0.011812365900549009,0
460,-0.06089312827674664,0
461,-0.0006633330638370905,0
462,-0.03983798820836955,0
463,-0.0059167507844421,0
464,0.013085727843000564,0
465,0.020963956642192284,0
466,-0.07722532894742751,0
467,1.0055409386054965,0
468,6.514079778170616,0
469,1.358600044860607,0
470,-1.885089710974618,0
471,1.1865970348466857,0
472,-0.7569812602889678,0
473,0.1588842105967609,0
474,-0.06344251412545257,0
475,-0.08707180675594639,0
476,-0.002584882898681626,0
477,-0.058758055042530885,0
478,-0.003695265260355458,0
479,0.08485375564469981,0
480,-0.01694524482451221,0
481,-0.06383470977881163,0
482,-0.023992185924582826,0
483,0.023909555712737694,0
484,2.6125662231402886,0
485,6.741861772360369,0
486,-1.8962969067303796,0
487,0.29448987355202333,0
488,0.033683328094658765,0
489,-0.10383046666117567,0
490,-0.07139097959085945,0
491,-0.005219409983571163,0
492,-0.02236388343484936,0
493,-0.03043730338146373,0
494,-0.08333590300070723,0
495,-0.0838779635097181,0
496,-0.011970796974245211,0
497,-0.08287748416469035,0
498,-0.048919825741869,0
499,0.036528872201114254,0
500,0.25137770319436076,0
501,4.657946273751246,0
502,4.8115748228261195,0
503,-3.0677932137442028,0
504,1.4614609286512534,0
505,-0.8033191725086146,0
506,0.31419326634321654,0
507,-0.10072629352109592,0
508,-0.007978945553331986,0
509,-0.01620500791404163,0
510,-0.058397566190741934,0
511,0.0491945588837166,0
512,-0.031152532512191036,0
513,0.054172070779106504,0
514,0.06986923839256713,0
515,0.06156297917161674,0
516,0.04029554654843244,0
517,1.0275302472958667,0
518,6.491482798636993,0
519,1.2983931783527312,0
520,-1.9356660504167746,0
521,1.1715119570417036,0
522,-0.5735725657324958,0
523,0.140150931177259,0
524,-0.16866899141156352,0
525,0.009460733962538659,0
526,0.03677405941280166,0
527,-0.023843132094268207,0
528,-0.07515273963699423,0
529,-0.027473908272232242,0
530,-0.027245024544688214,0
531,-0.02770399911690942,0
532,0.01669539538623794,0
533,0.036470557884076334,0
534,2.5258720997547797,0
535,6.7817990071230865,0
536,-1.9278092874224313,0
537,0.28246118354356325,0
538,0.029201833780761535,0
539,-0.0168551859895599,0
540,0.05872066132930538,0
541,0.03962074962948449,0
542,-0.07905244455377378,0
543,-0.0617350050295324,0
544,-0.04829491369412957,0
545,0.06664948044921458,0
546,-0.09179739118313401,0
547,-0.07713671469704148,0
548,-0.12304763674744093,0
549,-0.11821712884338778,0
550,0.22689137855607716,0
551,4.713022860343879,0
552,4.69143258032797,0
553,-3.012107540374357,0
554,1.5554957295419498,0
555,-0.8777648585928206,0
556,0.26479259864100474,0
557,-0.27783038728399034,0
558,0.013029764083398353,0
559,-0.059087389505740696,0
560,-0.010108101024462107,0
561,-0.06213202456247717,0
562,-0.11757589271956252,0
563,0.04269610277269496,0
564,-0.04702496124775699,0
565,0.005153034381772174,0
566,-0.04013534123750377,0
567,1.0376522417824319,0
568,6.594652114990017,0
569,1.2938814455193566,0
570,-1.7655470601838616,0
571,1.1345539549302572,0
572,-0.5958166524412849,0
573,0.3237689838427629,0
574,-0.02068553833741487,0
575,0.08034344504056232,0
576,-0.029677508572043456,0
577,0.09896106025279611,0
578,0.10479058945815803,0
579,-0.003177222833097633,0
580,-0.0328822802922694,0
581,0.0895965753935443,0
582,0.04590118133010272,0
583,0.059627438611968966,0
584,2.6844578715848453,0
585,6.784635437513775,0
586,-1.9391216970005751,0
587,0.2745939648640666,0
588,0.04852903717180705,0
589,-0.0960865275442916,0
590,0.009010135957038876,0
591,-0.04246145836818021,0
592,0.024498751927074718,0
593,-0.038226959797531254,0
594,0.09012989970251062,0
595,-0.08799532742221972,0
596,-0.034408145827212966,0
597,0.05124812949518946,0
598,0.062425405570264346,0
599,-0.04208846070936964,0
600,0.3440866986514162,0
601,4.713497849622579,0
602,4.698466089234657,0
603,-2.9998250481085895,0
604,1.577332717250703,0
605,-0.7682697938542098,0
606,0.2665696937761693,0
607,-0.09193954511628394,0
608,-0.04407489914111598,0
609,-0.10583461914694366,0
610,-0.07823251912632607,0
611,-0.003855157169908068,0
612,-0.03890866949894713,0
613,-0.026299588448896634,0
614,-0.016489214669188082,0
615,-0.11198634190417331,0
616,-0.018569607435594642,0
617,1.1323862699355414,0
618,6.476000059696507,0
619,1.3015841342979482,0
620,-1.784535868560332,0
621,1.129285651192024,0
622,-0.5409078163437828,0
623,0.23530823695671446,0
624,-0.18028687172982777,0
625,0.008952793679229284,0
626,-0.025165532386785466,0
627,-0.031687142677557435,0
628,0.02497237505308309,0
629,-0.007404236248996894,0
630,-0.16147142385520827,0
631,0.03964391950042064,0
632,-0.0429360634488684,0
633,0.07165950901242041,0
634,2.621529758278504,0
635,6.725933274130357,0
636,-1.9853145170894289,0
637,0.35612734342145147,0
638,0.10379354911435262,0
639,0.011870860052501937,0
640,0.020441369685859398,0
641,0.017021121918156377,0
642,-0.003067713413805035,0
643,-0.005929802983294551,0
644,0.022590258038939368,0
645,-0.08809780115833989,0
646,-0.054366553439724484,0
647,0.04665945394645815,0
648,0.010316538332654985,0
649,-0.05712863341494783,0
650,0.31461269378144846,0
651,4.740099806791011,0
652,4.768150903787656,0
653,-2.9532894643880736,0
654,1.6964741538821784,0
655,-0.6680704895667552,0
656,0.39825963107184,0
657,0.06840264504184998,0
658,0.07675705430069193,0
659,0.0019295668967114418,0
660,0.001526128591061382,0
661,0.1198822342829392,0
662,0.002215026615359328,0
663,0.10633959884551845,0
664,-0.012716530193223757,0
665,-0.04538727266148794,0
666,-0.03339826317661911,0
667,1.1113411203099974,0
668,6.469570726211434,0
669,1.1552716981147897,0
670,-1.6889699010749881,0
671,1.176122485401506,0
672,-0.6309313812853631,0
673,0.294184267046657,0
674,-0.20624064236381967,0
675,-0.04985666121022504,0
676,-0.0032624287742514346,0
677,-0.003976422625506459,0
678,0.001551961468060744,0
679,0.0859874237620154,0
680,0.10801335685768547,0
681,-0.038855451936202906,0
682,0.09071484838862484,0
683,0.18266202591315156,0
684,2.6996303148882235,0
685,6.81481319789489,0
686,-1.935661963039963,0
687,0.3927475464439959,0
688,0.06905582788524428,0
689,-0.020087235990581653,0
690,0.006431021746041654,0
691,0.06329691285394681,0
692,0.011891729749553874,0
693,-0.07279478894072594,0
694,0.012644834179221867,0
695,0.04266851973698893,0
696,0.09848466260327202,0
697,0.02104702873418848,0
698,0.06814666517138246,0
699,0.049313940669752206,0
700,0.4639758734093747,0
701,4.738611501495487,0
702,4.745965812537441,0
703,-3.014905593943053,0
704,1.6405917908597487,0
705,-0.7619565775383396,0
706,0.36005445811310344,0
707,-0.08951763561754227,0
708,0.09061969106324325,0
709,0.010019826912558198,0
710,-0.00936985827264072,0
711,0.07462823763080167,0
712,-0.01830387155853084,0
713,0.10960915892860879,0
714,0.010593906129617265,0
715,0.10803726161208933,0
716,0.06074318206582029,0
717,1.1320085437422795,0
718,6.639025984912213,0
719,1.2302698733697368,0
720,-1.776734509989545,0
721,1.2525170574823052,0
722,-0.5249577657708875,0
723,0.27983524349286504,0
724,0.056312002372970855,0
725,0.11639844536624623,0
726,0.10182883756683181,0
727,0.060264564756283334,0
728,0.04875209115872147,0
729,-0.003487763120638379,0
730,-0.05961839525753781,0
731,-0.032832690294127415,0
732,0.011866533950413607,0
733,0.15677147736737668,0
734,2.7103092469360774,0
735,6.861439589420639,0
736,-1.9742346390941132,0
737,0.4661300917782716,0
738,0.13533836912856084,0
739,-0.05062119828830267,0
740,0.16222512598129282,0
741,0.10721802727621027,0
742,0.08107392935884736,0
743,0.10434977210988322,0
744,0.07785881007310147,0
745,0.08102301523762133,0
746,0.07552367154868982,0
747,0.07945997255701209,0
748,0.017893489621331395,0
749,0.02263873091296869,0
750,0.3635855472125065,0
751,4.863752710977676,0
752,4.738245484097061,0
753,-2.942298152423834,0
754,1.627430533178934,0
755,-0.7101778505160695,0
756,0.3870316086014267,0
757,-0.03189764598018092,0
758,0.12513752016065774,0
759,0.02384946668469551,0
760,0.008621744783889246,0
761,0.10846308191482909,0
762,0.015662736874779454,0
763,-0.011655220622615259,0
764,0.06543720828262116,0
765,0.13549087675009733,0
766,0.07157166671580248,0
767,1.1535463649029847,0
768,6.678248533428924,0
769,1.3601202782739714,0
770,-1.7318358511314438,0
771,1.3144041982032288,0
772,-0.5173593897404658,0
773,0.3453436483108521,0
774,-0.12117767856780334,0
775,0.09758945270790886,0
776,0.08987971449507262,0
777,0.06842939597085301,0
778,0.005576909142833743,0
779,0.08169203180505138,0
780,-0.020845968353792516,0
781,-0.04972462412724816,0
782,0.09199783133719669,0
783,0.1104074659420643,0
784,2.77646487297264,0
785,6.773727435598603,0
786,-1.9959456636617918,0
787,0.4746496383100043,0
788,0.09738832699603014,0
789,0.016832684100495435,0
790,0.14969427782981254,0
791,0.061595308663654674,0
792,0.08476118963980275,0
793,0.07989898731352903,0
794,0.02401776065216254,0
795,0.03632992185981745,0
796,0.04497926235446918,0
797,-0.06330180754085922,0
798,0.010179478596330026,0
799,0.12065019667060867,0
800,0.32072737555240544,0
801,4.967647121317114,0
802,4.67456226278768,0
803,-3.0734587174228998,0
804,1.5607998979702973,0
805,-0.7053254109247139,0
806,0.2762109415717806,0
807,-0.12415720113577142,0
808,0.0904627967864263,0
809,-0.03507815431348027,0
810,0.11013428543686477,0
811,0.04489039453886726,0
812,-0.01247058076328695,0
813,-0.06034721405674994,0
814,0.031770133215376264,0
815,-0.0312857323440771,0
816,-0.08995454993038847,0
817,1.0294895632686352,0
818,6.624934787390689,0
819,1.0964480419199285,0
820,-1.6921016463298175,0
821,1.2742962248845902,0
822,-0.48165701451978177,0
823,0.27560290327163595,0
824,-0.012944552967362372,0
825,0.19500630014499434,0
826,0.043923305618333915,0
827,0.1084792709603967,0
828,0.1360613296349338,0
829,0.03184757318756727,0
830,0.004232757906187656,0
831,-0.0377447375649638,0
832,0.11465611428151432,0
833,0.1476078297337063,0
834,2.6534736497151123,0
835,6.869029616064881,0
836,-2.0315863798519245,0
837,0.41029434807149257,0
838,-0.0022900322538023862,0
839,-0.013782157023260244,0
840,0.021829274334806113,0
841,0.011040268865282735,0
842,0.03903014377422564,0
843,0.0038640532357440867,0
844,-0.058405408902717205,0
845,0.07675858770244087,0
846,0.04486297042570797,0
847,0.014030680989261517,0
848,0.0367984573003649,0
849,0.06391513909348415,0
850,0.3707981864204203,0
851,4.975018791117847,0
852,4.692017337988005,0
853,-2.8718155371680814,0
854,1.6546723009407631,0
855,-0.5927553969643662,0
856,0.39454034588980763,0
857,-0.06742344271836026,0
858,0.004615253378208839,0
859,-0.01795806857379699,0
860,-0.06835826758296026,0
861,-0.017926589258889167,0
862,-0.024882411738489662,0
863,0.011071149088948335,0
864,0.12007017441984093,0
865,-0.03992909750111384,0
866,-0.05694751437394613,0
867,1.1519548812928482,0
868,6.618262680478675,0
869,1.1681531816281108,0
870,-1.641970937451574,0
871,1.227215736103369,0
872,-0.48302691863400093,0
873,0.2668410726175028,0
874,-0.05358459351787615,0
875,0.07177842296201103,0
876,0.03631637992163898,0
877,0.03402452706745738,0
878,-0.0031785689959901303,0
879,0.08223721634615226,0
880,0.005868831736793801,0
881,0.03614762625631891,0
882,0.01144648834634412,0
883,0.12847300231265224,0
884,2.7011060526665407,0
885,6.887122337022817,0
886,-2.1019829171320294,0
887,0.4288004743956538,0
888,0.09973386654077962,0
889,0.06546100708410943,0
890,0.12705654318900333,0
891,0.012341836944350447,0
892,-0.012787649900113045,0
893,-0.020682789944266956,0
894,0.09053343574407768,0
895,0.056987163978247726,0
896,0.006265193649925865,0
897,0.029927448296829542,0
898,-0.005850146229471977,0
899,0.03847372932127329,0
900,0.3555673120225388,0
901,4.864233480984575,0
902,4.713608229086079,0
903,-2.9293196076595525,0
904,1.5613248053145616,0
905,-0.6621235154017817,0
906,0.39021682536120117,0
907,-0.06751028181881402,0
908,0.12690911496631924,0
909,0.0023268901549656183,0
910,0.012532604368226924,0
911,0.0553339039861849,0
912,-0.014753225138103596,0
913,-0.03782600547732638,0
914,-0.01643129451523811,0
915,0.10931385794250417,0
916,0.035548788176852794,0
917,1.1374332436769636,0
918,6.638209141068716,0
919,1.1150762078828953,0
920,-1.614088066977132,0
921,1.1224436584678628,0
922,-0.6560944187915034,0
923,0.24143346533316923,0
924,-0.0784058334866492,0
925,-0.05989189076739857,0
926,-0.04042999812594174,0
927,0.035779889012693016,0
928,-0.07832459603157932,0
929,0.003650135502920839,0
930,0.012899497306263934,0
931,0.041456829481800656,0
932,0.01917030009047173,0
933,0.07571433560559522,0
934,2.7636796480258643,0
935,6.771884340417353,0
936,-2.118665784493416,0
937,0.42598338996830504,0
938,-0.0014482339912150269,0
939,0.03288575896011112,0
940,-0.004070252727689457,0
941,0.012723619811430054,0
942,-0.057952250616186446,0
943,0.011678870932770527,0
944,-0.0023313760436694097,0
945,-0.0021686619375869617,0
946,-0.03293100489560039,0
947,-0.10347595551554767,0
948,-0.04819643874957339,0
949,0.05513171042260995,0
950,0.2371111111491085,0
951,4.722567818852465,0
952,4.590703984637674,0
953,-3.070126079202784,0
954,1.6366851608228514,0
955,-0.6864318106447891,0
956,0.3192530047163473,0
957,-0.1451817403782858,0
958,0.02955590916001359,0
959,-0.08308533110312422,0
960,0.011969849686511335,0
961,0.07660073684069385,0
962,-0.1086534531564617,0
963,0.011771516740651364,0
964,0.07962586066968581,0
965,-0.05909061877311409,0
966,0.08112506594509084,0
967,1.1769381252448596,0
968,6.665198110923898,0
969,1.092563694727388,0
970,-1.7251307055476957,0
971,1.1811581885483975,0
972,-0.6255572890460904,0
973,0.21410924261354858,0
974,-0.07163211278835536,0
975,0.044311776484607254,0
976,0.01060846933599178,0
977,-0.06258974342750008,0
978,0.009904107027850455,0
979,0.0843591716032222,0
980,-0.031494442796113846,0
981,-0.07220352952178799,0
982,0.01381921975671617,0
983,0.0981411580028968,0
984,2.718439636937988,0
985,6.767217038271782,0
986,-2.100162514680294,0
987,0.39612070389370785,0
988,-0.047050794133253034,0
989,-0.1194433971853938,0
990,-0.02481525950208263,0
991,0.04606837421399827,0
992,-0.026143994121747633,0
993,-0.03662537661357851,0
994,-0.13433757850210148,0
995,-0.0019131450802263375,0
996,-0.03569282233526476,0
997,0.03734135931857617,0
998,-0.08825038447335325,0
999,-0.022072079687145387,0
1000,0.3775572954248673,0
1001,4.722713983291035,0
1002,4.508483198139442,0
1003,-3.087536215305492,0
1004,1.607932206234646,0
1005,-0.6938137110566358,0
1006,0.3951815912710926,0
1007,0.04668957994796849,0
1008,0.08170830100721146,0
1009,0.058355575873379785,0
1010,0.03250570745838103,0
1011,0.11470997616363748,0
1012,0.0074759675742187195,0
1013,0.05848079188734103,0
1014,0.029818762741722703,0
1015,-0.022564573444710707,0
1016,-0.05252035971028084,0
1017,1.1240079944007044,0
1018,6.541443406504042,0
1019,1.0066472964064734,0
1020,-1.6387494510806244,0
1021,1.0951506958976567,0
1022,-0.4938442727891533,0
1023,0.18700502692095144,0
1024,-0.17346071239202504,0
1025,-0.07730357422537379,0
1026,0.031174056374952384,0
1027,-0.03075085280748734,0
1028,-0.03665297659751317,0
1029,-0.04236874648899837,0
1030,0.11540324743478803,0
1031,-0.025240098348374825,0
1032,-0.10790684087003313,0
1033,0.0022973711864249357,0
1034,2.6955606106544066,0
1035,6.7602969758910465,0
1036,-2.1504761070361886,0
1037,0.49488936008330053,0
1038,-0.0011065566048044928,0
1039,-0.1381899133571131,0
1040,-0.13622399650584438,0
1041,-0.0009091468272818537,0
1042,-0.04254372661173253,0
1043,-0.03393529839632042,0
1044,-0.09424613330362858,0
1045,-0.05239014749944432,0
1046,-0.05778221336765463,0
1047,-0.01695410828858126,0
1048,0.007613107641496041,0
1049,-0.018030438188632245,0
1050,0.27790391352537613,0
1051,4.88714988032156,0
1052,4.548589444656911,0
1053,-2.945491102160333,0
1054,1.6057673111779933,0
1055,-0.787826547405315,0
1056,0.3490017802923061,0
1057,-0.13961204634178156,0
1058,0.08140218611261679,0
1059,-0.012048192299808313,0
1060,-0.06462181168874484,0
1061,0.02483032948425013,0
1062,-0.013162524201003799,0
1063,-0.05351972552529328,0
1064,-0.0014266598658727037,0
1065,0.022088821289232455,0
1066,0.03813194496377205,0
1067,1.081543860957008,0
1068,6.634737229362713,0
1069,0.9963007565948945,0
1070,-1.7067230878485815,0
1071,1.063188605403771,0
1072,-0.5736313750058974,0
1073,0.2693149812305777,0
1074,-0.1297185792888835,0
1075,0.049243197432721375,0
1076,-0.03332549439797286,0
1077,-0.06053380850647444,0
1078,-0.06557100071018203,0
1079,-0.0011515446603128866,0
1080,-0.026374399202021007,0
1081,-0.011234404049124735,0
1082,-0.021881705102547735,0
1083,-0.0002705260059363557,0
1084,2.7126601991935453,0
1085,6.8129953153558915,0
1086,-2.1338379943514134,0
1087,0.4735716198488411,0
1088,-0.010636157427807155,0
1089,-0.002010370135069356,0
1090,0.03065162932467409,0
1091,0.05170546583999564,0
1092,-0.05770752187294302,0
1093,0.07037374357872525,0
1094,0.021241188252015656,0
1095,0.14413497707103587,0
1096,-0.010821298082386438,0
1097,0.049511927086440984,0
1098,0.05095862269857737,0
1099,0.04586863763821819,0
1100,0.2646273364256506,0
1101,4.874355506010173,0
1102,4.495850743328308,0
1103,-2.9898558695559325,0
1104,1.5947925986160048,0
1105,-0.8045062451480415,0
1106,0.34079008499053204,0
1107,-0.047155436199752446,0
1108,0.03789360670959245,0
1109,-0.04475617064387917,0
1110,0.014381680231544793,0
1111,-0.024030393363926685,0
1112,0.01524914136207792,0
1113,0.09800829592284821,0
1114,0.03802477139384554,0
1115,0.08744506375900336,0
1116,-0.006993815068989419,0
1117,1.2456224881919093,0
1118,6.74285477604244,0
1119,0.9837762073406283,0
1120,-1.499116442531022,0
1121,1.1731437217266685,0
1122,-0.48549631818449096,0
1123,0.3176655232372102,0
1124,-0.12614464178180634,0
1125,0.0970807136847806,0
1126,0.011490356264160187,0
1127,0.07682151614620356,0
1128,0.052298962545572814,0
1129,-0.057293504536311504,0
1130,-0.007663917447282391,0
1131,0.03117694227895621,0
1132,0.0984664133077901,0
1133,0.05746768180645066,0
1134,2.8106387051750024,0
1135,6.756815988872669,0
1136,-2.049459720818529,0
1137,0.5464174512343178,0
1138,-0.05020410897423593,0
1139,0.04319547005206128,0
1140,0.15219851776579105,0
1141,0.014031208705383158,0
1142,0.004369877905599225,0
1143,0.034675128971819555,0
1144,0.02446272900738312,0
1145,0.03233776025375548,0
1146,0.03137310753355435,0
1147,0.0700731222461284,0
1148,-0.03363874984594661,0
1149,0.06602843875541609,0
1150,0.325896181193665,0
1151,4.9148471327616035,0
1152,4.531903234101368,0
1153,-2.910728525151542,0
1154,1.6149423421930764,0
1155,-0.7323556423916786,0
1156,0.2948645263478714,0
1157,-0.04569396892565536,0
1158,0.07140026703239367,0
1159,-0.0013823124914069812,0
1160,0.05241016979187321,0
1161,0.10654863280091402,0
1162,0.04913251985524182,0
1163,0.12116935257691269,0
1164,0.0685328865654376,0
1165,0.05451254547276435,0
1166,0.10966554801974993,0
1167,1.24555568139437,0
1168,6.640758237040045,0
1169,1.0671403890330424,0
1170,-1.6497543732255409,0
1171,1.134379011542446,0
1172,-0.6030079952272683,0
1173,0.2468927438119288,0
1174,-0.07702715194832166,0
1175,0.05364103008121624,0
1176,-0.10530484533487612,0
1177,-0.012170700689172326,0
1178,-0.0249295279039839,0
1179,0.007584645819267405,0
1180,0.0069240802478569416,0
1181,0.1134131706358141,0
1182,-0.012721327314175513,0
1183,0.0990706891487415,0
1184,2.7223128151718243,0
1185,6.701995869891953,0
1186,-2.1672435535682038,0
1187,0.5589426278127664,0
1188,0.01776501921470487,0
1189,-0.04913908041877529,0
1190,0.034412042322270575,0
1191,0.0014244343232128684,0
1192,-0.003395398867239896,0
1193,0.006652605553850383,0
1194,-0.03843714638846303,0
1195,0.016736731927711967,0
1196,-0.0008986595992316829,0
1197,-0.018763514560896567,0
1198,-0.09521545850163404,0
1199,-0.08733957989632388,0
1200,0.39497793606362436,0
1201,4.83716293065521,0
1202,4.513650275950867,0
1203,-3.0520748941462723,0
1204,1.5312404740452465,0
1205,-0.789124538586602,0
1206,0.2503950533179017,0
1207,-0.11358943961178265,0
1208,0.08852134321092706,0
1209,-0.020810845355305765,0
1210,-0.03139834603150654,0
1211,0.040212472495386606,0
1212,0.07278046834352711,0
1213,0.060129179764787856,0
1214,0.03146107321092362,0
1215,0.006482023627092479,0
1216,0.1119254184366606,0
1217,1.2225916700946482,0
1218,6.6098899082981974,0
1219,1.0331222319204534,0
1220,-1.663089390387021,0
1221,1.1094692729931614,0
1222,-0.5177990455233529,0
1223,0.39632729539497513,0
1224,0.0022156908954395742,0
1225,0.13675766687941637,0
1226,0.03290544107237522,0
1227,0.13145790725354203,0
1228,0.09843847595644584,0
1229,0.14512469554967722,0
1230,0.11751084509332631,0
1231,0.13929108065799603,0
1232,0.07285000546931572,0
1233,0.18021624086493152,0
1234,2.8611317319801852,0
1235,6.8065342565924345,0
1236,-2.0142491586269844,0
1237,0.6999772451286641,0
1238,-0.057544861732585384,0
1239,0.07232577025153235,0
1240,0.04091241947943142,0
1241,0.02518052526006378,0
1242,0.014080638469672516,0
1243,0.13291629812988387,0
1244,0.09640530645944632,0
1245,0.06481775875160112,0
1246,0.09183735345810759,0
1247,-0.0364458944588513,0
1248,0.03737355984666134,0
1249,-0.014774862816778693,0
1250,0.4037009801744782,0
1251,4.996855744819195,0
1252,4.548719407162498,0
1253,-2.897614673190728,0
1254,1.616596696858636,0
1255,-0.7195609628505805,0
1256,0.3458572045802567,0
1257,-0.1626904895858255,0
1258,0.051574075150044016,0
1259,0.010239401992821064,0
1260,0.08299277713751431,0
1261,0.04513635093385672,0
1262,0.1683985439150705,0
1263,0.031500499890049646,0
1264,0.017476096347813386,0
1265,0.06758078233298738,0
1266,-0.05584708535955861,0
1267,1.2394138099542371,0
1268,6.577338918794547,0
1269,0.985067753974181,0
1270,-1.6093730557410955,0
1271,1.1336931147900573,0
1272,-0.613277612735126,0
1273,0.133084710491944,0
1274,0.025827422622238763,0
1275,0.0835125040629926,0
1276,0.15332969294216287,0
1277,0.040658829977058636,0
1278,-0.009109490806944742,0
1279,-0.035245371736388864,0
1280,0.10939548653006287,0
1281,0.07402770788696282,0
1282,0.005133831789111559,0
1283,0.10625277835771264,0
1284,2.8485108969184743,0
1285,6.807225508704781,0
1286,-2.016461859814473,0
1287,0.4810419287933487,0
1288,-0.058014947542491896,0
1289,0.07939071804567102,0
1290,0.09584159514828103,0
1291,0.04846544246943764,0
1292,0.0006477010625777838,0
1293,0.15121918237203744,0
1294,-0.004263141106711936,0
1295,0.09893918034480763,0
1296,0.05643187145296211,0
1297,0.06232360275088271,0
1298,0.02167518611974621,0
1299,-0.006543478073777996,0
1300,0.4814675187538381,0
1301,5.03774798764557,0
1302,4.438548185213187,0
1303,-2.951879286246917,0
1304,1.5494922290386466,0
1305,-0.7938368865052263,0
1306,0.29090998622239317,0
1307,-0.18920805806094204,0
1308,0.1104275072430641,0
1309,-0.03888459482007727,0
1310,0.025506619779746248,0
1311,0.10408658118772018,0
1312,-0.05167832009550515,0
1313,0.006509328789480039,0
1314,0.004431812450241025,0
1315,-0.06188726094680968,0
1316,0.0037250940888127262,0
1317,1.1042878298328274,0
1318,6.631661645031801,0
1319,0.9080908518947127,0
1320,-1.6116997401485174,0
1321,1.0540585642599927,0
1322,-0.631053513895428,0
1323,0.2973772905334855,0
1324,-0.07707780223721702,0
1325,-0.12194756119099996,0
1326,-0.011659896367712825,0
1327,-0.07449472256121834,0
1328,-0.00032611367070121446,0
1329,0.053328252650048126,0
1330,0.025070279087806097,0
1331,-0.031021376168915694,0
1332,0.07050568160737201,0
1333,0.004587535707534486,0
1334,2.9476281859080595,0
1335,6.7390495707046805,0
1336,-2.1850085358902427,0
1337,0.5758226314513899,0
1338,-0.04397609347273432,0
1339,-0.04041053191652685,0
1340,0.02930450304824919,0
1341,-0.01562591319966014,0
1342,0.07882227863481536,0
1343,-0.04795200682052779,0
1344,0.007538301116406129,0
1345,0.1108838851235424,0
1346,0.011260474972574229,0
1347,0.03284024432110345,0
1348,-0.04234960294189889,0
1349,-0.033984796558820723,0
1350,0.2598137798823816,0
1351,4.903647378061176,0
1352,4.52242033251935,0
1353,-2.9996138189694483,0
1354,1.6097174101003817,0
1355,-0.6851001879312764,0
1356,0.2523511363943787,0
1357,-0.08566514405384712,0
1358,-0.03418845473770776,0
1359,0.0719224805043889,0
1360,0.07461329860529345,0
1361,0.09235437790497025,0
1362,0.022168985265179228,0
1363,-0.01105101685221005,0
1364,0.026282042822478403,0
1365,0.039349514017703875,0
1366,0.03794411928371731,0
1367,1.3001050001908985,0
1368,6.76097483818756,0
1369,0.8201598348496864,0
1370,-1.5407754242731522,0
1371,1.2001711428514088,0
1372,-0.5447697995203065,0
1373,0.3006014523777807,0
1374,-0.06356659377848962,0
1375,0.058457246511938656,0
1376,0.11506293764451989,0
1377,0.01917509695712413,0
1378,-0.0009243256756839829,0
1379,0.027551441901474797,0
1380,-0.002098407248699057,0
1381,0.06585883509469521,0
1382,-0.03959928282486832,0
1383,0.0899800667082788,0
1384,2.7804915302473345,0
1385,6.636074861247679,0
1386,-2.2231273889886087,0
1387,0.5388218017007104,0
1388,-0.10932683270539184,0
1389,0.01536000600065205,0
1390,-0.02264623076702725,0
1391,-0.030829933395781127,0
1392,-0.012468410170686506,0
1393,0.00707641204151524,0
1394,-0.04988408206877061,0
1395,-0.04719379023865283,0
1396,-0.045228696706818235,0
1397,-0.14207216463162953,0
1398,-0.013347134747936477,0
1399,-0.09012461275475056,0
1400,0.2892764068188497,0
1401,4.956798903722807,0
1402,4.439745524731373,0
1403,-2.988867354726877,0
1404,1.4611097937052548,0
1405,-0.7999538704099791,0
1406,0.2267651549563093,0
1407,-0.15608165875991212,0
1408,0.041194278226378035,0
1409,-0.12989814499688135,0
1410,-0.02668008477418781,0
1411,-0.09359907588408349,0
1412,-0.13768561335508586,0
1413,-0.1308334690893762,0
1414,-0.0953669358024943,0
1415,0.022469907723166843,0
1416,-0.11794134832410585,0
1417,1.1123527699120968,0
1418,6.620842342640399,0
1419,0.7728185250027194,0
1420,-1.5948937455647414,0
1421,0.9687202003816527,0
1422,-0.5807851360818898,0
1423,0.12640284260847617,0
1424,-0.14792785217350995,0
1425,0.018466673806268614,0
1426,-0.10329615726528846,0
1427,0.08486711007105607,0
1428,-0.022093835983530184,0
1429,-0.00810335507696134,0
1430,-0.0960590903114116,0
1431,-0.08658503045000991,0
1432,-0.016564144805810244,0
1433,0.06270932743053517,0
1434,2.7751639733075177,0
1435,6.579040895024542,0
1436,-2.2155887100023364,0
1437,0.5349012217962491,0
1438,-0.03492109148377187,0
1439,-0.021943743835524398,0
1440,0.08133491208029293,0
1441,0.033905520978818084,0
1442,-0.06781147124313563,0
1443,-0.06533158863717006,0
1444,0.060746280520117775,0
1445,-0.06542553574568143,0
1446,-0.025199688060069177,0
1447,-0.014836171856641572,0
1448,-0.10738938942608331,0
1449,-0.11843641272818649,0
1450,0.28951075915942026,0
1451,4.926400735885303,0
1452,4.343086998860939,0
1453,-3.031395379243798,0
1454,1.5513636469502883,0
1455,-0.7134511001241356,0
1456,0.2695446451843213,0
1457,-0.10535496028139427,0
1458,-0.05972816461104795,0
1459,-0.12292469713383854,0
1460,0.00914813689047229,0
1461,-0.062969453441156,0
1462,0.03862794209000801,0
1463,0.06263575855058513,0
1464,0.047882465102888835,0
1465,-0.13985787209795686,0
1466,-0.06057996243888811,0
1467,1.1878750916850618,0
1468,6.671228693511916,0
1469,0.7513826812788941,0
1470,-1.5556240745530534,0
1471,1.0027792718991344,0
1472,-0.580519100012791,0
1473,0.14330642339739053,0
1474,-0.11473628351147308,0
1475,0.0183523243924262,0
1476,0.03651268117624283,0
1477,0.06660257828983579,0
1478,-0.02355805606987687,0
1479,-0.07482130695972472,0
1480,0.04865023256335952,0
1481,-0.06523623380831899,0
1482,-0.03979950607241253,0
1483,-0.0229473208277056,0
1484,2.7845437086513813,0
1485,6.668248213168531,0
1486,-2.2805202174964765,0
1487,0.5051317987991871,0
1488,-0.03039556561580954,0
1489,-0.025880817486328533,0
1490,-0.005625319444545654,0
1491,-0.017126034446232476,0
1492,-0.09435288117419455,0
1493,0.005276278475744807,0
1494,-0.039971622494998985,0
1495,0.01077949480978345,0
1496,-0.08142209622121606,0
1497,-0.10280661219804108,0
1498,-0.0457304499002087,0
1499,-0.137880454042074,0
1500,0.2474634737034996,0
1501,4.873020987697238,0
1502,4.283912500725705,0
1503,-2.8875656057912322,0
1504,1.4832958284394122,0
1505,-0.9293279737254173,0
1506,0.34068089988670136,0
1507,-0.16109849370153004,0
1508,0.011709506298432502,0
1509,-0.09508650785128615,0
1510,-0.043608909553667786,0
1511,-0.052250334217294005,0
1512,-0.04458505646853246,0
1513,0.03524696434375106,0
1514,-0.08020950422083582,0
1515,-0.03601139335219711,0
1516,-0.08126015720660415,0
1517,1.2350116567930862,0
1518,6.654189389537875,0
1519,0.8481716297950835,0
1520,-1.6426509044724291,0
1521,0.9448542685748013,0
1522,-0.5957092843192888,0
1523,0.26003276342287984,0
1524,-0.11542731275443803,0
1525,-0.019485106710279417,0
1526,-0.10750628968344295,0
1527,-0.07534453916075728,0
1528,0.009287580266644856,0
1529,-0.0348095487699438,0
1530,-0.040301013372199664,0
1531,-0.04805581589171729,0
1532,0.0582411579193042,0
1533,0.03463849930343839,0
1534,2.8234189910044494,0
1535,6.677123008154914,0
1536,-2.2336367783755233,0
1537,0.6053359104716473,0
1538,-0.06289340417274368,0
1539,0.02575871953696677,0
1540,0.019589747133007717,0
1541,0.024659179775837002,0
1542,-0.10995885814316383,0
1543,0.03129045939015822,0
1544,-0.06938722030401992,0
1545,0.025295718569070903,0
1546,-0.056458028695879306,0
1547,-0.03244326213393327,0
1548,0.04274216037650155,0
1549,0.039472774490454506,0
1550,0.28229938164115637,0
1551,4.982286111238916,0
1552,4.449011772617493,0
1553,-3.0146684489969546,0
1554,1.5543921459348045,0
1555,-0.8010562510038501,0
1556,0.2863533223973574,0
1557,-0.07303853647538472,0
1558,3.0237835557586244e-05,0
1559,-0.012084166156337575,0
1560,-0.04856884178653961,0
1561,-0.0818184636966019,0
1562,-0.07159205691504116,0
1563,-0.1403904926111766,0
1564,-0.07435651118616526,0
1565,-0.016836661378411805,0
1566,0.03617299922691155,0
1567,1.2342730302105889,0
1568,6.662617131761877,0
1569,0.8105473611899446,0
1570,-1.6842740672725005,0
1571,0.9829103947660569,0
1572,-0.5530588562721299,0
1573,0.22680446497119694,0
1574,-0.06482694749392354,0
1575,-0.0014421890168948293,0
1576,0.05407424132691305,0
1577,-0.011234119058240486,0
1578,0.09090891188852568,0
1579,0.06494687480332642,0
1580,-0.01723547487896282,0
1581,-0.07830862621393611,0
1582,-0.03456941171025145,0
1583,0.020355933242901903,0
1584,2.838923830426108,0
1585,6.694652085556191,0
1586,-2.2744446563724865,0
1587,0.6105488507754784,0
1588,-0.0369084263420369,0
1589,0.002478695375939352,0
1590,-0.059011271973361375,0
1591,0.000420416542915825,0
1592,-0.02424851562498155,0
1593,-0.0964937590604851,0
1594,0.08389581415100841,0
1595,-0.0004881464521317852,0
1596,-0.060457292728320636,0
1597,0.0063693831121664326,0
1598,0.024943386075632904,0
1599,0.03556687616232381,0
1600,0.31705257835235146,0
1601,5.069309320369277,0
1602,4.329620303321092,0
1603,-2.9849309887920095,0
1604,1.596690502185076,0
1605,-0.7301406806268291,0
1606,0.3638036467530985,0
1607,-0.13971911901957113,0
1608,0.0001243064920634883,0
1609,0.03487196370179167,0
1610,-0.013088068453516837,0
1611,-0.02227369603157668,0
1612,-0.07826083507263466,0
1613,-0.055672102895625575,0
1614,0.021356412941709667,0
1615,-0.15574206196095502,0
1616,0.023072465067060656,0
1617,1.2448601040152902,0
1618,6.682572751327802,0
1619,0.7543968502211829,0
1620,-1.5735481137174236,0
1621,1.0795094927883118,0
1622,-0.6441692757690847,0
1623,0.21688369171445318,0
1624,-0.0054399596428605645,0
1625,0.01041615771065283,0
1626,0.02213344276143567,0
1627,-0.09099327382734303,0
1628,-0.008405673201083989,0
1629,-0.049213422047881095,0
1630,0.01510010754556596,0
1631,0.07819041444952951,0
1632,0.0520068109429256,0
1633,0.028296949858959343,0
1634,2.9636125739477155,0
1635,6.731319988327912,0
1636,-2.3078873770142434,0
1637,0.5485040514326835,0
1638,-0.017153085393139617,0
1639,-0.005977900712824544,0
1640,0.002531581836346157,0
1641,0.08048828014796738,0
1642,0.07162481676161334,0
1643,-0.0006402937924062449,0
1644,0.08495532135936341,0
1645,-0.03284409227128846,0
1646,0.01473260526700508,0
1647,-0.009319854768111894,0
1648,-0.02777198229569759,0
1649,-0.046976045805846654,0
1650,0.40379616297947685,0
1651,4.966273972145419,0
1652,4.374586353295709,0
1653,-2.972886906098374,0
1654,1.5338354568155241,0
1655,-0.8436250985748518,0
1656,0.3331027087148673,0
1657,-0.14921579464213702,0
1658,0.015823426002476285,0
1659,0.0075708353657405365,0
1660,0.00932277531026299,0
1661,0.01389208511300205,0
1662,0.06680014152959313,0
1663,0.04056883322573508,0
1664,-0.01678954708948572,0
1665,-0.058424108167310626,0
1666,-0.06644965206501706,0
1667,1.2493421355569676,0
1668,6.6131199432847145,0
1669,0.7825747592911555,0
1670,-1.5431456144099307,0
1671,0.9881719696102697,0
1672,-0.5794193071537768,0
1673,0.2185783310637796,0
1674,-0.15340300000425372,0
1675,-0.0032154481497216093,0
1676,-0.007422816744457,0
1677,-0.07115023581314042,0
1678,0.05792401880163816,0
1679,0.07782613532727072,0
1680,-0.05089910438403218,0
1681,-0.022290231607337854,0
1682,0.015140081595866373,0
1683,0.09453307546904882,0
1684,2.9043521265337033,0
1685,6.621872796682542,0
1686,-2.3203262542538687,0
1687,0.6240783674938564,0
1688,-0.04774976424824248,0
1689,0.05223336382553988,0
1690,-0.014677665975379946,0
1691,0.07628185634978155,0
1692,0.11338763127835925,0
1693,0.06637483497138752,0
1694,0.05896226995049127,0
1695,-0.08648340410489846,0
1696,-0.06909522286851472,0
1697,0.052165768983308027,0
1698,0.030828916762508908,0
1699,0.0113449176532677,0
1700,0.46534760993935276,0
1701,5.037541016955029,0
1702,4.261911768645078,0
1703,-2.970859929549048,0
1704,1.6521570316945697,0
1705,-0.7617452989068756,0
1706,0.3616189857232889,0
1707,-0.09584121215929227,0
1708,-0.026050221191131,0
1709,0.10266273582525937,0
1710,-0.06015416580549229,0
1711,0.04298285428168573,0
1712,0.025688730887812494,0
1713,0.031285667836800556,0
1714,0.07211659191663031,0
1715,-0.03142423305725124,0
1716,0.012621236424854406,0
1717,1.2737867398141849,0
1718,6.739000998088897,0
1719,0.6599484322389624,0
1720,-1.6081743034240568,0
1721,0.9826306444770161,0
1722,-0.5240125642650127,0
1723,0.2915365027991336,0
1724,0.04227320525168812,0
1725,-0.00041322700362902455,0
1726,0.0910210781401423,0
1727,-0.06720254424926682,0
1728,-0.05201877632718849,0
1729,0.043213600961970806,0
1730,0.057151287203434986,0
1731,0.030012052332940138,0
1732,-0.010521680354483198,0
1733,0.05758050071293945,0
1734,3.0064742812923777,0
1735,6.724336376237241,0
1736,-2.2888469404094964,0
1737,0.6758826115070493,0
1738,0.02542021023998356,0
1739,0.0881215434253644,0
1740,0.014711210375601254,0
1741,0.042333843085365086,0
1742,-0.019133365650337443,0
1743,0.04247735658088521,0
1744,0.028619529170919745,0
1745,0.15312416533355339,0
1746,0.029102111599661768,0
1747,0.003691053821026677,0
1748,0.06229927621843592,0
1749,0.014353189181058539,0
1750,0.48114270644158685,0
1751,5.1032901813934135,0
1752,4.33190209083133,0
1753,-2.84251845420784,0
1754,1.6608533093695765,0
1755,-0.6965584384840925,0
1756,0.44282329022560096,0
1757,-0.04549822555315976,0
1758,0.15878524336672908,0
1759,0.13913365434582564,0
1760,0.18029015632622894,0
1761,0.05714422255429777,0
1762,0.07968148926439426,0
1763,0.16293143494423706,0
1764,0.07527004490727468,0
1765,0.10629698157488118,0
1766,0.06472401120924834,0
1767,1.3572361915763247,0
1768,6.821276142719139,0
1769,0.8069709014886163,0
1770,-1.3807932160315917,0
1771,1.1064538528180632,0
1772,-0.42076074163343896,0
1773,0.33800781036074484,0
1774,0.020090903559073378,0
1775,0.07786389531336507,0
1776,0.09193104184623536,0
1777,0.10378039175510825,0
1778,0.07248376754095412,0
1779,0.11298926154005487,0
1780,0.14688143752337318,0
1781,0.1829924780123789,0
1782,0.08555011690991071,0
1783,0.1868637885572122,0
1784,3.022857375039316,0
1785,6.758638419521355,0
1786,-2.329208843906084,0
1787,0.7228919337736247,0
1788,-0.05719362886981563,0
1789,0.07478453767307047,0
1790,0.05357660479795326,0
1791,0.11350301971158372,0
1792,0.06429241202423229,0
1793,0.051575289590812284,0
1794,0.1625274469099504,0
1795,0.0553441564787796,0
1796,0.0417706682187471,0
1797,0.13481192151604565,0
1798,0.07336418509590407,0
1799,0.0633945270976547,0
1800,0.5944901083541727,0
1801,5.198272578653039,0
1802,4.295123554234929,0
1803,-2.880724531015778,0
1804,1.6707286987506658,0
1805,-0.6932170168528508,0
1806,0.3911618258977375,0
1807,-0.021186954924216444,0
1808,0.17861619980276183,0
1809,-0.031536423188514316,0
1810,0.1033738096740287,0
1811,0.032010520898971134,0
1812,0.07398796542350594,0
1813,0.006095502538387462,0
1814,0.08869800171578153,0
1815,0.05651321587970045,0
1816,0.014773253984978564,0
1817,1.3529976349176192,0
1818,6.817677840378936,0
1819,0.8425084636990249,0
1820,-1.4297867701680111,0
1821,1.0776283120959511,0
1822,-0.48660751227612287,0
1823,0.22974450205729396,0
1824,-0.1313733039313245,0
1825,0.10073845109090832,0
1826,0.02278914280054853,0
1827,0.039112430131385406,0
1828,0.02541682827640842,0
1829,0.08652416454625844,0
1830,0.08351973603323311,0
1831,0.09591927012540433,0
1832,-0.02647359285094976,0
1833,0.24417267660653066,0
1834,2.956058557658052,0
1835,6.6449942695892625,0
1836,-2.3118995426872044,0
1837,0.7146165804500785,0
1838,-0.019830491914912547,0
1839,0.07848848936316832,0
1840,0.009379443535028571,0
1841,0.037885443349744544,0
1842,0.09569123856519801,0
1843,0.08346505937512667,0
1844,0.14069468526706322,0
1845,0.06839313894353427,0
1846,-0.009255764727719343,0
1847,0.014612543089810484,0
1848,-0.10757424837285451,0
1849,0.10854218521568522,0
1850,0.4538763557414645,0
1851,5.127220571560836,0
1852,4.319412112638077,0
1853,-3.0010681454394055,0
1854,1.6433984398090968,0
1855,-0.6870572300527075,0
1856,0.32882703070121505,0
1857,-0.053340584647116863,0
1858,0.022208340917012313,0
1859,0.06089522597855605,0
1860,0.07973550318322065,0
1861,0.04369084915917017,0
1862,0.082080591083298,0
1863,-0.027621340241376788,0
1864,0.08570377829404184,0
1865,0.02956532267361639,0
1866,0.09623098651772483,0
1867,1.3319543405353613,0
1868,6.743770492522054,0
1869,0.5767949143080743,0
1870,-1.4065317512821698,0
1871,1.0198410599027923,0
1872,-0.5603663111826902,0
1873,0.21069304601083838,0
1874,0.008866415382282215,0
1875,0.04331851596233918,0
1876,-0.027345991127318475,0
1877,0.0314861786643712,0
1878,-0.0064460113868889495,0
1879,-0.09047432226416291,0
1880,0.07361783571320828,0
1881,0.0016920902201517547,0
1882,0.1373222244149373,0
1883,-0.030872561296999543,0
1884,2.92883484131457,0
1885,6.658888811076286,0
1886,-2.4019639413514318,0
1887,0.6152136627555623,0
1888,-0.15786995661014955,0
1889,0.044859688832558184,0
1890,0.032216236187135074,0
1891,0.009879734066817214,0
1892,0.08073341314391247,0
1893,-0.09693774828958149,0
1894,-0.014947022716976609,0
1895,-0.08652471055948857,0
1896,0.002363747363944754,0
1897,0.07926353213512334,0
1898,-0.016541291085300325,0
1899,-0.03144900046657477,0
1900,0.3260954537217628,0
1901,5.130395252741832,0
1902,4.244336422873186,0
1903,-3.0221759527938796,0
1904,1.5870442990989708,0
1905,-0.8065045802871583,0
1906,0.34623590851826713,0
1907,-0.18158817078713957,0
1908,0.002781710706572141,0
1909,-1.5934132972182744e-05,0
1910,0.014165257856968965,0
1911,0.013651037015734961,0
1912,0.07564560039687657,0
1913,-0.08136440389638193,0
1914,-0.042218151214948624,0
1915,0.018609520639049155,0
1916,-0.04326970254181772,0
1917,1.3141831126532373,0
1918,6.806657099237438,0
1919,0.7268517038239306,0
1920,-1.5023603601793194,0
1921,0.9804797590999164,0
1922,-0.5766403263917921,0
1923,0.11324569891152612,0
1924,-0.13134462742483438,0
1925,-0.0962909138140835,0
1926,-0.10314543485317818,0
1927,-0.13842376328851763,0
1928,-0.10267601739546901,0
1929,-0.12305602396323713,0
1930,-0.09925716957047391,0
1931,-0.126245844908414,0
1932,-0.08977394153326526,0
1933,-0.11279948616855706,0
1934,2.9084876768712107,0
1935,6.578836934893527,0
1936,-2.4555392348772536,0
1937,0.6303507077325154,0
1938,-0.2543003495466014,0
1939,-0.06489728574216994,0
1940,-0.014172300501446945,0
1941,-0.03568541854208177,0
1942,-0.02411856713401289,0
1943,-0.04696773934097479,0
1944,-0.003009646018638873,0
1945,-0.03073235048328193,0
1946,0.020874606088075818,0
1947,0.01644709825930525,0
1948,-0.015356246617983132,0
1949,-0.08833143023015694,0
1950,0.33831681543189224,0
1951,5.081808892667555,0
1952,4.122864492158233,0
1953,-2.953162600995109,0
1954,1.5310498306140876,0
1955,-0.7941525492340024,0
1956,0.27092690746424525,0
1957,-0.19409555038962484,0
1958,-0.05498556212957993,0
1959,-0.14941084318554848,0
1960,-0.06223991194598821,0
1961,-0.047989085501991297,0
1962,-0.06908970662801506,0
1963,-0.14657643081381289,0
1964,-0.13763543800059552,0
1965,0.013181007838358141,0
1966,-0.08421257927049278,0
1967,1.1999999353868973,0
1968,6.748471259990969,0
1969,0.5712685044723725,0
1970,-1.4200224173199727,0
1971,0.9421923341267083,0
1972,-0.49647618923558245,0
1973,0.07886368903742494,0
1974,-0.07654356167127302,0
1975,0.030286982619391167,0
1976,0.05531159294027961,0
1977,-0.006744943017790311,0
1978,-0.04003010495193551,0
1979,-0.011289751877952333,0
1980,-0.048837541913066405,0
1981,0.06662363247332015,0
1982,0.04073289818656655,0
1983,0.08142919353482281,0
1984,2.944619827382262,0
1985,6.567484284938053,0
1986,-2.348629122848728,0
1987,0.6591072758789909,0
1988,-0.17187682984421884,0
1989,0.05152553947496472,0
1990,0.0626638766039706,0
1991,-0.029083547293394744,0
1992,-0.10285309220994679,0
1993,-0.03810780392460806,0
1994,-0.02533972980573912,0
1995,0.022793819771040846,0
1996,0.034931395990482464,0
1997,-0.0339093267169743,0
1998,-0.055752293005478466,0
1999,-0.08590804501920812,0
2000,0.35219825621523615,0
2001,5.171649925829293,0
2002,4.219515387748998,0
2003,-2.7949896151748765,0
2004,1.581261334682337,0
2005,-0.7153010243632157,0
2006,0.342338674927063,0
2007,-0.045907494603168564,0
2008,0.06349450813324409,0
2009,-0.06818449492850223,0
2010,-0.029913103855206985,0
2011,0.049550595360812716,0
2012,-0.03665128445811662,0
2013,-0.034759318709298964,0
2014,0.049569781706076795,0
2015,-0.030507672423775722,0
2016,0.03486262509224437,0
2017,1.3087042134939453,0
2018,6.718098436924848,0
2019,0.5079526917965043,0
2020,-1.4920681011965795,0
2021,1.0039937545045654,0
2022,-0.5001416040697491,0
2023,0.24782625170075764,0
2024,-0.04053457175300887,0
2025,-0.0210472933171996,0
2026,-0.010465239550038313,0
2027,-0.07530063917207831,0
2028,-0.05801627536879353,0
2029,0.018465033865652736,0
2030,0.030343569032779814,0
2031,0.09188887910212423,0
2032,0.056096403832225625,0
2033,0.10277707055802181,0
2034,2.9957919918142246,0
2035,6.554619000035976,0
2036,-2.407718763870438,0
2037,0.5939295588647135,0
2038,-0.20474814905394248,0
2039,-0.010598375325038528,0
2040,-0.06775545596804237,0
2041,-0.17689674487177642,0
2042,-0.0863569837947878,0
2043,-0.10053402790849408,0
2044,-0.04969317889693671,0
2045,-0.04245701962076039,0
2046,0.021621471657978775,0
2047,-0.0035607149027704794,0
2048,0.03919499658497677,0
2049,0.06977527449214838,0
2050,0.48816802921258406,0
2051,5.210460669365026,0
2052,4.310820014890888,0
2053,-2.836545540263723,0
2054,1.6873055294825445,0
2055,-0.671291585654532,0
2056,0.3851623797859016,0
2057,-0.014518610091532803,0
2058,0.062081665592284924,0
2059,0.05906955963365684,0
2060,0.06964076845280825,0
2061,0.08522820651620185,0
2062,0.07495363805286664,0
2063,0.0688632038574326,0
2064,-0.016058560071860722,0
2065,-0.010489259526706669,0
2066,0.11434247499692878,0
2067,1.4253962269634732,0
2068,6.800392712042649,0
2069,0.633314993043997,0
2070,-1.3795773805342746,0
2071,0.9960690689126027,0
2072,-0.4121831219236093,0
2073,0.30481624551112824,0
2074,0.00039944060686206845,0
2075,0.06376030517989115,0
2076,0.1151411193652016,0
2077,-0.061884671112727566,0
2078,-0.00867113903901192,0
2079,-0.030069457538503923,0
2080,0.03110483666808453,0
2081,0.016600680596394385,0
2082,0.007174781642677919,0
2083,0.05669505372431411,0
2084,3.047059669918342,0
2085,6.6257060383471424,0
2086,-2.344495925974393,0
2087,0.7661806856699953,0
2088,-0.17661070823884575,0
2089,-0.0038826780885467538,0
2090,0.03659712867804235,0
2091,0.030309939504446104,0
2092,0.02038155495519463,0
2093,0.01968343174140229,0
2094,0.036169601221220725,0
2095,0.11256117567068012,0
2096,0.05570311306697551,0
2097,0.12605747883397866,0
2098,0.04164117153585551,0
2099,-0.0311793494768403,0
2100,0.5820588124973362,0
2101,5.24952388761422,0
2102,4.265093823754845,0
2103,-2.8421128156908173,0
2104,1.596836522157079,0
2105,-0.7756502562671957,0
2106,0.42726990244562507,0
2107,-0.10602678162062835,0
2108,0.053149245366347804,0
2109,0.09822553779093735,0
2110,0.03807428950600705,0
2111,0.005726448617914867,0
2112,-0.006243072783635523,0
2113,0.07774939447333064,0
2114,-0.01590675126828666,0
2115,0.030793889009748294,0
2116,-0.026181436866741417,0
2117,1.4040170371203087,0
2118,6.819774301994303,0
2119,0.5995593310518563,0
2120,-1.3282906052088415,0
2121,1.0651098789128703,0
2122,-0.4439922579515633,0
2123,0.21060870318057345,0
2124,-0.016752606837731884,0
2125,0.027260989771172688,0
2126,0.10437030443197198,0
2127,0.03138473962996441,0
2128,0.10397946811458005,0
2129,-0.06820635532016425,0
2130,0.09017686395586452,0
2131,-0.05903082621312336,0
2132,0.00199506331258888,0
2133,0.09950798492712985,0
2134,3.1151444299802296,0
2135,6.5601359107909625,0
2136,-2.317657691941891,0
2137,0.714047050824038,0
2138,-0.059035297364918415,0
2139,-0.0363538635906647,0
2140,0.04582252597707212,0
2141,0.0698199187799464,0
2142,0.10423702645278461,0
2143,0.05938867174511786,0
2144,0.08291764770609081,0
2145,-0.024616602209682197,0
2146,0.04684124809638802,0
2147,0.05541990495944073,0
2148,0.04835606813892102,0
2149,-0.05933915254118122,0
2150,0.5204592639209702,0
2151,5.271182286222065,0
2152,4.1516544000842845,0
2153,-2.898119211304177,0
2154,1.6171000343298039,0
2155,-0.7735840891840359,0
2156,0.32573692878757665,0
2157,-0.04499309813143652,0
2158,0.11092502973675718,0
2159,0.0067509946536222,0
2160,-0.0160023122504751,0
2161,0.11011814657008619,0
2162,-0.008611032712052262,0
2163,-0.020247541067678988,0
2164,0.007068379881528607,0
2165,0.07320304788013292,0
2166,0.05340009237724283,0
2167,1.3375926519407293,0
2168,6.714204601178901,0
2169,0.5365437842537064,0
2170,-1.3727943835046468,0
2171,0.9072743609958978,0
2172,-0.3637136344615025,0
2173,0.2215116787220954,0
2174,-0.06091608442136125,0
2175,0.014679979251644597,0
2176,0.07548242833044504,0
2177,0.10058269393492722,0
2178,0.09055814115426306,0
2179,0.04479670418452531,0
2180,-0.05998902902540215,0
2181,0.006130378772636384,0
2182,0.04680759135164285,0
2183,0.13270785794718065,0
2184,3.0807461932473004,0
2185,6.618328297906969,0
2186,-2.3197497889870062,0
2187,0.7046319794932581,0
2188,-0.1825200127928241,0
2189,0.049023768634123235,0
2190,-0.015848451584661163,0
2191,-0.0005990324270098019,0
2192,-0.041431215061868115,0
2193,0.08274868126525559,0
2194,-0.060374537405820224,0
2195,-0.06471868292126137,0
2196,0.10734779778053898,0
2197,0.036942482371482004,0
2198,0.06390026568461792,0
2199,0.053210175509375804,0
2200,0.470618597915361,0
2201,5.372428726115136,0
2202,4.172458682508875,0
2203,-2.9053568346512253,0
2204,1.5183084879052418,0
2205,-0.7596444915169942,0
2206,0.4085445511673562,0
2207,-0.046165261332934644,0
2208,0.07259332625393923,0
2209,-0.031796300520152795,0
2210,0.08155708586995028,0
2211,0.10223625643771189,0
2212,0.15670298720235798,0
2213,0.05225757749519172,0
2214,-0.002329857053794057,0
2215,0.07672092886555511,0
2216,0.043546424750947776,0
2217,1.374449897783842,0
2218,6.80595293474416,0
2219,0.3827905941167504,0
2220,-1.1707735286312073,0
2221,1.0829308930985329,0
2222,-0.3943121046079981,0
2223,0.31010761774583384,0
2224,-0.11662089511743451,0
2225,0.10060866757058899,0
2226,-0.0061149261577775685,0
2227,-0.03281379261365149,0
2228,0.06683616603365705,0
2229,0.0022030531668443057,0
2230,-0.023765843645725468,0
2231,0.001487591076349437,0
2232,0.03114762040590222,0
2233,0.12286597883986627,0
2234,3.166478506819609,0
2235,6.58902650105108,0
2236,-2.3797455113044306,0
2237,0.7112150912062885,0
2238,-0.09392117231531741,0
2239,0.028400026614608408,0
2240,0.003812056049595328,0
2241,-0.04855886514823539,0
2242,0.05110654226273311,0
2243,-0.04556925695647028,0
2244,0.05977421400905608,0
2245,0.023681757129096346,0
2246,-0.029277433328706963,0
2247,0.060989699684031055,0
2248,0.011206969816787548,0
2249,0.0015980349044302754,0
2250,0.4875889512912985,0
2251,5.254335021113881,0
2252,4.08031648173624,0
2253,-2.8804642848387503,0
2254,1.699901751767865,0
2255,-0.7807882237079692,0
2256,0.33526153222611527,0
2257,0.03407008408164282,0
2258,0.061569992799558965,0
2259,0.10369878209362188,0
2260,0.06950543343260948,0
2261,0.0038038736005824303,0
2262,-0.030289980295105316,0
2263,0.02096931036812081,0
2264,-0.0176155128585314,0
2265,0.03890637462906866,0
2266,-0.008937960504141869,0
2267,1.308564326118438,0
2268,6.7609439746454765,0
2269,0.6134166559612082,0
2270,-1.3633599983631473,0
2271,0.9704170880743768,0
2272,-0.43577031386665643,0
2273,0.2936849153643574,0
2274,-0.010887792838184713,0
2275,0.10387893997570741,0
2276,-0.03467824618356121,0
2277,-0.05700194395143715,0
2278,-0.028468919642159814,0
2279,-0.021665158684531064,0
2280,0.05225830666479661,0
2281,-0.023547349099512473,0
2282,0.07537813155819989,0
2283,0.09572560810466417,0
2284,3.1606607553310226,0
2285,6.588227557483586,0
2286,-2.3724591964442325,0
2287,0.7478140781893374,0
2288,-0.18944400869970077,0
2289,0.17174509852621728,0
2290,-0.0689289294352102,0
2291,0.07724965475400568,0
2292,0.06610691126878773,0
2293,0.09605977598305034,0
2294,0.057832859207175846,0
2295,0.15300427772104125,0
2296,-0.03760048154143558,0
2297,0.04840595567037367,0
2298,0.05341520622566889,0
2299,0.08082141577547326,0
2300,0.5055610768961658,0
2301,5.250683987738497,0
2302,4.036499903388909,0
2303,-2.877027214281936,0
2304,1.6603393503311972,0
2305,-0.7633279734842419,0
2306,0.36364747403717285,0
2307,-0.11295315148203047,0
2308,0.02046068483728472,0
2309,-0.03664108481640707,0
2310,-0.025916332819501574,0
2311,0.017092115967257883,0
2312,0.051308824015451726,0
2313,0.03769357867039111,0
2314,-0.039642085343754095,0
2315,0.08784808237122765,0
2316,-0.023578112960651317,0
2317,1.2629615970804446,0
2318,6.781120424648512,0
2319,0.4920767862111544,0
2320,-1.372456888205106,0
2321,1.0119246395305825,0
2322,-0.4565380277429897,0
2323,0.22485609718679975,0
2324,-0.09377608817849233,0
2325,0.1542467276771854,0
2326,-0.008232024257501927,0
2327,-0.07309595793305626,0
2328,-0.006148939222454779,0
2329,0.02427912593967847,0
2330,0.03384187139163351,0
2331,0.09609115609817419,0
2332,0.028193520408138002,0
2333,0.007403686502813506,0
2334,3.0426101939628745,0
2335,6.502770380306002,0
2336,-2.4620964153808282,0
2337,0.7729396873340616,0
2338,-0.12686721265514295,0
2339,0.07131499074768226,0
2340,-0.01509884618851006,0
2341,0.011777104109090624,0
2342,0.005871381465511859,0
2343,-0.045065036527725026,0
2344,0.02026074050614328,0
2345,0.1383312214582418,0
2346,0.023798457983848352,0
2347,0.010707674109157041,0
2348,0.07230169727281151,0
2349,-0.06739407103707233,0
2350,0.3693587192461491,0
2351,5.235148661664469,0
2352,4.013470030418087,0
2353,-2.899419061224977,0
2354,1.6500914182044606,0
2355,-0.7854619555962963,0
2356,0.3616800719796321,0
2357,-0.05381052129704725,0
2358,-0.006528704193590584,0
2359,0.03443334504001923,0
2360,-0.053841504143821474,0
2361,-0.03584854061087247,0
2362,0.028151997878009143,0
2363,0.009374557203331302,0
2364,-0.042652065669736006,0
2365,0.08995665602403936,0
2366,-0.05967855965018906,0
2367,1.2723401278399369,0
2368,6.684599179978991,0
2369,0.3189284741431146,0
2370,-1.5198211284745418,0
2371,0.8143000795574545,0
2372,-0.622425917914373,0
2373,0.15753138250670662,0
2374,-0.1274051112652017,0
2375,-0.1597363381810695,0
2376,-0.07927548346707516,0
2377,-0.09652944202158922,0
2378,-0.057399630788676034,0
2379,-0.12296592936350456,0
2380,-0.06374543177391785,0
2381,-0.11015904946821453,0
2382,-0.05804716644078449,0
2383,0.10963502076689807,0
2384,3.034314939584827,0
2385,6.511686479227782,0
2386,-2.4663622145669204,0
2387,0.7504366296786517,0
2388,-0.13839412742952348,0
2389,-0.0028823231997892815,0
2390,0.020201353142760777,0
2391,-0.031184715688706708,0
2392,-0.05466383938280269,0
2393,-0.03950187199363247,0
2394,0.0563503000488618,0
2395,0.09068818541632484,0
2396,-0.042343685637681296,0
2397,0.09358478338553466,0
2398,0.03783683326121058,0
2399,-0.004050574571746984,0
2400,0.4067080262697609,0
2401,5.201134462629294,0
2402,4.04172816243949,0
2403,-2.870460845886598,0
2404,1.6060549717656833,0
2405,-0.7909130293182485,0
2406,0.3025831523948185,0
2407,-0.19386968212104044,0
2408,-0.0007048758939300105,0
2409,-0.033689337419228194,0
2410,0.013549238928462028,0
2411,-0.024681507975239343,0
2412,0.07228678221873472,0
2413,-0.02617811152014066,0
2414,-0.015577712775196241,0
2415,0.046503382800413134,0
2416,-0.02232978806872734,0
2417,1.3276348974330503,0
2418,6.776632692318708,0
2419,0.3175921007666531,0
2420,-1.2879801840035476,0
2421,0.9095143794123838,0
2422,-0.5264092494572122,0
2423,0.22467818463007275,0
2424,-0.06139556640950539,0
2425,-0.02129498409748541,0
2426,0.0806429558256237,0
2427,0.021101226744987413,0
2428,0.06709998129107392,0
2429,0.007392823253581869,0
2430,-0.0026329838959960866,0
2431,-0.018371647538554622,0
2432,0.1367722054614987,0
2433,0.07678582930126604,0
2434,3.164978778349645,0
2435,6.541149668243749,0
2436,-2.439370450875716,0
2437,0.7369716590280588,0
2438,-0.24536216466891053,0
2439,-0.0014890219495419573,0
2440,-0.1363625148572934,0
2441,-0.059661818362827024,0
2442,-0.08033982861867253,0
2443,-0.06687340053318573,0
2444,-0.05447930119806217,0
2445,0.019272963050211367,0
2446,-0.11474157537603205,0
2447,0.07413276982054055,0
2448,0.03600132527543381,0
2449,-0.09760356950201003,0
2450,0.43194823028005475,0
2451,5.238354939412375,0
2452,4.012510657164711,0
2453,-2.8097388812589785,0
2454,1.6020335561430774,0
2455,-0.7344130788115781,0
2456,0.31730247146152335,0
2457,-0.20816312633041556,0
2458,0.04467261940574172,0
2459,0.026832354333799692,0
2460,-0.08705721099751337,0
2461,0.007637651005476928,0
2462,0.05284710459808058,0
2463,0.0358817882134869,0
2464,0.08303955357586695,0
2465,0.09528790258161372,0
2466,0.008628306695843562,0
2467,1.340941916422511,0
2468,6.888134063855629,0
2469,0.4095239006606161,0
2470,-1.2664293063403869,0
2471,0.9466256325463718,0
2472,-0.44899224314993924,0
2473,0.30135174415903465,0
2474,-0.0016290878940933423,0
2475,0.07542696472335296,0
2476,-0.05705105153228299,0
2477,0.04152161013385829,0
2478,0.07714695479710106,0
2479,0.0754053527349568,0
2480,-0.003892762912838136,0
2481,-0.1179352510751967,0
2482,0.04337281737924876,0
2483,0.037893037091202404,0
2484,3.143232800887538,0
2485,6.511235949858396,0
2486,-2.5599288718453783,0
2487,0.7485193808986169,0
2488,-0.2717987368119006,0
2489,0.11262465926104578,0
2490,-0.05780998670813401,0
2491,-0.033621825071378925,0
2492,0.01850499070417845,0
2493,-0.13847073652755917,0
2494,-0.01356928676022448,0
2495,-0.026494690864625664,0
2496,-0.04933605810926196,0
2497,-0.013932206584853776,0
2498,-0.016670369617646005,0
2499,-0.0710642002704528,0
2500,0.43777683117532223,0
2501,5.284616406476087,0
2502,3.998883667761211,0
2503,-2.9376629549124456,0
2504,1.5742999669023787,0
2505,-0.8839239510090399,0
2506,0.295108570346126,0
2507,-0.15665293898928884,0
2508,0.0102238227110511,0
2509,0.05876124312523402,0
2510,-0.03498498386871106,0
2511,-0.01637607269867276,0
2512,0.07188658095934207,0
2513,0.06333674695865957,0
2514,0.06745844947517651,0
2515,-0.05380534364061347,0
2516,0.09952823361778715,0
2517,1.4649345250426895,0
2518,6.8451453971383875,0
2519,0.3810219010410451,0
2520,-1.2735474401609865,0
2521,0.9620412741467297,0
2522,-0.3990193617203655,0
2523,0.12262542345643102,0
2524,-0.02053658245196756,0
2525,0.07342048477665195,0
2526,0.004516884299529186,0
2527,0.005232829533270722,0
2528,0.07508574423207373,0
2529,-0.019902334092170907,0
2530,-0.009111578535215274,0
2531,-0.04915499558010496,0
2532,0.009870517296210274,0
2533,0.15869252180286314,0
2534,3.1648245104341317,0
2535,6.542810604143241,0
2536,-2.5808007337548817,0
2537,0.8184803896785083,0
2538,-0.2822985596449851,0
2539,0.04125606954936084,0
2540,-0.0277631312349704,0
2541,-0.03184761949272051,0
2542,0.02227075517112219,0
2543,-0.008503493676762092,0
2544,-0.007842088495728587,0
2545,-0.06307698277791013,0
2546,-0.0709502030810598,0
2547,-0.05198670839035238,0
2548,-0.08467871352522569,0
2549,0.004218119789801425,0
2550,0.46533200463105096,0
2551,5.279584695697829,0
2552,3.921132116509469,0
2553,-2.936557885583034,0
2554,1.5494333339488924,0
2555,-0.8165290141588255,0
2556,0.301672106851161,0
2557,-0.1873434384860393,0
2558,0.002684514714912538,0
2559,-0.010887152230706765,0
2560,-0.03569391268581851,0
2561,-0.04849019164043298,0
2562,0.011771370133180786,0
2563,-0.055459837374559375,0
2564,-0.08184615208203745,0
2565,-0.01399293515106475,0
2566,0.05505197126608108,0
2567,1.3532308773714423,0
2568,6.625685841738448,0
2569,0.3362264232697861,0
2570,-1.2437628650929249,0
2571,0.9260525720435081,0
2572,-0.531353619293659,0
2573,0.14780926817578294,0
2574,-0.18120582325879278,0
2575,-0.012783846760938754,0
2576,-0.03880467130544395,0
2577,-0.0025537972081128256,0
2578,0.05157546080030703,0
2579,0.05587220045221507,0
2580,0.04991194793022153,0
2581,-0.011736329464323061,0
2582,0.024528624770421965,0
2583,0.0874570734876914,0
2584,3.214479451615388,0
2585,6.409683438185622,0
2586,-2.46594309564231,0
2587,0.7390829376931854,0
2588,-0.11892666015080683,0
2589,0.06093227671663367,0
2590,-0.09091221543766875,0
2591,-0.12242003870585841,0
2592,-0.019003212436163028,0
2593,-0.03881843586989865,0
2594,-0.05682088472514603,0
2595,0.015393529627827793,0
2596,0.033026552819563466,0
2597,-0.04913023503226614,0
2598,-0.05538566504155634,0
2599,-0.07566288150625057,0
2600,0.4430814047042678,0
2601,5.249384946382131,0
2602,3.8469990873151767,0
2603,-2.9070024330611575,0
2604,1.6104073503070537,0
2605,-0.8347110140172898,0
2606,0.27394194316297993,0
2607,-0.03994906638674815,0
2608,-0.011116228357723721,0
2609,0.007050850101249839,0
2610,-0.022717765896784918,0
2611,-0.03248689471960946,0
2612,0.020317022258669902,0
2613,-0.07328324625712264,0
2614,0.0013061814569107488,0
2615,-0.07832660113872927,0
2616,-0.1124267841794252,0
2617,1.5107606693604507,0
2618,6.858984877463382,0
2619,0.2690046122057744,0
2620,-1.2988142927680262,0
2621,0.9271100793520737,0
2622,-0.4815702534266284,0
2623,0.2612593956601726,0
2624,-0.09399658195058667,0
2625,0.12454081111750309,0
2626,0.027327697294365856,0
2627,0.027456895508177297,0
2628,0.026762991151975887,0
2629,-0.034118674024522684,0
2630,-0.0351274008531821,0
2631,0.00593530548874555,0
2632,-0.018383028867808102,0
2633,0.011807282067230834,0
2634,3.1646770145120264,0
2635,6.376602979197125,0
2636,-2.5488083660168392,0
2637,0.8346310982031898,0
2638,-0.22243379112967304,0
2639,0.09822533121012433,0
2640,0.008104655333795202,0
2641,-0.009794047026471984,0
2642,-0.05799289136393607,0
2643,-0.02503668182422961,0
2644,0.06083913970465472,0
2645,0.013687120335647208,0
2646,0.0860238365484968,0
2647,0.058502268710806056,0
2648,0.07399327354009462,0
2649,0.047474760130907095,0
2650,0.407304639305904,0
2651,5.32505390270351,0
2652,3.9620941724679257,0
2653,-2.8292073488877723,0
2654,1.5382983968532875,0
2655,-0.7392069394203205,0
2656,0.23951663912447027,0
2657,-0.06858818584443319,0
2658,0.08432130993553508,0
2659,0.038633135825930295,0
2660,0.03573961018729818,0
2661,-0.02977089455721193,0
2662,0.025458995262320733,0
2663,-0.009107983357661248,0
2664,-0.04807407967481247,0
2665,0.0009056986255738531,0
2666,0.09483238448331852,0
2667,1.394084795261948,0
2668,6.764376079306075,0
2669,0.2646745862012561,0
2670,-1.2860162302230431,0
2671,0.9457778502877839,0
2672,-0.47622531507815496,0
2673,0.16520484020138113,0
2674,-0.07580136694596899,0
2675,0.03134559658144384,0
2676,0.03476405988254156,0
2677,0.07623250531925392,0
2678,0.04606385544536522,0
2679,-0.0371514856502515,0
2680,-0.013379542843096864,0
2681,0.07537466941596427,0
2682,0.016397704338572905,0
2683,0.12453331274033982,0
2684,3.257192174214275,0
2685,6.608993780171309,0
2686,-2.5316635147493063,0
2687,0.9178656103243368,0
2688,-0.1511456479058672,0
2689,-0.007178262854081116,0
2690,0.011035702143065188,0
2691,0.010644140558285983,0
2692,0.054575714774580356,0
2693,-0.02971569223736748,0
2694,0.007149568959513838,0
2695,0.056153780249340896,0
2696,0.06759893696001024,0
2697,0.061601368754377814,0
2698,-0.006858981994405652,0
2699,0.08463698482948322,0
2700,0.4649085444949167,0
2701,5.370533565960288,0
2702,3.892738204761658,0
2703,-2.7716301358731474,0
2704,1.5174395394279978,0
2705,-0.8083147661283556,0
2706,0.23944050445186588,0
2707,-0.0946247840570891,0
2708,0.03990698269730269,0
2709,0.04427101225257176,0
2710,-0.023545227037162005,0
2711,0.11192028775515175,0
2712,0.050234559691911436,0
2713,0.04954685894337621,0
2714,0.06686750276747967,0
2715,-0.01693784519753023,0
2716,0.04129588997929899,0
2717,1.4175084556391253,0
2718,6.8765828081553435,0
2719,0.33235027868932926,0
2720,-1.1546356170350376,0
2721,0.9172942867531204,0
2722,-0.3513145279368418,0
2723,0.29720348277506686,0
2724,-0.010511257833737526,0
2725,0.1466953551896749,0
2726,0.10042283392927076,0
2727,-0.05014047291053773,0
2728,0.061360234800694594,0
2729,0.008684029524744237,0
2730,0.07095069760075703,0
2731,0.11672707257377288,0
2732,0.08844836088702063,0
2733,0.13591744393394253,0
2734,3.253982407203629,0
2735,6.51309537508488,0
2736,-2.5007794869432187,0
2737,0.9099693741746463,0
2738,-0.24254596175143203,0
2739,0.10818272428105984,0
2740,0.03364866343236225,0
2741,0.053038830342895894,0
2742,0.00768317835839738,0
2743,-0.0357955967821182,0
2744,0.1114221712218695,0
2745,-0.010706434784237023,0
2746,0.032526543863914036,0
2747,0.0776196584785585,0
2748,0.01834470332043553,0
2749,0.07538852609007848,0
2750,0.3750225029762123,0
2751,5.315097255375214,0
2752,3.8069195658841273,0
2753,-2.8598399086874355,0
2754,1.5770427839942025,0
2755,-0.7628731979760419,0
2756,0.33534467170528426,0
2757,-0.07456505562759413,0
2758,0.016175874438954102,0
2759,-0.010606664237112737,0
2760,0.0734984004654172,0
2761,0.14740720554090309,0
2762,-0.003619854838411901,0
2763,-0.06730129096010211,0
2764,0.055455594135252785,0
2765,0.06747774041441366,0
2766,0.06702513324081501,0
2767,1.5154279118131777,0
2768,6.874463778890047,0
2769,0.20755630429590932,0
2770,-1.1639029463624757,0
2771,0.8908622390779974,0
2772,-0.43935220275893166,0
2773,0.2249334722374724,0
2774,-0.00639981538952444,0
2775,0.0714238297898228,0
2776,0.023449522614296447,0
2777,-0.06844007025399934,0
2778,0.056663353201474545,0
2779,0.09813286975611901,0
2780,0.001041895269178833,0
2781,0.06251284364297464,0
2782,0.06542600160856714,0
2783,0.12548042039143525,0
2784,3.202735636207855,0
2785,6.460002969039613,0
2786,-2.5137352343703476,0
2787,0.837067686944931,0
2788,-0.2749346914787282,0
2789,0.060104857523306215,0
2790,0.013343151272248228,0
2791,0.11993381786305773,0
2792,-0.14020237964388862,0
2793,-0.0709195217385668,0
2794,0.06965181436809778,0
2795,0.035995169518224554,0
2796,-0.005165636409080259,0
2797,0.08564138288104121,0
2798,-0.03568697965856049,0
2799,0.004750923267517835,0
2800,0.44001759955333963,0
2801,5.379703157576165,0
2802,3.8504246291407807,0
2803,-2.890295410561838,0
2804,1.615837744567747,0
2805,-0.7734356852150445,0
2806,0.3964713152272818,0
2807,-0.14149864251321442,0
2808,0.06586465340192547,0
2809,0.08814613117710264,0
2810,0.049436594655766206,0
2811,0.09271944862508875,0
2812,0.08023622622394189,0
2813,0.05425709380411338,0
2814,0.058732221370112685,0
2815,0.1480695195400094,0
2816,-0.01802995679535835,0
2817,1.4379238590541459,0
2818,6.861067478809645,0
2819,0.261232958052605,0
2820,-1.2175215409164744,0
2821,0.8822319964541947,0
2822,-0.49364778450461044,0
2823,0.20502229607329656,0
2824,0.034919953149019266,0
2825,0.06489251312880999,0
2826,0.0036949743642664436,0
2827,0.08770805649951058,0
2828,0.025760570467320606,0
2829,0.008721720221450934,0
2830,0.044176453871703755,0
2831,0.05098985841761952,0
2832,-0.05015848372840855,0
2833,0.10023737853208133,0
2834,3.280105418960384,0
2835,6.517481539167534,0
2836,-2.58751495530542,0
2837,0.8907056141699791,0
2838,-0.23275883658213203,0
2839,0.08976127841272925,0
2840,0.10143377536514019,0
2841,0.0025865976999947596,0
2842,0.04123751215488121,0
2843,0.009014994220838016,0
2844,0.017331268258385296,0
2845,-0.01575624021631261,0
2846,0.05993527957485878,0
2847,0.07857450547235578,0
2848,0.017399083225305704,0
2849,0.1086677751831695,0
2850,0.5650620472763802,0
2851,5.400265293213711,0
2852,3.91706539377643,0
2853,-2.779931032742865,0
2854,1.5698965274375662,0
2855,-0.7706590635765665,0
2856,0.4073839902420325,0
2857,-0.08258942188369683,0
2858,0.01568523845726332,0
2859,-0.017923869110394855,0
2860,-0.005018028076446114,0
2861,-0.08526764104758544,0
2862,0.07477666173400874,0
2863,-0.014913596409180996,0
2864,-0.0132403163241533,0
2865,0.019105145337528943,0
2866,-0.004390853618808085,0
2867,1.5444448786300737,0
2868,6.914301053286131,0
2869,0.18403402168449934,0
2870,-1.180713563727099,0
2871,0.919037023737861,0
2872,-0.4466252822389364,0
2873,0.27665069896802597,0
2874,-0.037486137349696386,0
2875,0.11444186563004088,0
2876,0.06993270777296343,0
2877,0.03338518612564595,0
2878,0.017782390813493032,0
2879,0.018974773455169264,0
2880,0.000489204206626917,0
2881,0.03915405746525838,0
2882,0.16091158860105198,0
2883,0.19886679908841884,0
2884,3.187688199652468,0
2885,6.382207141914824,0
2886,-2.5954457237241044,0
2887,0.8496906769990675,0
2888,-0.32148546435783126,0
2889,0.13589525730433952,0
2890,0.002421564185587744,0
2891,0.004478337749337227,0
2892,0.012483010466947293,0
2893,0.036782719688045966,0
2894,0.01029075357636992,0
2895,0.055860729229047584,0
2896,0.01276557435242732,0
2897,-0.011182102383052336,0
2898,0.00012048963578603286,0
2899,0.004218293181868844,0
2900,0.4185535124951371,0
2901,5.398147026489834,0
2902,3.7532453647238753,0
2903,-2.8870396777242786,0
2904,1.4780222889788444,0
2905,-0.7727765913508092,0
2906,0.3378668127957884,0
2907,-0.10284769670291835,0
2908,-0.03090476954528469,0
2909,0.0007088804262375473,0
2910,0.03205885004023924,0
2911,-0.03975248819543375,0
2912,0.02596066622098543,0
2913,-0.0167436629062725,0
2914,-0.08589902849934172,0
2915,0.054256095240922446,0
2916,-0.03384056171038794,0
2917,1.4789403185068377,0
2918,6.907671295602971,0
2919,0.1835298469440905,0
2920,-1.0353811503658914,0
2921,0.8792997728542346,0
2922,-0.3998704885561834,0
2923,0.13805585429304368,0
2924,-0.021321247586703833,0
2925,0.026737942454040577,0
2926,0.13453276569795564,0
2927,0.09113668998413413,0
2928,0.11160030164000853,0
2929,0.07935959412801749,0
2930,0.05896093308974673,0
2931,0.03271060810338019,0
2932,0.012819137523628597,0
2933,0.10895789617439555,0
2934,3.316419163649718,0
2935,6.413921055669592,0
2936,-2.6113614874139905,0
2937,0.8576725175913598,0
2938,-0.29436975524820785,0
2939,0.07325906034054616,0
2940,0.00016629388885712817,0
2941,0.028072648502839585,0
2942,-0.03905635890051848,0
2943,-0.03210837297319338,0
2944,0.007244087264984295,0
2945,0.10421404511094816,0
2946,0.026410805085656096,0
2947,0.02045400393342998,0
2948,0.07599519255947283,0
2949,0.027209672918897337,0
2950,0.48020484914236716,0
2951,5.423213082832691,0
2952,3.8138303003987377,0
2953,-2.8368015360717487,0
2954,1.6867499940016855,0
2955,-0.7820821238109326,0
2956,0.43523728445064624,0
2957,-0.08793715899206728,0
2958,0.0011548789119480984,0
2959,-0.014332000598943937,0
2960,0.050966176522716566,0
2961,0.05860765135720311,0
2962,0.0661744528715717,0
2963,-0.01171860307334303,0
2964,0.0004599509648934748,0
2965,0.029464204126906646,0
2966,0.027556561477259107,0
2967,1.5039091504700035,0
2968,6.843750634092058,0
2969,0.12725765187720492,0
2970,-1.1702228591098003,0
2971,0.8839141730123655,0
2972,-0.4443595405914927,0
2973,0.21654458349988048,0
2974,-0.12151987934721209,0
2975,0.09645138785915762,0
2976,-0.017931401247391947,0
2977,0.04001934840516578,0
2978,-0.033132185936712494,0
2979,0.07172461632341263,0
2980,-0.058050283181961426,0
2981,-0.04390528540132724,0
2982,0.017676347159907835,0
2983,0.07689905039322735,0
2984,3.2555758501320757,0
2985,6.4276359966398084,0
2986,-2.545999111201282,0
2987,0.9491871605172841,0
2988,-0.22587812705777507,0
2989,0.16744581149464052,0
2990,0.03658415533740382,0
2991,0.10092994112268719,0
2992,0.09324717491434521,0
2993,0.06599076948339352,0
2994,0.07169507424728408,0
2995,-0.008499283961486755,0
2996,0.04686605826613989,0
2997,0.025505084627908695,0
2998,-0.00953348503347412,0
2999,0.09237853640250074,0
3000,0.4968399886628973,0
3001,5.464644424497054,0
3002,3.8520009306309704,0
3003,-2.8178105051836613,0
3004,1.6414155236839432,0
3005,-0.7836468408224875,0
3006,0.39844491864682124,0
3007,-0.13348389228885219,0
3008,0.02480239780310338,0
3009,0.011305030259337746,0
3010,0.07582748239984363,0
3011,-0.0232733713549739,0
3012,0.07203552472671028,0
3013,0.08110860674746845,0
3014,0.07649901477183335,0
3015,0.0018562749604285195,0
3016,0.1348212480354337,0
3017,1.607605441125078,0
3018,6.896234703175212,0
3019,0.20856847461876457,0
3020,-1.0796678984605246,0
3021,0.8675620002140905,0
3022,-0.5223953565000983,0
3023,0.24049218520583832,0
3024,0.0515538809501393,0
3025,0.06956841415056075,0
3026,0.022628162061715834,0
3027,0.007181748275837911,0
3028,0.0123868346514893,0
3029,0.02523042780976366,0
3030,0.026792567177212984,0
3031,0.060695057781239944,0
3032,-0.08745661257003358,0
3033,0.0672433120043679,0
3034,3.234854460757819,0
3035,6.428017823728681,0
3036,-2.621567893874401,0
3037,0.9565452086901791,0
3038,-0.27204655447114945,0
3039,0.10304203609160834,0
3040,-0.07084297567519801,0
3041,0.06277650291936092,0
3042,0.027702334997893735,0
3043,0.052768161980593226,0
3044,0.03374621897381447,0
3045,-0.0060648710523411135,0
3046,0.004705313878093708,0
3047,0.013616825087884022,0
3048,-0.025487407382911758,0
3049,-0.047392913818595395,0
3050,0.5015498425682503,0
3051,5.412723581978564,0
3052,3.7138028894206756,0
3053,-2.750670253353796,0
3054,1.5694318486382444,0
3055,-0.7670069071750255,0
3056,0.34486782422193824,0
3057,-0.1351445106234289,0
3058,0.007732208355537902,0
3059,-0.03044086954333864,0
3060,-0.020074426492505466,0
3061,0.09464488596370249,0
3062,0.06527284706443004,0
3063,-0.04860866480881081,0
3064,-0.0284838992807663,0
3065,0.05251220548528131,0
3066,0.04795239239435382,0
3067,1.415871132946285,0
3068,6.922121921155286,0
3069,0.03690438665069098,0
3070,-1.0459056633911847,0
3071,0.8502003533261115,0
3072,-0.4996613176561062,0
3073,0.1186283773069701,0
3074,-0.0038784326725035054,0
3075,0.04533578689956809,0
3076,0.0071297686063379155,0
3077,-0.03816117744394884,0
3078,-0.03649887484677167,0
3079,-0.05501242840860924,0
3080,-0.00907148539502009,0
3081,-0.046264030683251384,0
3082,-0.0660055580931141,0
3083,0.006890801344976424,0
3084,3.2317715568273373,0
3085,6.3352659886016065,0
3086,-2.6187551211301754,0
3087,0.9307281467876729,0
3088,-0.2599249369465156,0
3089,0.08730053212306232,0
3090,0.03331959120248505,0
3091,0.05964545462455448,0
3092,-0.04153973117368799,0
3093,0.12309741934123976,0
3094,-0.024902076345107806,0
3095,0.16671398905455476,0
3096,0.065165382096255,0
3097,-0.0030201364605546357,0
3098,0.01835350629415631,0
3099,0.06508519293210915,0
3100,0.4858258394816794,0
3101,5.498823453184146,0
3102,3.8571281519854814,0
3103,-2.788430478611095,0
3104,1.599043723935219,0
3105,-0.7664845217674933,0
3106,0.40917452951488026,0
3107,-0.09709091358962682,0
3108,0.019519644570356917,0
3109,-0.003435893731387578,0
3110,0.07536830625874709,0
3111,-0.02891894207794775,0
3112,0.08090397590041734,0
3113,0.0510126647069372,0
3114,0.10069221320165125,0
3115,-0.0062703418389456304,0
3116,0.02262156994438812,0
3117,1.5033086153657405,0
3118,6.912630617057295,0
3119,0.048577047342319414,0
3120,-1.0942600477322662,0
3121,0.8342300957081478,0
3122,-0.35774607051606977,0
3123,0.10289292551099856,0
3124,-0.115126131113289,0
3125,-0.014274461134349764,0
3126,-0.0010801244386807358,0
3127,-0.0036577228065925,0
3128,0.08493340886003535,0
3129,-0.09935855034032973,0
3130,-0.07897335952419499,0
3131,0.02083635239562428,0
3132,-0.042871630062052656,0
3133,0.11423979594801496,0
3134,3.404819649748869,0
3135,6.438880425643895,0
3136,-2.7233042168533297,0
3137,0.9560283905732883,0
3138,-0.21395101047654985,0
3139,0.18261359073378483,0
3140,0.0949484103860799,0
3141,0.1685920882429418,0
3142,0.07200653722834251,0
3143,0.08464875628506696,0
3144,0.122668509779114,0
3145,0.04526827425235207,0
3146,0.04099229201911417,0
3147,0.1094262692254851,0
3148,0.1975216611212867,0
3149,0.032902699652663646,0
3150,0.4973020722347738,0
3151,5.467527856777962,0
3152,3.6864137581518146,0
3153,-2.7647393948047805,0
3154,1.5880368038593622,0
3155,-0.7787079343815395,0
3156,0.2920810362406318,0
3157,-0.14960268504639496,0
3158,0.05799152818551045,0
3159,-0.04489242350928389,0
3160,0.11459661585921097,0
3161,-0.05243309124396289,0
3162,-0.04169573099499717,0
3163,-0.07187558010301401,0
3164,-0.05704836149846577,0
3165,0.0638958827747833,0
3166,-0.04350113534810583,0
3167,1.4972032770671768,0
3168,6.845566253354865,0
3169,0.0328953202930804,0
3170,-1.0787727628390058,0
3171,0.8408014387087953,0
3172,-0.39048169905569546,0
3173,0.23955164383226846,0
3174,0.0045539029291684074,0
3175,0.015408585226990368,0
3176,-0.02530734832457792,0
3177,-0.04667114297001669,0
3178,0.027900515268208435,0
3179,0.017669532438613304,0
3180,0.039783031926900636,0
3181,-0.09089348045671641,0
3182,0.004215875081856557,0
3183,0.07549838079654178,0
3184,3.2671315781118384,0
3185,6.4656482200283945,0
3186,-2.5986667653790305,0
3187,0.926787833633298,0
3188,-0.33892788805037555,0
3189,0.03748547101864719,0
3190,-0.1825847332425476,0
3191,0.050853381925814505,0
3192,-0.062032465304018666,0
3193,-0.05453807958085486,0
3194,0.05430798424421981,0
3195,-0.07065411299105417,0
3196,-0.022620395436150978,0
3197,-0.008298013838889782,0
3198,0.053092049408949814,0
3199,0.002583259686873108,0
3200,0.5508125740869725,0
3201,5.458779137356192,0
3202,3.6656065590309836,0
3203,-2.793790022837341,0
3204,1.6269087065350203,0
3205,-0.8086519721995326,0
3206,0.3497321839820094,0
3207,-0.08767324859784573,0
3208,-0.0384356822386524,0
3209,0.03996619343086154,0
3210,-0.03140413624121405,0
3211,-0.026959933837131397,0
3212,-0.00012586412512695377,0
3213,-0.05597469355241333,0
3214,0.04423543676000308,0
3215,-0.06277462233867481,0
3216,-0.08081275846180191,0
3217,1.4670288182858469,0
3218,6.868629598612102,0
3219,-0.00787593412062721,0
3220,-1.0796734809224564,0
3221,0.7939628312067556,0
3222,-0.4585684586135711,0
3223,0.07653950807681383,0
3224,-0.10959822260099214,0
3225,-0.03414284956939397,0
3226,-0.016377039487122744,0
3227,0.054405395095228584,0
3228,-0.01577032282686934,0
3229,-0.03803986863501217,0
3230,0.02068045695426131,0
3231,-0.051810577076519454,0
3232,0.08082539588480603,0
3233,0.026872583327829217,0
3234,3.2451974948488913,0
3235,6.2608738030338165,0
3236,-2.7301465748237757,0
3237,0.93067233174401,0
3238,-0.3132452049480101,0
3239,0.06287685558137561,0
3240,-0.14432407813731038,0
3241,-0.016985663226824304,0
3242,-0.031338536441692606,0
3243,-0.08207767728548387,0
3244,-0.01124685241621955,0
3245,0.04078824341747874,0
3246,-0.06484382746046147,0
3247,-0.03268442162471038,0
3248,0.08712197414840199,0
3249,-0.039540946329429366,0
3250,0.5059184559515452,0
3251,5.4923714699294806,0
3252,3.677538455765323,0
3253,-2.6842398012135513,0
3254,1.5261253817802383,0
3255,-0.856221550447526,0
3256,0.2577763751226213,0
3257,-0.2094847609958082,0
3258,0.010280571289635786,0
3259,-0.1450355524616178,0
3260,-0.12740876643073212,0
3261,0.03009875516463683,0
3262,-0.0822782825081936,0
3263,-0.09252587638199591,0
3264,0.005846531369911423,0
3265,0.07121163572841036,0
3266,-0.042362471269449364,0
3267,1.5421432535548516,0
3268,6.927706883148034,0
3269,0.06098852528268031,0
3270,-1.0676663315541386,0
3271,0.8478808935500327,0
3272,-0.49071295114078295,0
3273,0.19578460698102293,0
3274,-0.011327863819734475,0
3275,0.09962884445640567,0
3276,-0.0036475837926769894,0
3277,-0.049943936746153876,0
3278,-0.0328564022483521,0
3279,0.04986648392374498,0
3280,-0.05211708502264468,0
3281,0.057779651105496564,0
3282,0.07796410427365237,0
3283,0.00046165226010125293,0
3284,3.334491461730292,0
3285,6.285798893839071,0
3286,-2.589319423751628,0
3287,1.005539790554059,0
3288,-0.2803161175989081,0
3289,0.0769786951604575,0
3290,-0.03594907733681129,0
3291,-0.0006845471961185769,0
3292,-0.043802199817171525,0
3293,-0.016345455366725332,0
3294,-0.09570243795454605,0
3295,-0.05620419585624068,0
3296,-0.10650089516587623,0
3297,-0.0466165222973837,0
3298,-0.012682394347428905,0
3299,-0.07525678409287606,0
3300,0.4187972900894505,0
3301,5.424611399565131,0
3302,3.501519760395291,0
3303,-2.8889167935725135,0
3304,1.4637704060276033,0
3305,-0.9519455769396242,0
3306,0.2441108393055584,0
3307,-0.14471163089625633,0
3308,-0.09317162509150083,0
3309,-0.04187231443607741,0
3310,-0.02393785272122997,0
3311,-0.005820917241174523,0
3312,0.06463507648116099,0
3313,0.05219652595511278,0
3314,-0.009571821194741688,0
3315,0.023931167820797433,0
3316,0.06597418926357103,0
3317,1.5423492029971013,0
3318,6.8379449875120075,0
3319,0.009239528905296595,0
3320,-1.0900466106416147,0
3321,0.857931478466457,0
3322,-0.43778924257572216,0
3323,0.21117265439045357,0
3324,-0.0923944042681532,0
3325,0.04771506005896447,0
3326,0.018072850550444077,0
3327,-0.0010845257783251207,0
3328,0.032214215144064196,0
3329,0.005020765019545205,0
3330,-0.070471277754691,0
3331,-0.05580932067827688,0
3332,-0.05860358540420543,0
3333,-0.005586164865547874,0
3334,3.375373683915898,0
3335,6.270471105544977,0
3336,-2.6522546060425323,0
3337,0.9794269187040364,0
3338,-0.3383793781456414,0
3339,0.1802410624150651,0
3340,0.014290871339185326,0
3341,0.07313051438685386,0
3342,0.008322656489444627,0
3343,0.057307183513755355,0
3344,0.03505990808173589,0
3345,-0.03545060462432961,0
3346,0.06780996704349372,0
3347,0.02490033287734595,0
3348,-0.022524690523294817,0
3349,0.02069588543269535,0
3350,0.474860728082069,0
3351,5.394665611556008,0
3352,3.636758835983747,0
3353,-2.7938416095400824,0
3354,1.5399441509330583,0
3355,-0.7942479165591647,0
3356,0.407305746994647,0
3357,-0.11183522066716936,0
3358,0.053258592415162204,0
3359,0.03942106633152126,0
3360,-0.03581913317095071,0
3361,0.06372389139827642,0
3362,0.0241724469769277,0
3363,0.14785581056555952,0
3364,-0.04713818008596267,0
3365,0.009301732456832506,0
3366,0.09509480225402561,0
3367,1.5173997168825177,0
3368,6.899793206227455,0
3369,-0.09724989529384295,0
3370,-1.0608408120204098,0
3371,0.7455646042610075,0
3372,-0.41886178652457456,0
3373,0.15493605848950986,0
3374,-0.08056986159780093,0
3375,-0.06089499749434202,0
3376,-0.08080109898154333,0
3377,-0.05997194169438096,0
3378,0.006317419306202311,0
3379,-0.0829917758217085,0
3380,0.07167871816857985,0
3381,0.04904818159671176,0
3382,0.004602244601638942,0
3383,0.0658804189086417,0
3384,3.4295210891198513,0
3385,6.288342171123358,0
3386,-2.623103545811598,0
3387,1.024003723373591,0
3388,-0.29464124132056896,0
3389,0.10226431431461412,0
3390,0.027752988367046885,0
3391,0.05018978439616607,0
3392,0.025506601485519816,0
3393,0.025421765968416433,0
3394,0.05647092657948364,0
3395,0.0020438778535848646,0
3396,-0.026362861991848344,0
3397,-0.05336856890923185,0
3398,-0.009805960095588546,0
3399,-0.05032802606085331,0
3400,0.5534043181197079,0
3401,5.487314751943035,0
3402,3.597909914478264,0
3403,-2.7948617043381963,0
3404,1.6100778071623854,0
3405,-0.9368476532336528,0
3406,0.354318893909137,0
3407,-0.0849832383195118,0
3408,-0.019062167768075435,0
3409,-0.005861342954347699,0
3410,0.06841236349774979,0
3411,-0.0385047095634651,0
3412,0.03697471247589261,0
3413,0.04484855574804087,0
3414,0.0818871188935141,0
3415,0.0009235619853525486,0
3416,0.02447513388038412,0
3417,1.5052104623741627,0
3418,6.8414626147786795,0
3419,-0.08711030262376074,0
3420,-1.0639450273713018,0
3421,0.7855269826359281,0
3422,-0.3784439760266214,0
3423,0.13079406928661674,0
3424,-0.1201071623811696,0
3425,-0.11794661504630936,0
3426,-0.06859163707366145,0
3427,-0.08825380528128059,0
3428,-0.022341627118542914,0
3429,-0.013929842914395238,0
3430,-0.008175875799332016,0
3431,-0.1316604776877773,0
3432,-0.05608333501174964,0
3433,0.008842910247502757,0
3434,3.4058116760896504,0
3435,6.254828441362226,0
3436,-2.7878596337067885,0
3437,0.9222313042857345,0
3438,-0.3753260649224474,0
3439,0.07966541925743004,0
3440,-0.046908962599264636,0
3441,0.008517497813502174,0
3442,-0.009492043542460929,0
3443,-0.046229773501866966,0
3444,0.0007642947759136205,0
3445,0.017044606037134348,0
3446,-0.027472145588083773,0
3447,0.02043405550577235,0
3448,0.016855600743689036,0
3449,-0.02373249609285776,0
3450,0.48537541194166167,0
3451,5.6084525722710525,0
3452,3.594868649403655,0
3453,-2.7952902783808145,0
3454,1.5792953607846074,0
3455,-0.8677129933775758,0
3456,0.22877460269325622,0
3457,-0.1369586392262825,0
3458,-0.08514119008744313,0
3459,0.0002768175381619026,0
3460,-0.1568163173212495,0
3461,-0.04225697057388955,0
3462,-0.11474738116200459,0
3463,-0.11512801043716564,0
3464,-0.135129499050214,0
3465,-0.018497393612631037,0
3466,0.022743832766973685,0
3467,1.5763326501519255,0
3468,6.847874131590128,0
3469,-0.1302253999999549,0
3470,-0.9408861561962641,0
3471,0.824190394970958,0
3472,-0.4320570950921891,0
3473,0.1974861888712234,0
3474,0.054874888617527,0
3475,0.05260935306738758,0
3476,0.09008245714823371,0
3477,0.008277317120447604,0
3478,0.06145675317046912,0
3479,-0.05410123931821858,0
3480,-0.054433275487495124,0
3481,-0.0804160403123009,0
3482,-0.02676471756414187,0
3483,0.07850640453725129,0
3484,3.3846930089310567,0
3485,6.300453089567081,0
3486,-2.774294355175929,0
3487,0.974568168980803,0
3488,-0.4523870976615475,0
3489,0.07703250414317048,0
3490,-0.07762045105907191,0
3491,0.0033183393511842067,0
3492,-0.10619122402605387,0
3493,-0.008019052225013028,0
3494,-0.06892813601981934,0
3495,-0.027282512676941408,0
3496,-0.08848471973799146,0
3497,0.038770012647729696,0
3498,-0.0367603507999313,0
3499,-0.012438659423838403,0
3500,0.5426233616863978,0
3501,5.566700257144531,0
3502,3.4955359331314693,0
3503,-2.7373836772257536,0
3504,1.5456051191480125,0
3505,-0.7879893725323437,0
3506,0.33432309006502037,0
3507,-0.08935818266316638,0
3508,-0.0366380557159479,0
3509,-0.054121953339017925,0
3510,0.00032965324367285886,0
3511,0.050038781202113546,0
3512,0.08258914494299069,0
3513,0.018187428083697627,0
3514,0.0037513934921763747,0
3515,0.055753201105116335,0
3516,0.04188054268394629,0
3517,1.65326150466036,0
3518,6.972914803947002,0
3519,-0.18619393861863853,0
3520,-0.9809306804692114,0
3521,0.6789097366823497,0
3522,-0.4263862355408895,0
3523,0.2137416129226755,0
3524,-0.1318110370373323,0
3525,-0.06163760870510505,0
3526,0.04463947344014856,0
3527,-0.06976726919654863,0
3528,0.022935043338906724,0
3529,-0.061364335265118794,0
3530,-0.0027843085512551,0
3531,-0.03640222572679721,0
3532,-0.010004560321824665,0
3533,0.08194773380417279,0
3534,3.4882482625414335,0
3535,6.2343461029608935,0
3536,-2.6609171513518417,0
3537,0.9905052204174392,0
3538,-0.36634866063807786,0
3539,0.1863650953672815,0
3540,-0.028571333366207402,0
3541,0.02978349318503004,0
3542,-0.07159706569907386,0
3543,0.0017028273342380128,0
3544,-0.024418283699802604,0
3545,0.027722927351345083,0
3546,0.025826787170563425,0
3547,-0.06743968840884021,0
3548,-0.007430991109871984,0
3549,-0.041005682732633095,0
3550,0.45479091444835906,0
3551,5.493132819274259,0
3552,3.4687358964991226,0
3553,-2.711456692907032,0
3554,1.5351532077071235,0
3555,-0.8588068450786859,0
3556,0.3206308600187475,0
3557,-0.1386129280908971,0
3558,0.0036549210736070564,0
3559,-0.056621228188630156,0
3560,0.04031641199548562,0
3561,-0.029529127858638354,0
3562,-0.028972054239441034,0
3563,-0.02070945503977423,0
3564,0.028726798321614806,0
3565,-0.06034179027672447,0
3566,-0.055240735024387644,0
3567,1.6321377143399658,0
3568,6.9239405552090645,0
3569,-0.176856899604749,0
3570,-1.1143323236116078,0
3571,0.7466877990035707,0
3572,-0.35908992557564723,0
3573,0.19065312730366735,0
3574,-0.11186825673064618,0
3575,0.05791644979395466,0
3576,0.03540469135844655,0
3577,0.01800715486712239,0
3578,0.05560716226964545,0
3579,-0.0005136171115347051,0
3580,0.07075411570283308,0
3581,0.04167905201759769,0
3582,-0.020921530795998518,0
3583,0.17532818029669328,0
3584,3.5397435102251396,0
3585,6.2673611737059325,0
3586,-2.665163449300718,0
3587,1.0649458316792433,0
3588,-0.3907565776526804,0
3589,0.17505796314775243,0
3590,-0.03638396499227396,0
3591,0.034595314297439755,0
3592,-0.00445493694570924,0
3593,0.07720512293656376,0
3594,-0.05060613000277843,0
3595,0.034805077763175034,0
3596,-0.05412233501523067,0
3597,0.0214035653978224,0
3598,-0.018750580887259363,0
3599,0.0619708773882212,0
3600,0.5590467370323408,0
3601,5.621789984312598,0
3602,3.513398327631259,0
3603,-2.691074476486099,0
3604,1.5257354072791918,0
3605,-0.6829340168612028,0
3606,0.2396496468344469,0
3607,-0.09075217113574487,0
3608,0.05080675713120759,0
3609,0.039830606629363156,0
3610,0.04263347262855524,0
3611,-0.07455391742295757,0
3612,0.052961998152084085,0
3613,0.02164648192915493,0
3614,-0.0476769893304782,0
3615,0.039302113190536815,0
3616,-0.029910239588509843,0
3617,1.631742526506951,0
3618,6.872002907354205,0
3619,-0.2082716111845943,0
3620,-0.9925235538377203,0
3621,0.7763535854656137,0
3622,-0.48236126675147073,0
3623,0.1396392005443453,0
3624,-0.04061487378688399,0
3625,-0.08967523464484216,0
3626,-0.0192400487878029,0
3627,-0.01189310578466497,0
3628,0.08786561149039832,0
3629,-0.01622837957591622,0
3630,-0.0058979065360295554,0
3631,0.09275580704005379,0
3632,0.09254474779540692,0
3633,0.2210498149478731,0
3634,3.4465296947470856,0
3635,6.2342319117736,0
3636,-2.7849242419393345,0
3637,0.9436294277792588,0
3638,-0.34866200276010717,0
3639,0.04463736318958187,0
3640,-0.07484400016187037,0
3641,-0.016420705112585192,0
3642,-0.09810580177168537,0
3643,0.004916128657817251,0
3644,-0.06795705708517899,0
3645,-0.11885461852400538,0
3646,-0.09752096354328053,0
3647,-0.025726010690585666,0
3648,-0.08240927675970786,0
3649,-0.1108865029117401,0
3650,0.5558362838091614,0
3651,5.517984941323824,0
3652,3.4197897032092706,0
3653,-2.782464195713235,0
3654,1.627187927295526,0
3655,-0.7597266016162999,0
3656,0.2891439307272031,0
3657,-0.09154583654210759,0
3658,-0.0014008645983983395,0
3659,-0.02684190854872028,0
3660,0.07064949946776884,0
3661,0.07012037590938008,0
3662,0.026263911719400852,0
3663,-0.029118128625070523,0
3664,-0.056316193908212624,0
3665,0.020903985366234046,0
3666,-0.04368364833032523,0
3667,1.6312098232692718,0
3668,6.867299809623361,0
3669,-0.24453039745326977,0
3670,-0.8973064209578289,0
3671,0.6984370957535337,0
3672,-0.40829380652121927,0
3673,0.0569833634223027,0
3674,-0.03243967930046829,0
3675,-0.04483165631430056,0
3676,0.033251332547829845,0
3677,-0.09919258812019434,0
3678,-0.027230132937349903,0
3679,-0.029851060783639943,0
3680,0.07632518356767205,0
3681,-0.05673725518610873,0
3682,0.08672215279434459,0
3683,0.07077838544337726,0
3684,3.467526279012456,0
3685,6.19492693624024,0
3686,-2.675963277470066,0
3687,0.9320442199774348,0
3688,-0.35632127705022487,0
3689,0.09084388776187172,0
3690,0.033757778854947185,0
3691,0.13951298873454315,0
3692,0.07994216653455231,0
3693,-0.06799720782249474,0
3694,0.11137560483985894,0
3695,-0.043739693100970464,0
3696,-0.040876077738039376,0
3697,-0.08214550947746253,0
3698,-0.02093512228732499,0
3699,0.010914467498614293,0
3700,0.527823485982352,0
3701,5.5934993828483215,0
3702,3.525865029234248,0
3703,-2.713734892193585,0
3704,1.4538759150495,0
3705,-0.7671056108246282,0
3706,0.333758746341674,0
3707,-0.06301175777211282,0
3708,0.060665205974607166,0
3709,-0.01401485693763958,0
3710,0.058843400743466584,0
3711,-0.0009384026292996867,0
3712,-0.03584138948921422,0
3713,0.156765219180853,0
3714,0.07007083335060467,0
3715,0.08018803421366659,0
3716,0.027956249735014718,0
3717,1.6133820762307163,0
3718,6.95989812469498,0
3719,-0.17943895431149495,0
3720,-0.9850053032900091,0
3721,0.7534737149809958,0
3722,-0.4461111818973813,0
3723,0.160018254967432,0
3724,-0.04543171403274701,0
3725,0.030845294728689698,0
3726,-0.0035493476113381394,0
3727,0.053943642943465056,0
3728,-0.07731427506653128,0
3729,0.010677597014628783,0
3730,0.010575717507149973,0
3731,0.0345136145311686,0
3732,0.03546558402033682,0
3733,0.16363666183227285,0
3734,3.469491359612412,0
3735,6.174476208126521,0
3736,-2.785319477560736,0
3737,0.927584433081718,0
3738,-0.4509366230017443,0
3739,0.12827123191989992,0
3740,-0.10083740496221955,0
3741,0.02854339147285377,0
3742,-0.09450404998340388,0
3743,-0.18346963120248538,0
3744,-0.06596844727900264,0
3745,-0.04736184814133808,0
3746,-0.05450533035131863,0
3747,0.016056552569469626,0
3748,-0.04528987620566804,0
3749,-0.043337806014070286,0
3750,0.517916302719912,0
3751,5.561578316546187,0
3752,3.3876442200267856,0
3753,-2.737329011674109,0
3754,1.595231098045693,0
3755,-0.8162250770620955,0
3756,0.3009441181689028,0
3757,-0.09339025852356168,0
3758,0.12649271091357803,0
3759,-0.09182130746032187,0
3760,0.05523020394938148,0
3761,0.004323136217607488,0
3762,-0.002646409224851793,0
3763,0.04033541661882858,0
3764,0.05531602884740932,0
3765,0.0017994780917404488,0
3766,0.04332195148491427,0
3767,1.5866928366626982,0
3768,6.840371511884703,0
3769,-0.34138560328885365,0
3770,-0.8809166779093445,0
3771,0.7088004433051744,0
3772,-0.46728280804646927,0
3773,0.18273985420166336,0
3774,-0.030791219231088032,0
3775,-0.025974918962797633,0
3776,-0.13117618271227816,0
3777,-0.08388317104286713,0
3778,-0.019219623396854176,0
3779,0.00669398082905865,0
3780,0.08269797186178175,0
3781,0.03302071979923219,0
3782,0.09035466255511951,0
3783,0.17592404516146132,0
3784,3.5815844227240587,0
3785,6.247605497647658,0
3786,-2.712201525319807,0
3787,1.0730488868875836,0
3788,-0.2992042453101132,0
3789,0.1534978312130162,0
3790,0.027104301982410085,0
3791,0.1331138483641201,0
3792,0.0354364015581108,0
3793,0.09423372368180888,0
3794,0.05406111319578614,0
3795,0.08758969630492426,0
3796,-0.011180954107414185,0
3797,0.020350810713674304,0
3798,-0.05520225569023421,0
3799,-0.02312919348293708,0
3800,0.41884358359757445,0
3801,5.540243832374443,0
3802,3.3717977045596332,0
3803,-2.7890879149243935,0
3804,1.5363400211982878,0
3805,-0.864909156913335,0
3806,0.27867164605459577,0
3807,-0.11005428346736784,0
3808,-0.03210162859000382,0
3809,0.03770345128005183,0
3810,-0.019035492526341,0
3811,0.058107140375434005,0
3812,0.03122472489289931,0
3813,0.08996508308793384,0
3814,0.061868787504966015,0
3815,0.04079551603457335,0
3816,0.08324214938114553,0
3817,1.6269852415799981,0
3818,6.904594860253459,0
3819,-0.24912953461917986,0
3820,-0.8508265495279996,0
3821,0.757569795874657,0
3822,-0.36104722226936437,0
3823,0.17349287726411572,0
3824,-0.00047024417845143926,0
3825,0.05867463807987733,0
3826,0.03909192672758776,0
3827,0.011586203314020915,0
3828,0.007689231501552914,0
3829,-0.009864163946525614,0
3830,-0.06017660151046523,0
3831,0.012831208987861907,0
3832,0.07427059050274176,0
3833,0.07015832991922583,0
3834,3.583036429900384,0
3835,6.226837195310484,0
3836,-2.7162902000871623,0
3837,1.1117978680556602,0
3838,-0.3319976123430959,0
3839,0.21830128848698022,0
3840,-0.032302063806653895,0
3841,-0.014571571222046428,0
3842,0.028544045696989682,0
3843,0.03665504720452925,0
3844,0.10144115895391809,0
3845,0.05422958121257853,0
3846,0.016786598772131976,0
3847,0.10815746854009248,0
3848,0.07465778407918662,0
3849,0.039523808238743185,0
3850,0.6588760699595275,0
3851,5.712891422684709,0
3852,3.3656065242453463,0
3853,-2.5779601668506626,0
3854,1.6741246639323182,0
3855,-0.8127289853277926,0
3856,0.3450201792475713,0
3857,-0.10244594903278181,0
3858,0.010724491012269771,0
3859,0.11363109204023689,0
3860,-0.004514605135726046,0
3861,0.014324864007054815,0
3862,0.062329835859827626,0
3863,0.13935290284308618,0
3864,-0.011627000595268534,0
3865,0.17504863625767633,0
3866,0.09159763598427495,0
3867,1.712638086755145,0
3868,6.904991301236917,0
3869,-0.20174001281371925,0
3870,-0.857566918984975,0
3871,0.7496386508054399,0
3872,-0.3105465121537695,0
3873,0.20205631308344754,0
3874,0.09657631600665423,0
3875,0.18757212919608776,0
3876,0.06735528378750856,0
3877,0.012931234025628284,0
3878,0.0194064710484593,0
3879,0.08671429178868902,0
3880,0.0009188653922615198,0
3881,0.10005116223487433,0
3882,0.023404403909990056,0
3883,0.20195902420849954,0
3884,3.478700556009992,0
3885,6.210797759736162,0
3886,-2.781535409522976,0
3887,1.0897912672982157,0
3888,-0.33404185966506067,0
3889,0.12617302864871557,0
3890,0.024769681141363672,0
3891,0.014202258036453912,0
3892,0.043320689195485464,0
3893,0.1523223180424702,0
3894,0.10631868392866747,0
3895,0.07700717369147007,0
3896,-0.04851441403907093,0
3897,0.09218843939844781,0
3898,0.06444981911965258,0
3899,0.035347446358584764,0
3900,0.5952516551065454,0
3901,5.835356221766459,0
3902,3.4034459002162833,0
3903,-2.602553870271067,0
3904,1.7204777039934507,0
3905,-0.7059081163614189,0
3906,0.3922468469472963,0
3907,-0.019845460517141266,0
3908,0.11570482627129042,0
3909,0.05213607085259582,0
3910,0.14321883641184682,0
3911,0.07201334642547137,0
3912,0.08583549596742812,0
3913,0.019871710051533376,0
3914,0.06433133432252763,0
3915,0.05572717014344769,0
3916,0.12690822933290996,0
3917,1.6400287064055277,0
3918,7.02670215180545,0
3919,-0.2012855039247238,0
3920,-0.8164030816042013,0
3921,0.7904520776984899,0
3922,-0.3977103063717302,0
3923,0.20824588595804094,0
3924,0.057074619076497926,0
3925,0.039418458619659494,0
3926,0.031121385804192218,0
3927,0.062455783124980534,0
3928,0.13619899321646348,0
3929,0.05832580602872453,0
3930,0.06062960732611361,0
3931,0.030104451345968293,0
3932,-0.0011348230821441457,0
3933,0.17876627324611377,0
3934,3.660996269030121,0
3935,6.212845977192469,0
3936,-2.6625066536575135,0
3937,1.1321443800542765,0
3938,-0.31076180850913593,0
3939,0.17483738427410955,0
3940,0.029114858677164502,0
3941,0.07364146242998271,0
3942,0.05287123183804146,0
3943,-0.010598277049637665,0
3944,0.06427337725484605,0
3945,0.0714814347815523,0
3946,0.004526207123965988,0
3947,0.08053624274119382,0
3948,0.02140393765818136,0
3949,-0.013309329446374835,0
3950,0.5987858718446554,0
3951,5.772547391733693,0
3952,3.3612879741097195,0
3953,-2.5571896910803105,0
3954,1.6275666061283192,0
3955,-0.6642426976542928,0
3956,0.45199001130917205,0
3957,-0.03204832977760444,0
3958,0.09978347917933339,0
3959,-0.03842127919171205,0
3960,-0.004325150762999247,0
3961,0.021981313816066234,0
3962,-0.030892897210773228,0
3963,-0.014096862710902276,0
3964,-0.020494425161374938,0
3965,0.010525796179339492,0
3966,0.020271227581611446,0
3967,1.628790383696179,0
3968,6.933438343267959,0
3969,-0.2876238525415889,0
3970,-0.8092643460345322,0
3971,0.7870565693568246,0
3972,-0.3723093688645958,0
3973,0.295531608119236,0
3974,0.12334241359849438,0
3975,0.07142339835706392,0
3976,0.025007959881065626,0
3977,0.17105211087083613,0
3978,0.09990461056275907,0
3979,0.06185308913714637,0
3980,0.09325076637422683,0
3981,0.09429240562884644,0
3982,0.03399815628085462,0
3983,0.10039009033302722,0
3984,3.627701500692253,0
3985,6.228491406385652,0
3986,-2.79826431128879,0
3987,1.0992912738911869,0
3988,-0.4237719293394847,0
3989,0.2146939139620268,0
3990,-0.02708419217597722,0
3991,0.034092620864873774,0
3992,-0.0069053373412396625,0
3993,0.02916656195198139,0
3994,0.02743531322660077,0
3995,0.05332556125391251,0
3996,-0.015318766502029499,0
3997,0.03616082024863465,0
3998,0.1191576197914532,0
3999,0.03888736829893655,0
4000,0.7551599179250051,0
4001,5.725975088732222,0
4002,3.386838246255247,0
4003,-2.6558715046988564,0
4004,1.5998501721541507,0
4005,-0.7499986563994145,0
4006,0.3945620671377298,0
4007,-0.08204132493426718,0
4008,0.10543367102359757,0
4009,-0.007276433540313373,0
4010,0.1019492978486804,0
4011,0.04827156073660592,0
4012,-0.07893825778128849,0
4013,-0.02748484107424784,0
4014,0.03124100381122103,0
4015,0.049707309641719176,0
4016,0.018180697178273045,0
4017,1.6499378432036793,0
4018,6.972095516529671,0
4019,-0.3645144075163639,0
4020,-0.7874063218144305,0
4021,0.7169935825975868,0
4022,-0.3952882486902024,0
4023,0.19750718770950892,0
4024,-0.10606147040301984,0
4025,-0.04625161951855768,0
4026,-0.009940760343324098,0
4027,-0.010444082426249553,0
4028,0.02619555893392212,0
4029,0.08848839173507264,0
4030,-0.04232979115504898,0
4031,-0.02709395065302231,0
4032,0.04805153354323532,0
4033,0.2275283054689914,0
4034,3.6296582174832532,0
4035,6.2055805724804545,0
4036,-2.7593922328080835,0
4037,1.1298051508567744,0
4038,-0.39918901986913646,0
4039,0.2172765004736931,0
4040,-0.04218979048000586,0
4041,0.11448456755717977,0
4042,-0.06594295779175308,0
4043,-0.0445696213918265,0
4044,0.0002020331001152025,0
4045,-0.060389816601786536,0
4046,-0.06573470720537232,0
4047,-0.06613954583764382,0
4048,-0.01914519044715419,0
4049,0.019925447052714526,0
4050,0.5308379243799726,0
4051,5.645233296460551,0
4052,3.211046690678542,0
4053,-2.710804684130266,0
4054,1.6133419427477516,0
4055,-0.7915441462470229,0
4056,0.2987566464567422,0
4057,-0.1293018835899449,0
4058,0.07490809155943026,0
4059,0.004925355351558059,0
4060,-0.02266526864999225,0
4061,-0.006951227125544773,0
4062,-0.02568656590302086,0
4063,0.04621852194416867,0
4064,0.020173941658333694,0
4065,0.0034486929705974598,0
4066,0.004103460506780239,0
4067,1.6881692998275568,0
4068,6.940478446047016,0
4069,-0.38769314514308,0
4070,-0.7622525247938039,0
4071,0.6330534026417491,0
4072,-0.3289917654207245,0
4073,0.09016433849230515,0
4074,-0.06307364062977988,0
4075,0.09135989245804894,0
4076,-0.07177132501290424,0
4077,0.020851794521157,0
4078,-0.04377159701862513,0
4079,0.011791371890128643,0
4080,-0.004304883656392835,0
4081,0.03203264502740395,0
4082,0.06779093328033045,0
4083,0.1388719613502843,0
4084,3.657720059454927,0
4085,6.1860507567569405,0
4086,-2.78025629529979,0
4087,1.1282006368771984,0
4088,-0.36293095335490405,0
4089,0.06687758403176365,0
4090,-0.00650155195997297,0
4091,0.09122449464324538,0
4092,0.08955783197681136,0
4093,0.0752530651928551,0
4094,0.04549340661265712,0
4095,0.02357033594134024,0
4096,-0.02701413805456137,0
4097,0.023313127841929217,0
4098,0.03854281602539828,0
4099,0.11926338106711581,0
4100,0.7049302116556548,0
4101,5.7929096172087915,0
4102,3.316251702783748,0
4103,-2.630948193320264,0
4104,1.7165563693935684,0
4105,-0.6048873771052615,0
4106,0.4196865528262687,0
4107,0.04053090205973764,0
4108,0.13587545207728735,0
4109,0.16562128959502606,0
4110,0.023057582942506635,0
4111,0.12050215045710613,0
4112,0.1297147039696374,0
4113,0.09041822044161854,0
4114,0.08723959077342235,0
4115,0.03800495657492521,0
4116,0.019008419736641545,0
4117,1.7405574712277763,0
4118,7.018476539692948,0
4119,-0.30560728631203404,0
4120,-0.8063266098873813,0
4121,0.7870243761318964,0
4122,-0.3311877401283051,0
4123,0.1773594662416044,0
4124,0.010879456023551972,0
4125,0.09804571880257805,0
4126,0.036512026115786425,0
4127,0.006882048154157709,0
4128,0.01679261091020632,0
4129,0.11049515777300209,0
4130,0.09252120550475292,0
4131,0.03282394242487009,0
4132,-0.032279796033003995,0
4133,0.1168806249654474,0
4134,3.679317709499838,0
4135,6.136868885674995,0
4136,-2.7078767823063457,0
4137,1.136262458863991,0
4138,-0.4158365078409063,0
4139,0.27885896035311725,0
4140,0.10412559819454788,0
4141,0.11094331675507811,0
4142,-0.005797832342161205,0
4143,0.06339592365117659,0
4144,0.03871393549875312,0
4145,0.15822741320142691,0
4146,0.10271070396071129,0
4147,0.10732228684492287,0
4148,0.11086813799264708,0
4149,0.1017083006985266,0
4150,0.6504307084429946,0
4151,5.789063559855216,0
4152,3.2781714185004107,0
4153,-2.6543670297194146,0
4154,1.6983391005819484,0
4155,-0.6599249951240722,0
4156,0.4081646551867693,0
4157,0.025662634060408925,0
4158,0.1429070862094364,0
4159,0.09969892518023751,0
4160,0.09165741615032504,0
4161,0.09726266311525372,0
4162,0.1199593308651912,0
4163,0.08378325574612654,0
4164,0.10335585058822695,0
4165,0.04730577709423843,0
4166,0.15126376481579018,0
4167,1.7930215387668083,0
4168,7.013628709170816,0
4169,-0.37027086518126034,0
4170,-0.7078942447964034,0
4171,0.7131176507594368,0
4172,-0.3546476492443448,0
4173,0.20854235504089724,0
4174,-0.00838031096651339,0
4175,0.005844370061658596,0
4176,0.007487252780038936,0
4177,0.03358508085874833,0
4178,0.04651572702742609,0
4179,0.06760815455988775,0
4180,0.05934339059035587,0
4181,0.04017646428116053,0
4182,0.08414086124452755,0
4183,0.17483867675909592,0
4184,3.6716950834914255,0
4185,6.1861678453797175,0
4186,-2.7348080921450775,0
4187,1.188754506871105,0
4188,-0.3466380374812427,0
4189,0.27283223969004955,0
4190,-0.026568263288496527,0
4191,0.13253353832847123,0
4192,0.12213452757138443,0
4193,0.15074839103260623,0
4194,0.032145103041349384,0
4195,0.046366316129663895,0
4196,-0.03793507816823241,0
4197,0.030781394908209726,0
4198,0.05720219306849599,0
4199,0.07477082883517708,0
4200,0.5782043400757637,0
4201,5.789574966345953,0
4202,3.2134643187569263,0
4203,-2.5831274187598634,0
4204,1.5149305026371678,0
4205,-0.6837617366079293,0
4206,0.3265396242396726,0
4207,-0.027226772193859192,0
4208,0.10852316958266932,0
4209,0.09124258490560427,0
4210,0.12491530743527215,0
4211,0.022257971446836708,0
4212,-0.049511435811057866,0
4213,0.1311146674164583,0
4214,-0.014298459842140593,0
4215,0.1542418404791311,0
4216,0.043234229696911305,0
4217,1.8078903292747088,0
4218,6.875528843973584,0
4219,-0.33090591312612266,0
4220,-0.695080438180543,0
4221,0.7337526093305915,0
4222,-0.30747055813444235,0
4223,0.23007021365722963,0
4224,0.06403553860094163,0
4225,0.06343320451800359,0
4226,0.035904999624990955,0
4227,0.0631854876248815,0
4228,0.05901949067503803,0
4229,0.036648474883552835,0
4230,-0.02423776288748863,0
4231,0.06750109225862762,0
4232,-0.027623134209143953,0
4233,0.18176899354970294,0
4234,3.6780085984388706,0
4235,6.104799131508187,0
4236,-2.833296148123497,0
4237,1.2426052921579347,0
4238,-0.353421362594488,0
4239,0.15664692821514412,0
4240,0.052971809738574224,0
4241,-0.032414364714535765,0
4242,-0.019406206752682488,0
4243,0.019744931684413797,0
4244,-0.021480578119266104,0
4245,0.028697154333068308,0
4246,0.029800388134041397,0
4247,0.005061965214775296,0
4248,0.015540178726747966,0
4249,0.06495313041447577,0
4250,0.6324725694479392,0
4251,5.782010608883975,0
4252,3.3142843675551954,0
4253,-2.6068894118684947,0
4254,1.498903128269479,0
4255,-0.8402895047713876,0
4256,0.31676653164485835,0
4257,-0.10103096238277859,0
4258,-0.045750602616197386,0
4259,-0.001468134809977411,0
4260,0.06058752648333903,0
4261,0.07344866677930288,0
4262,0.08600255630279709,0
4263,0.032264786267221575,0
4264,-0.046870441061127956,0
4265,-0.007958002742183591,0
4266,0.05670437368639174,0
4267,1.8232823251976655,0
4268,7.0406747023074585,0
4269,-0.4521474476287691,0
4270,-0.7672159617170913,0
4271,0.6537413745935475,0
4272,-0.33826742889994016,0
4273,0.17156498125581315,0
4274,-0.04606519571958249,0
4275,-0.0038883517640795826,0
4276,0.020321142597504317,0
4277,-0.06098893054287844,0
4278,0.007549622418964118,0
4279,0.08452656059403135,0
4280,-0.018239831976854637,0
4281,0.0029457389419534673,0
4282,0.07872216320062825,0
4283,0.06752873745985163,0
4284,3.6213391230023055,0
4285,6.005486532140917,0
4286,-2.8440966090745112,0
4287,1.1786768462654431,0
4288,-0.44546307676225294,0
4289,0.1798415559580842,0
4290,-0.02756668160070573,0
4291,0.032483904578587616,0
4292,0.024651043933035934,0
4293,0.05736129413573171,0
4294,0.051558968531636426,0
4295,0.09498028011204537,0
4296,0.032967953560661414,0
4297,0.03168567661217116,0
4298,-0.009839707677820927,0
4299,0.14646387250961443,0
4300,0.7103588906127105,0
4301,5.809998761459868,0
4302,3.04637148159962,0
4303,-2.5791381272891494,0
4304,1.5814232214644024,0
4305,-0.8037066672411324,0
4306,0.39445418722899034,0
4307,-0.13716944415311114,0
4308,0.08519127633280382,0
4309,5.051991058274696e-05,0
4310,0.15133033649351693,0
4311,0.15104721544868005,0
4312,0.0584930677177726,0
4313,0.12379819196901284,0
4314,0.10017595918221125,0
4315,0.056706100829644085,0
4316,0.0015985862307444781,0
4317,1.6887554248084833,0
4318,7.043680191750984,0
4319,-0.49791791800318413,0
4320,-0.7523849374858042,0
4321,0.6660261964499876,0
4322,-0.337923187030679,0
4323,0.16539348830483042,0
4324,-0.07914863416013974,0
4325,3.4844684333616704e-05,0
4326,0.08892643966322748,0
4327,-0.09235157210296605,0
4328,0.07056509134800573,0
4329,-0.03634766474612631,0
4330,0.008393012274844356,0
4331,-0.03717779661447468,0
4332,-0.022499133870946916,0
4333,0.24535058265472975,0
4334,3.700711369368961,0
4335,6.0555615291030565,0
4336,-2.787431483584053,0
4337,1.2149619978642987,0
4338,-0.35137981298441556,0
4339,0.19618603803864249,0
4340,-0.07636127401285575,0
4341,0.12611415958408767,0
4342,-0.04773491645000656,0
4343,0.08175033789095809,0
4344,0.15466584931108118,0
4345,-0.02078989776118574,0
4346,-0.008527422101619941,0
4347,0.029421620055745702,0
4348,0.08260461387138296,0
4349,0.028618202179098433,0
4350,0.6647482977271395,0
4351,5.855591967001438,0
4352,3.1065399055069864,0
4353,-2.574472688381728,0
4354,1.536538621126115,0
4355,-0.7431559156843632,0
4356,0.37558635037472676,0
4357,-0.08742863894202142,0
4358,0.10793614766139017,0
4359,-0.004444582838262157,0
4360,0.02973093682063087,0
4361,0.03199023808094671,0
4362,-0.051830907374913304,0
4363,-0.013078626452600599,0
4364,0.04855186967261875,0
4365,0.02308570529434933,0
4366,0.06126098333260842,0
4367,1.87061686368177,0
4368,6.946776880624477,0
4369,-0.5037867536327421,0
4370,-0.7810490942249528,0
4371,0.7531071082149106,0
4372,-0.26056953666379346,0
4373,0.18349542638869815,0
4374,-0.021544874836399927,0
4375,-0.028870918683549532,0
4376,0.0579955428155212,0
4377,0.035314307718027675,0
4378,0.009977654366065448,0
4379,0.047437447410550164,0
4380,0.11407662377333744,0
4381,0.05138733614063566,0
4382,0.02510448873205482,0
4383,0.13217088186060466,0
4384,3.7511123018742167,0
4385,5.992603517997318,0
4386,-2.737885814615403,0
4387,1.3185908700797984,0
4388,-0.33849580727427053,0
4389,0.22417857303486993,0
4390,0.00798948434652465,0
4391,0.16885492574378053,0
4392,0.07845454567005189,0
4393,0.09700133131927416,0
4394,0.08217473023445086,0
4395,-0.017078882989682152,0
4396,-0.006335784472136632,0
4397,-0.047199211887834915,0
4398,0.09957318271137344,0
4399,0.04375714060947897,0
4400,0.6031572318990746,0
4401,5.743513649186912,0
4402,3.080441536817222,0
4403,-2.61517226460225,0
4404,1.5549892605835638,0
4405,-0.8128173345111899,0
4406,0.3942678925711024,0
4407,-0.055256872232824675,0
4408,0.1028524241782483,0
4409,-0.00022313727351271073,0
4410,0.034763272126107594,0
4411,-0.018296253286990048,0
4412,0.04509516059338926,0
4413,-0.009986885049691932,0
4414,0.03287510735088345,0
4415,0.06034610096125116,0
4416,0.14884256741143656,0
4417,1.7981493048998516,0
4418,7.004159356030268,0
4419,-0.49651436294405515,0
4420,-0.6562797575118815,0
4421,0.637095281118593,0
4422,-0.21115587287218174,0
4423,0.09359452460589882,0
4424,0.043224071483527624,0
4425,0.03645563932083231,0
4426,0.14566021236168836,0
4427,0.09667071820893149,0
4428,0.003378544652220497,0
4429,0.02649677055869748,0
4430,-0.003686159451970622,0
4431,0.0752079375746099,0
4432,0.026383901917150274,0
4433,0.2144428266605282,0
4434,3.7694793284262302,0
4435,6.037643826727896,0
4436,-2.796312468390288,0
4437,1.2498145141092707,0
4438,-0.25174932300690933,0
4439,0.2291604599119198,0
4440,-0.09257629938263351,0
4441,-0.02117434654278369,0
4442,0.07679675834687534,0
4443,-0.04795544946369019,0
4444,0.07832964137126891,0
4445,-0.015958106434748077,0
4446,0.031492919930079924,0
4447,0.05308692716660127,0
4448,0.09369964299431946,0
4449,-0.009462066607821534,0
4450,0.5593707303585762,0
4451,5.779363791213506,0
4452,3.1085895858777763,0
4453,-2.524300663623849,0
4454,1.5649431892426273,0
4455,-0.7255581510495032,0
4456,0.4084103420648388,0
4457,-0.07097798611902917,0
4458,0.07968731465732111,0
4459,0.02565599644811455,0
4460,0.06316224841616462,0
